time,x,y,yaw,cov_prop
1786900706.8422284,0.0,0.0,0.0,"[9.99990287e-03 0.00000000e+00 0.00000000e+00 0.00000000e+00
 0.00000000e+00 2.95475972e-09 0.00000000e+00 9.99990000e-03
 0.00000000e+00 0.00000000e+00 0.00000000e+00 0.00000000e+00
 0.00000000e+00 0.00000000e+00 0.00000000e+00 0.00000000e+00
 0.00000000e+00 0.00000000e+00 0.00000000e+00 0.00000000e+00
 0.00000000e+00 0.00000000e+00 0.00000000e+00 0.00000000e+00
 0.00000000e+00 0.00000000e+00 0.00000000e+00 0.00000000e+00
 0.00000000e+00 0.00000000e+00 2.95475972e-09 0.00000000e+00
 0.00000000e+00 0.00000000e+00 0.00000000e+00 9.99996001e-03]"
1786900706.9092393,0.0,0.0,0.0,"[9.99990287e-03 0.00000000e+00 0.00000000e+00 0.00000000e+00
 0.00000000e+00 2.95475972e-09 0.00000000e+00 9.99990000e-03
 0.00000000e+00 0.00000000e+00 0.00000000e+00 0.00000000e+00
 0.00000000e+00 0.00000000e+00 0.00000000e+00 0.00000000e+00
 0.00000000e+00 0.00000000e+00 0.00000000e+00 0.00000000e+00
 0.00000000e+00 0.00000000e+00 0.00000000e+00 0.00000000e+00
 0.00000000e+00 0.00000000e+00 0.00000000e+00 0.00000000e+00
 0.00000000e+00 0.00000000e+00 2.95475972e-09 0.00000000e+00
 0.00000000e+00 0.00000000e+00 0.00000000e+00 9.99996001e-03]"
1786900707.0108554,0.0,0.0,0.0,"[9.99990287e-03 0.00000000e+00 0.00000000e+00 0.00000000e+00
 0.00000000e+00 2.95475972e-09 0.00000000e+00 9.99990000e-03
 0.00000000e+00 0.00000000e+00 0.00000000e+00 0.00000000e+00
 0.00000000e+00 0.00000000e+00 0.00000000e+00 0.00000000e+00
 0.00000000e+00 0.00000000e+00 0.00000000e+00 0.00000000e+00
 0.00000000e+00 0.00000000e+00 0.00000000e+00 0.00000000e+00
 0.00000000e+00 0.00000000e+00 0.00000000e+00 0.00000000e+00
 0.00000000e+00 0.00000000e+00 2.95475972e-09 0.00000000e+00
 0.00000000e+00 0.00000000e+00 0.00000000e+00 9.99996001e-03]"
1786900707.0430675,0.0,0.0,0.0,"[9.99990287e-03 0.00000000e+00 0.00000000e+00 0.00000000e+00
 0.00000000e+00 2.95475972e-09 0.00000000e+00 9.99990000e-03
 0.00000000e+00 0.00000000e+00 0.00000000e+00 0.00000000e+00
 0.00000000e+00 0.00000000e+00 0.00000000e+00 0.00000000e+00
 0.00000000e+00 0.00000000e+00 0.00000000e+00 0.00000000e+00
 0.00000000e+00 0.00000000e+00 0.00000000e+00 0.00000000e+00
 0.00000000e+00 0.00000000e+00 0.00000000e+00 0.00000000e+00
 0.00000000e+00 0.00000000e+00 2.95475972e-09 0.00000000e+00
 0.00000000e+00 0.00000000e+00 0.00000000e+00 9.99996001e-03]"
1786900707.1200614,0.0,0.0,0.0,"[9.99990287e-03 0.00000000e+00 0.00000000e+00 0.00000000e+00
 0.00000000e+00 2.95475972e-09 0.00000000e+00 9.99990000e-03
 0.00000000e+00 0.00000000e+00 0.00000000e+00 0.00000000e+00
 0.00000000e+00 0.00000000e+00 0.00000000e+00 0.00000000e+00
 0.00000000e+00 0.00000000e+00 0.00000000e+00 0.00000000e+00
 0.00000000e+00 0.00000000e+00 0.00000000e+00 0.00000000e+00
 0.00000000e+00 0.00000000e+00 0.00000000e+00 0.00000000e+00
 0.00000000e+00 0.00000000e+00 2.95475972e-09 0.00000000e+00
 0.00000000e+00 0.00000000e+00 0.00000000e+00 9.99996001e-03]"
1786900707.143106,0.0,0.0,0.0,"[9.99990287e-03 0.00000000e+00 0.00000000e+00 0.00000000e+00
 0.00000000e+00 2.95475972e-09 0.00000000e+00 9.99990000e-03
 0.00000000e+00 0.00000000e+00 0.00000000e+00 0.00000000e+00
 0.00000000e+00 0.00000000e+00 0.00000000e+00 0.00000000e+00
 0.00000000e+00 0.00000000e+00 0.00000000e+00 0.00000000e+00
 0.00000000e+00 0.00000000e+00 0.00000000e+00 0.00000000e+00
 0.00000000e+00 0.00000000e+00 0.00000000e+00 0.00000000e+00
 0.00000000e+00 0.00000000e+00 2.95475972e-09 0.00000000e+00
 0.00000000e+00 0.00000000e+00 0.00000000e+00 9.99996001e-03]"
1786900707.2263563,0.0,0.0,0.0,"[9.99990287e-03 0.00000000e+00 0.00000000e+00 0.00000000e+00
 0.00000000e+00 2.95475972e-09 0.00000000e+00 9.99990000e-03
 0.00000000e+00 0.00000000e+00 0.00000000e+00 0.00000000e+00
 0.00000000e+00 0.00000000e+00 0.00000000e+00 0.00000000e+00
 0.00000000e+00 0.00000000e+00 0.00000000e+00 0.00000000e+00
 0.00000000e+00 0.00000000e+00 0.00000000e+00 0.00000000e+00
 0.00000000e+00 0.00000000e+00 0.00000000e+00 0.00000000e+00
 0.00000000e+00 0.00000000e+00 2.95475972e-09 0.00000000e+00
 0.00000000e+00 0.00000000e+00 0.00000000e+00 9.99996001e-03]"
1786900707.241143,0.0,0.0,0.0,"[9.99990287e-03 0.00000000e+00 0.00000000e+00 0.00000000e+00
 0.00000000e+00 2.95475972e-09 0.00000000e+00 9.99990000e-03
 0.00000000e+00 0.00000000e+00 0.00000000e+00 0.00000000e+00
 0.00000000e+00 0.00000000e+00 0.00000000e+00 0.00000000e+00
 0.00000000e+00 0.00000000e+00 0.00000000e+00 0.00000000e+00
 0.00000000e+00 0.00000000e+00 0.00000000e+00 0.00000000e+00
 0.00000000e+00 0.00000000e+00 0.00000000e+00 0.00000000e+00
 0.00000000e+00 0.00000000e+00 2.95475972e-09 0.00000000e+00
 0.00000000e+00 0.00000000e+00 0.00000000e+00 9.99996001e-03]"
1786900707.2951868,0.0,0.0,0.0,"[9.99990287e-03 0.00000000e+00 0.00000000e+00 0.00000000e+00
 0.00000000e+00 2.95475972e-09 0.00000000e+00 9.99990000e-03
 0.00000000e+00 0.00000000e+00 0.00000000e+00 0.00000000e+00
 0.00000000e+00 0.00000000e+00 0.00000000e+00 0.00000000e+00
 0.00000000e+00 0.00000000e+00 0.00000000e+00 0.00000000e+00
 0.00000000e+00 0.00000000e+00 0.00000000e+00 0.00000000e+00
 0.00000000e+00 0.00000000e+00 0.00000000e+00 0.00000000e+00
 0.00000000e+00 0.00000000e+00 2.95475972e-09 0.00000000e+00
 0.00000000e+00 0.00000000e+00 0.00000000e+00 9.99996001e-03]"
1786900707.3469899,0.0,0.0,0.0,"[9.99990287e-03 0.00000000e+00 0.00000000e+00 0.00000000e+00
 0.00000000e+00 2.95475972e-09 0.00000000e+00 9.99990000e-03
 0.00000000e+00 0.00000000e+00 0.00000000e+00 0.00000000e+00
 0.00000000e+00 0.00000000e+00 0.00000000e+00 0.00000000e+00
 0.00000000e+00 0.00000000e+00 0.00000000e+00 0.00000000e+00
 0.00000000e+00 0.00000000e+00 0.00000000e+00 0.00000000e+00
 0.00000000e+00 0.00000000e+00 0.00000000e+00 0.00000000e+00
 0.00000000e+00 0.00000000e+00 2.95475972e-09 0.00000000e+00
 0.00000000e+00 0.00000000e+00 0.00000000e+00 9.99996001e-03]"
1786900707.3912563,0.0,0.0,0.0,"[9.99990287e-03 0.00000000e+00 0.00000000e+00 0.00000000e+00
 0.00000000e+00 2.95475972e-09 0.00000000e+00 9.99990000e-03
 0.00000000e+00 0.00000000e+00 0.00000000e+00 0.00000000e+00
 0.00000000e+00 0.00000000e+00 0.00000000e+00 0.00000000e+00
 0.00000000e+00 0.00000000e+00 0.00000000e+00 0.00000000e+00
 0.00000000e+00 0.00000000e+00 0.00000000e+00 0.00000000e+00
 0.00000000e+00 0.00000000e+00 0.00000000e+00 0.00000000e+00
 0.00000000e+00 0.00000000e+00 2.95475972e-09 0.00000000e+00
 0.00000000e+00 0.00000000e+00 0.00000000e+00 9.99996001e-03]"
1786900707.4412093,0.0,0.0,0.0,"[9.99990287e-03 0.00000000e+00 0.00000000e+00 0.00000000e+00
 0.00000000e+00 2.95475972e-09 0.00000000e+00 9.99990000e-03
 0.00000000e+00 0.00000000e+00 0.00000000e+00 0.00000000e+00
 0.00000000e+00 0.00000000e+00 0.00000000e+00 0.00000000e+00
 0.00000000e+00 0.00000000e+00 0.00000000e+00 0.00000000e+00
 0.00000000e+00 0.00000000e+00 0.00000000e+00 0.00000000e+00
 0.00000000e+00 0.00000000e+00 0.00000000e+00 0.00000000e+00
 0.00000000e+00 0.00000000e+00 2.95475972e-09 0.00000000e+00
 0.00000000e+00 0.00000000e+00 0.00000000e+00 9.99996001e-03]"
1786900707.4947464,0.0,0.0,0.0,"[9.99990287e-03 0.00000000e+00 0.00000000e+00 0.00000000e+00
 0.00000000e+00 2.95475972e-09 0.00000000e+00 9.99990000e-03
 0.00000000e+00 0.00000000e+00 0.00000000e+00 0.00000000e+00
 0.00000000e+00 0.00000000e+00 0.00000000e+00 0.00000000e+00
 0.00000000e+00 0.00000000e+00 0.00000000e+00 0.00000000e+00
 0.00000000e+00 0.00000000e+00 0.00000000e+00 0.00000000e+00
 0.00000000e+00 0.00000000e+00 0.00000000e+00 0.00000000e+00
 0.00000000e+00 0.00000000e+00 2.95475972e-09 0.00000000e+00
 0.00000000e+00 0.00000000e+00 0.00000000e+00 9.99996001e-03]"
1786900707.541389,0.0,0.0,0.0,"[9.99990287e-03 0.00000000e+00 0.00000000e+00 0.00000000e+00
 0.00000000e+00 2.95475972e-09 0.00000000e+00 9.99990000e-03
 0.00000000e+00 0.00000000e+00 0.00000000e+00 0.00000000e+00
 0.00000000e+00 0.00000000e+00 0.00000000e+00 0.00000000e+00
 0.00000000e+00 0.00000000e+00 0.00000000e+00 0.00000000e+00
 0.00000000e+00 0.00000000e+00 0.00000000e+00 0.00000000e+00
 0.00000000e+00 0.00000000e+00 0.00000000e+00 0.00000000e+00
 0.00000000e+00 0.00000000e+00 2.95475972e-09 0.00000000e+00
 0.00000000e+00 0.00000000e+00 0.00000000e+00 9.99996001e-03]"
1786900707.5942357,0.0,0.0,0.0,"[9.99990287e-03 0.00000000e+00 0.00000000e+00 0.00000000e+00
 0.00000000e+00 2.95475972e-09 0.00000000e+00 9.99990000e-03
 0.00000000e+00 0.00000000e+00 0.00000000e+00 0.00000000e+00
 0.00000000e+00 0.00000000e+00 0.00000000e+00 0.00000000e+00
 0.00000000e+00 0.00000000e+00 0.00000000e+00 0.00000000e+00
 0.00000000e+00 0.00000000e+00 0.00000000e+00 0.00000000e+00
 0.00000000e+00 0.00000000e+00 0.00000000e+00 0.00000000e+00
 0.00000000e+00 0.00000000e+00 2.95475972e-09 0.00000000e+00
 0.00000000e+00 0.00000000e+00 0.00000000e+00 9.99996001e-03]"
1786900707.6459763,0.0,0.0,0.0,"[9.99990287e-03 0.00000000e+00 0.00000000e+00 0.00000000e+00
 0.00000000e+00 2.95475972e-09 0.00000000e+00 9.99990000e-03
 0.00000000e+00 0.00000000e+00 0.00000000e+00 0.00000000e+00
 0.00000000e+00 0.00000000e+00 0.00000000e+00 0.00000000e+00
 0.00000000e+00 0.00000000e+00 0.00000000e+00 0.00000000e+00
 0.00000000e+00 0.00000000e+00 0.00000000e+00 0.00000000e+00
 0.00000000e+00 0.00000000e+00 0.00000000e+00 0.00000000e+00
 0.00000000e+00 0.00000000e+00 2.95475972e-09 0.00000000e+00
 0.00000000e+00 0.00000000e+00 0.00000000e+00 9.99996001e-03]"
1786900707.6919472,0.0,0.0,0.0,"[9.99990287e-03 0.00000000e+00 0.00000000e+00 0.00000000e+00
 0.00000000e+00 2.95475972e-09 0.00000000e+00 9.99990000e-03
 0.00000000e+00 0.00000000e+00 0.00000000e+00 0.00000000e+00
 0.00000000e+00 0.00000000e+00 0.00000000e+00 0.00000000e+00
 0.00000000e+00 0.00000000e+00 0.00000000e+00 0.00000000e+00
 0.00000000e+00 0.00000000e+00 0.00000000e+00 0.00000000e+00
 0.00000000e+00 0.00000000e+00 0.00000000e+00 0.00000000e+00
 0.00000000e+00 0.00000000e+00 2.95475972e-09 0.00000000e+00
 0.00000000e+00 0.00000000e+00 0.00000000e+00 9.99996001e-03]"
1786900707.753386,0.0,0.0,0.0,"[9.99990287e-03 0.00000000e+00 0.00000000e+00 0.00000000e+00
 0.00000000e+00 2.95475972e-09 0.00000000e+00 9.99990000e-03
 0.00000000e+00 0.00000000e+00 0.00000000e+00 0.00000000e+00
 0.00000000e+00 0.00000000e+00 0.00000000e+00 0.00000000e+00
 0.00000000e+00 0.00000000e+00 0.00000000e+00 0.00000000e+00
 0.00000000e+00 0.00000000e+00 0.00000000e+00 0.00000000e+00
 0.00000000e+00 0.00000000e+00 0.00000000e+00 0.00000000e+00
 0.00000000e+00 0.00000000e+00 2.95475972e-09 0.00000000e+00
 0.00000000e+00 0.00000000e+00 0.00000000e+00 9.99996001e-03]"
1786900707.7927146,0.0,0.0,0.0,"[9.99990287e-03 0.00000000e+00 0.00000000e+00 0.00000000e+00
 0.00000000e+00 2.95475972e-09 0.00000000e+00 9.99990000e-03
 0.00000000e+00 0.00000000e+00 0.00000000e+00 0.00000000e+00
 0.00000000e+00 0.00000000e+00 0.00000000e+00 0.00000000e+00
 0.00000000e+00 0.00000000e+00 0.00000000e+00 0.00000000e+00
 0.00000000e+00 0.00000000e+00 0.00000000e+00 0.00000000e+00
 0.00000000e+00 0.00000000e+00 0.00000000e+00 0.00000000e+00
 0.00000000e+00 0.00000000e+00 2.95475972e-09 0.00000000e+00
 0.00000000e+00 0.00000000e+00 0.00000000e+00 9.99996001e-03]"
1786900707.8440876,0.0,0.0,0.0,"[9.99990287e-03 0.00000000e+00 0.00000000e+00 0.00000000e+00
 0.00000000e+00 2.95475972e-09 0.00000000e+00 9.99990000e-03
 0.00000000e+00 0.00000000e+00 0.00000000e+00 0.00000000e+00
 0.00000000e+00 0.00000000e+00 0.00000000e+00 0.00000000e+00
 0.00000000e+00 0.00000000e+00 0.00000000e+00 0.00000000e+00
 0.00000000e+00 0.00000000e+00 0.00000000e+00 0.00000000e+00
 0.00000000e+00 0.00000000e+00 0.00000000e+00 0.00000000e+00
 0.00000000e+00 0.00000000e+00 2.95475972e-09 0.00000000e+00
 0.00000000e+00 0.00000000e+00 0.00000000e+00 9.99996001e-03]"
1786900707.9224944,0.0,0.0,0.0,"[9.99990287e-03 0.00000000e+00 0.00000000e+00 0.00000000e+00
 0.00000000e+00 2.95475972e-09 0.00000000e+00 9.99990000e-03
 0.00000000e+00 0.00000000e+00 0.00000000e+00 0.00000000e+00
 0.00000000e+00 0.00000000e+00 0.00000000e+00 0.00000000e+00
 0.00000000e+00 0.00000000e+00 0.00000000e+00 0.00000000e+00
 0.00000000e+00 0.00000000e+00 0.00000000e+00 0.00000000e+00
 0.00000000e+00 0.00000000e+00 0.00000000e+00 0.00000000e+00
 0.00000000e+00 0.00000000e+00 2.95475972e-09 0.00000000e+00
 0.00000000e+00 0.00000000e+00 0.00000000e+00 9.99996001e-03]"
1786900707.9412687,0.0,0.0,0.0,"[9.99990287e-03 0.00000000e+00 0.00000000e+00 0.00000000e+00
 0.00000000e+00 2.95475972e-09 0.00000000e+00 9.99990000e-03
 0.00000000e+00 0.00000000e+00 0.00000000e+00 0.00000000e+00
 0.00000000e+00 0.00000000e+00 0.00000000e+00 0.00000000e+00
 0.00000000e+00 0.00000000e+00 0.00000000e+00 0.00000000e+00
 0.00000000e+00 0.00000000e+00 0.00000000e+00 0.00000000e+00
 0.00000000e+00 0.00000000e+00 0.00000000e+00 0.00000000e+00
 0.00000000e+00 0.00000000e+00 2.95475972e-09 0.00000000e+00
 0.00000000e+00 0.00000000e+00 0.00000000e+00 9.99996001e-03]"
1786900708.0029516,0.0,0.0,0.0,"[9.99990287e-03 0.00000000e+00 0.00000000e+00 0.00000000e+00
 0.00000000e+00 2.95475972e-09 0.00000000e+00 9.99990000e-03
 0.00000000e+00 0.00000000e+00 0.00000000e+00 0.00000000e+00
 0.00000000e+00 0.00000000e+00 0.00000000e+00 0.00000000e+00
 0.00000000e+00 0.00000000e+00 0.00000000e+00 0.00000000e+00
 0.00000000e+00 0.00000000e+00 0.00000000e+00 0.00000000e+00
 0.00000000e+00 0.00000000e+00 0.00000000e+00 0.00000000e+00
 0.00000000e+00 0.00000000e+00 2.95475972e-09 0.00000000e+00
 0.00000000e+00 0.00000000e+00 0.00000000e+00 9.99996001e-03]"
1786900708.0413265,0.0,0.0,0.0,"[9.99990287e-03 0.00000000e+00 0.00000000e+00 0.00000000e+00
 0.00000000e+00 2.95475972e-09 0.00000000e+00 9.99990000e-03
 0.00000000e+00 0.00000000e+00 0.00000000e+00 0.00000000e+00
 0.00000000e+00 0.00000000e+00 0.00000000e+00 0.00000000e+00
 0.00000000e+00 0.00000000e+00 0.00000000e+00 0.00000000e+00
 0.00000000e+00 0.00000000e+00 0.00000000e+00 0.00000000e+00
 0.00000000e+00 0.00000000e+00 0.00000000e+00 0.00000000e+00
 0.00000000e+00 0.00000000e+00 2.95475972e-09 0.00000000e+00
 0.00000000e+00 0.00000000e+00 0.00000000e+00 9.99996001e-03]"
1786900708.1020575,0.0,0.0,0.0,"[9.99990287e-03 0.00000000e+00 0.00000000e+00 0.00000000e+00
 0.00000000e+00 2.95475972e-09 0.00000000e+00 9.99990000e-03
 0.00000000e+00 0.00000000e+00 0.00000000e+00 0.00000000e+00
 0.00000000e+00 0.00000000e+00 0.00000000e+00 0.00000000e+00
 0.00000000e+00 0.00000000e+00 0.00000000e+00 0.00000000e+00
 0.00000000e+00 0.00000000e+00 0.00000000e+00 0.00000000e+00
 0.00000000e+00 0.00000000e+00 0.00000000e+00 0.00000000e+00
 0.00000000e+00 0.00000000e+00 2.95475972e-09 0.00000000e+00
 0.00000000e+00 0.00000000e+00 0.00000000e+00 9.99996001e-03]"
1786900708.1440256,0.0,0.0,0.0,"[9.99990287e-03 0.00000000e+00 0.00000000e+00 0.00000000e+00
 0.00000000e+00 2.95475972e-09 0.00000000e+00 9.99990000e-03
 0.00000000e+00 0.00000000e+00 0.00000000e+00 0.00000000e+00
 0.00000000e+00 0.00000000e+00 0.00000000e+00 0.00000000e+00
 0.00000000e+00 0.00000000e+00 0.00000000e+00 0.00000000e+00
 0.00000000e+00 0.00000000e+00 0.00000000e+00 0.00000000e+00
 0.00000000e+00 0.00000000e+00 0.00000000e+00 0.00000000e+00
 0.00000000e+00 0.00000000e+00 2.95475972e-09 0.00000000e+00
 0.00000000e+00 0.00000000e+00 0.00000000e+00 9.99996001e-03]"
1786900708.1915867,0.0,0.0,0.0,"[9.99990287e-03 0.00000000e+00 0.00000000e+00 0.00000000e+00
 0.00000000e+00 2.95475972e-09 0.00000000e+00 9.99990000e-03
 0.00000000e+00 0.00000000e+00 0.00000000e+00 0.00000000e+00
 0.00000000e+00 0.00000000e+00 0.00000000e+00 0.00000000e+00
 0.00000000e+00 0.00000000e+00 0.00000000e+00 0.00000000e+00
 0.00000000e+00 0.00000000e+00 0.00000000e+00 0.00000000e+00
 0.00000000e+00 0.00000000e+00 0.00000000e+00 0.00000000e+00
 0.00000000e+00 0.00000000e+00 2.95475972e-09 0.00000000e+00
 0.00000000e+00 0.00000000e+00 0.00000000e+00 9.99996001e-03]"
1786900708.243332,0.0,0.0,0.0,"[9.99990287e-03 0.00000000e+00 0.00000000e+00 0.00000000e+00
 0.00000000e+00 2.95475972e-09 0.00000000e+00 9.99990000e-03
 0.00000000e+00 0.00000000e+00 0.00000000e+00 0.00000000e+00
 0.00000000e+00 0.00000000e+00 0.00000000e+00 0.00000000e+00
 0.00000000e+00 0.00000000e+00 0.00000000e+00 0.00000000e+00
 0.00000000e+00 0.00000000e+00 0.00000000e+00 0.00000000e+00
 0.00000000e+00 0.00000000e+00 0.00000000e+00 0.00000000e+00
 0.00000000e+00 0.00000000e+00 2.95475972e-09 0.00000000e+00
 0.00000000e+00 0.00000000e+00 0.00000000e+00 9.99996001e-03]"
1786900708.2949147,0.0,0.0,0.0,"[9.99990287e-03 0.00000000e+00 0.00000000e+00 0.00000000e+00
 0.00000000e+00 2.95475972e-09 0.00000000e+00 9.99990000e-03
 0.00000000e+00 0.00000000e+00 0.00000000e+00 0.00000000e+00
 0.00000000e+00 0.00000000e+00 0.00000000e+00 0.00000000e+00
 0.00000000e+00 0.00000000e+00 0.00000000e+00 0.00000000e+00
 0.00000000e+00 0.00000000e+00 0.00000000e+00 0.00000000e+00
 0.00000000e+00 0.00000000e+00 0.00000000e+00 0.00000000e+00
 0.00000000e+00 0.00000000e+00 2.95475972e-09 0.00000000e+00
 0.00000000e+00 0.00000000e+00 0.00000000e+00 9.99996001e-03]"
1786900708.386415,0.0,0.0,0.0,"[9.99990287e-03 0.00000000e+00 0.00000000e+00 0.00000000e+00
 0.00000000e+00 2.95475972e-09 0.00000000e+00 9.99990000e-03
 0.00000000e+00 0.00000000e+00 0.00000000e+00 0.00000000e+00
 0.00000000e+00 0.00000000e+00 0.00000000e+00 0.00000000e+00
 0.00000000e+00 0.00000000e+00 0.00000000e+00 0.00000000e+00
 0.00000000e+00 0.00000000e+00 0.00000000e+00 0.00000000e+00
 0.00000000e+00 0.00000000e+00 0.00000000e+00 0.00000000e+00
 0.00000000e+00 0.00000000e+00 2.95475972e-09 0.00000000e+00
 0.00000000e+00 0.00000000e+00 0.00000000e+00 9.99996001e-03]"
1786900708.3927505,0.0,0.0,0.0,"[9.99990287e-03 0.00000000e+00 0.00000000e+00 0.00000000e+00
 0.00000000e+00 2.95475972e-09 0.00000000e+00 9.99990000e-03
 0.00000000e+00 0.00000000e+00 0.00000000e+00 0.00000000e+00
 0.00000000e+00 0.00000000e+00 0.00000000e+00 0.00000000e+00
 0.00000000e+00 0.00000000e+00 0.00000000e+00 0.00000000e+00
 0.00000000e+00 0.00000000e+00 0.00000000e+00 0.00000000e+00
 0.00000000e+00 0.00000000e+00 0.00000000e+00 0.00000000e+00
 0.00000000e+00 0.00000000e+00 2.95475972e-09 0.00000000e+00
 0.00000000e+00 0.00000000e+00 0.00000000e+00 9.99996001e-03]"
1786900708.452043,0.0,0.0,0.0,"[9.99990287e-03 0.00000000e+00 0.00000000e+00 0.00000000e+00
 0.00000000e+00 2.95475972e-09 0.00000000e+00 9.99990000e-03
 0.00000000e+00 0.00000000e+00 0.00000000e+00 0.00000000e+00
 0.00000000e+00 0.00000000e+00 0.00000000e+00 0.00000000e+00
 0.00000000e+00 0.00000000e+00 0.00000000e+00 0.00000000e+00
 0.00000000e+00 0.00000000e+00 0.00000000e+00 0.00000000e+00
 0.00000000e+00 0.00000000e+00 0.00000000e+00 0.00000000e+00
 0.00000000e+00 0.00000000e+00 2.95475972e-09 0.00000000e+00
 0.00000000e+00 0.00000000e+00 0.00000000e+00 9.99996001e-03]"
1786900708.4922032,0.0,0.0,0.0,"[9.99990287e-03 0.00000000e+00 0.00000000e+00 0.00000000e+00
 0.00000000e+00 2.95475972e-09 0.00000000e+00 9.99990000e-03
 0.00000000e+00 0.00000000e+00 0.00000000e+00 0.00000000e+00
 0.00000000e+00 0.00000000e+00 0.00000000e+00 0.00000000e+00
 0.00000000e+00 0.00000000e+00 0.00000000e+00 0.00000000e+00
 0.00000000e+00 0.00000000e+00 0.00000000e+00 0.00000000e+00
 0.00000000e+00 0.00000000e+00 0.00000000e+00 0.00000000e+00
 0.00000000e+00 0.00000000e+00 2.95475972e-09 0.00000000e+00
 0.00000000e+00 0.00000000e+00 0.00000000e+00 9.99996001e-03]"
1786900708.5419972,0.0,0.0,0.0,"[9.99990287e-03 0.00000000e+00 0.00000000e+00 0.00000000e+00
 0.00000000e+00 2.95475972e-09 0.00000000e+00 9.99990000e-03
 0.00000000e+00 0.00000000e+00 0.00000000e+00 0.00000000e+00
 0.00000000e+00 0.00000000e+00 0.00000000e+00 0.00000000e+00
 0.00000000e+00 0.00000000e+00 0.00000000e+00 0.00000000e+00
 0.00000000e+00 0.00000000e+00 0.00000000e+00 0.00000000e+00
 0.00000000e+00 0.00000000e+00 0.00000000e+00 0.00000000e+00
 0.00000000e+00 0.00000000e+00 2.95475972e-09 0.00000000e+00
 0.00000000e+00 0.00000000e+00 0.00000000e+00 9.99996001e-03]"
1786900708.5913794,0.0,0.0,0.0,"[9.99990287e-03 0.00000000e+00 0.00000000e+00 0.00000000e+00
 0.00000000e+00 2.95475972e-09 0.00000000e+00 9.99990000e-03
 0.00000000e+00 0.00000000e+00 0.00000000e+00 0.00000000e+00
 0.00000000e+00 0.00000000e+00 0.00000000e+00 0.00000000e+00
 0.00000000e+00 0.00000000e+00 0.00000000e+00 0.00000000e+00
 0.00000000e+00 0.00000000e+00 0.00000000e+00 0.00000000e+00
 0.00000000e+00 0.00000000e+00 0.00000000e+00 0.00000000e+00
 0.00000000e+00 0.00000000e+00 2.95475972e-09 0.00000000e+00
 0.00000000e+00 0.00000000e+00 0.00000000e+00 9.99996001e-03]"
1786900708.6418905,0.0,0.0,0.0,"[9.99990287e-03 0.00000000e+00 0.00000000e+00 0.00000000e+00
 0.00000000e+00 2.95475972e-09 0.00000000e+00 9.99990000e-03
 0.00000000e+00 0.00000000e+00 0.00000000e+00 0.00000000e+00
 0.00000000e+00 0.00000000e+00 0.00000000e+00 0.00000000e+00
 0.00000000e+00 0.00000000e+00 0.00000000e+00 0.00000000e+00
 0.00000000e+00 0.00000000e+00 0.00000000e+00 0.00000000e+00
 0.00000000e+00 0.00000000e+00 0.00000000e+00 0.00000000e+00
 0.00000000e+00 0.00000000e+00 2.95475972e-09 0.00000000e+00
 0.00000000e+00 0.00000000e+00 0.00000000e+00 9.99996001e-03]"
1786900708.6963437,0.0,0.0,0.0,"[9.99990287e-03 0.00000000e+00 0.00000000e+00 0.00000000e+00
 0.00000000e+00 2.95475972e-09 0.00000000e+00 9.99990000e-03
 0.00000000e+00 0.00000000e+00 0.00000000e+00 0.00000000e+00
 0.00000000e+00 0.00000000e+00 0.00000000e+00 0.00000000e+00
 0.00000000e+00 0.00000000e+00 0.00000000e+00 0.00000000e+00
 0.00000000e+00 0.00000000e+00 0.00000000e+00 0.00000000e+00
 0.00000000e+00 0.00000000e+00 0.00000000e+00 0.00000000e+00
 0.00000000e+00 0.00000000e+00 2.95475972e-09 0.00000000e+00
 0.00000000e+00 0.00000000e+00 0.00000000e+00 9.99996001e-03]"
1786900708.7427602,0.0,0.0,0.0,"[9.99990287e-03 0.00000000e+00 0.00000000e+00 0.00000000e+00
 0.00000000e+00 2.95475972e-09 0.00000000e+00 9.99990000e-03
 0.00000000e+00 0.00000000e+00 0.00000000e+00 0.00000000e+00
 0.00000000e+00 0.00000000e+00 0.00000000e+00 0.00000000e+00
 0.00000000e+00 0.00000000e+00 0.00000000e+00 0.00000000e+00
 0.00000000e+00 0.00000000e+00 0.00000000e+00 0.00000000e+00
 0.00000000e+00 0.00000000e+00 0.00000000e+00 0.00000000e+00
 0.00000000e+00 0.00000000e+00 2.95475972e-09 0.00000000e+00
 0.00000000e+00 0.00000000e+00 0.00000000e+00 9.99996001e-03]"
1786900708.7924511,0.0,0.0,0.0,"[9.99990287e-03 0.00000000e+00 0.00000000e+00 0.00000000e+00
 0.00000000e+00 2.95475972e-09 0.00000000e+00 9.99990000e-03
 0.00000000e+00 0.00000000e+00 0.00000000e+00 0.00000000e+00
 0.00000000e+00 0.00000000e+00 0.00000000e+00 0.00000000e+00
 0.00000000e+00 0.00000000e+00 0.00000000e+00 0.00000000e+00
 0.00000000e+00 0.00000000e+00 0.00000000e+00 0.00000000e+00
 0.00000000e+00 0.00000000e+00 0.00000000e+00 0.00000000e+00
 0.00000000e+00 0.00000000e+00 2.95475972e-09 0.00000000e+00
 0.00000000e+00 0.00000000e+00 0.00000000e+00 9.99996001e-03]"
1786900708.862839,0.0,0.0,0.0,"[9.99990287e-03 0.00000000e+00 0.00000000e+00 0.00000000e+00
 0.00000000e+00 2.95475972e-09 0.00000000e+00 9.99990000e-03
 0.00000000e+00 0.00000000e+00 0.00000000e+00 0.00000000e+00
 0.00000000e+00 0.00000000e+00 0.00000000e+00 0.00000000e+00
 0.00000000e+00 0.00000000e+00 0.00000000e+00 0.00000000e+00
 0.00000000e+00 0.00000000e+00 0.00000000e+00 0.00000000e+00
 0.00000000e+00 0.00000000e+00 0.00000000e+00 0.00000000e+00
 0.00000000e+00 0.00000000e+00 2.95475972e-09 0.00000000e+00
 0.00000000e+00 0.00000000e+00 0.00000000e+00 9.99996001e-03]"
1786900708.9052854,0.0,0.0,0.0,"[9.99990287e-03 0.00000000e+00 0.00000000e+00 0.00000000e+00
 0.00000000e+00 2.95475972e-09 0.00000000e+00 9.99990000e-03
 0.00000000e+00 0.00000000e+00 0.00000000e+00 0.00000000e+00
 0.00000000e+00 0.00000000e+00 0.00000000e+00 0.00000000e+00
 0.00000000e+00 0.00000000e+00 0.00000000e+00 0.00000000e+00
 0.00000000e+00 0.00000000e+00 0.00000000e+00 0.00000000e+00
 0.00000000e+00 0.00000000e+00 0.00000000e+00 0.00000000e+00
 0.00000000e+00 0.00000000e+00 2.95475972e-09 0.00000000e+00
 0.00000000e+00 0.00000000e+00 0.00000000e+00 9.99996001e-03]"
1786900708.9443228,0.0,0.0,0.0,"[9.99990287e-03 0.00000000e+00 0.00000000e+00 0.00000000e+00
 0.00000000e+00 2.95475972e-09 0.00000000e+00 9.99990000e-03
 0.00000000e+00 0.00000000e+00 0.00000000e+00 0.00000000e+00
 0.00000000e+00 0.00000000e+00 0.00000000e+00 0.00000000e+00
 0.00000000e+00 0.00000000e+00 0.00000000e+00 0.00000000e+00
 0.00000000e+00 0.00000000e+00 0.00000000e+00 0.00000000e+00
 0.00000000e+00 0.00000000e+00 0.00000000e+00 0.00000000e+00
 0.00000000e+00 0.00000000e+00 2.95475972e-09 0.00000000e+00
 0.00000000e+00 0.00000000e+00 0.00000000e+00 9.99996001e-03]"
1786900708.9951572,0.0,0.0,0.0,"[9.99990287e-03 0.00000000e+00 0.00000000e+00 0.00000000e+00
 0.00000000e+00 2.95475972e-09 0.00000000e+00 9.99990000e-03
 0.00000000e+00 0.00000000e+00 0.00000000e+00 0.00000000e+00
 0.00000000e+00 0.00000000e+00 0.00000000e+00 0.00000000e+00
 0.00000000e+00 0.00000000e+00 0.00000000e+00 0.00000000e+00
 0.00000000e+00 0.00000000e+00 0.00000000e+00 0.00000000e+00
 0.00000000e+00 0.00000000e+00 0.00000000e+00 0.00000000e+00
 0.00000000e+00 0.00000000e+00 2.95475972e-09 0.00000000e+00
 0.00000000e+00 0.00000000e+00 0.00000000e+00 9.99996001e-03]"
1786900709.0412478,0.0,0.0,0.0,"[9.99990287e-03 0.00000000e+00 0.00000000e+00 0.00000000e+00
 0.00000000e+00 2.95475972e-09 0.00000000e+00 9.99990000e-03
 0.00000000e+00 0.00000000e+00 0.00000000e+00 0.00000000e+00
 0.00000000e+00 0.00000000e+00 0.00000000e+00 0.00000000e+00
 0.00000000e+00 0.00000000e+00 0.00000000e+00 0.00000000e+00
 0.00000000e+00 0.00000000e+00 0.00000000e+00 0.00000000e+00
 0.00000000e+00 0.00000000e+00 0.00000000e+00 0.00000000e+00
 0.00000000e+00 0.00000000e+00 2.95475972e-09 0.00000000e+00
 0.00000000e+00 0.00000000e+00 0.00000000e+00 9.99996001e-03]"
1786900709.0914526,0.0,0.0,0.0,"[9.99990287e-03 0.00000000e+00 0.00000000e+00 0.00000000e+00
 0.00000000e+00 2.95475972e-09 0.00000000e+00 9.99990000e-03
 0.00000000e+00 0.00000000e+00 0.00000000e+00 0.00000000e+00
 0.00000000e+00 0.00000000e+00 0.00000000e+00 0.00000000e+00
 0.00000000e+00 0.00000000e+00 0.00000000e+00 0.00000000e+00
 0.00000000e+00 0.00000000e+00 0.00000000e+00 0.00000000e+00
 0.00000000e+00 0.00000000e+00 0.00000000e+00 0.00000000e+00
 0.00000000e+00 0.00000000e+00 2.95475972e-09 0.00000000e+00
 0.00000000e+00 0.00000000e+00 0.00000000e+00 9.99996001e-03]"
1786900709.1412735,0.0,0.0,0.0,"[9.99990287e-03 0.00000000e+00 0.00000000e+00 0.00000000e+00
 0.00000000e+00 2.95475972e-09 0.00000000e+00 9.99990000e-03
 0.00000000e+00 0.00000000e+00 0.00000000e+00 0.00000000e+00
 0.00000000e+00 0.00000000e+00 0.00000000e+00 0.00000000e+00
 0.00000000e+00 0.00000000e+00 0.00000000e+00 0.00000000e+00
 0.00000000e+00 0.00000000e+00 0.00000000e+00 0.00000000e+00
 0.00000000e+00 0.00000000e+00 0.00000000e+00 0.00000000e+00
 0.00000000e+00 0.00000000e+00 2.95475972e-09 0.00000000e+00
 0.00000000e+00 0.00000000e+00 0.00000000e+00 9.99996001e-03]"
1786900709.1915946,0.0,0.0,0.0,"[9.99990287e-03 0.00000000e+00 0.00000000e+00 0.00000000e+00
 0.00000000e+00 2.95475972e-09 0.00000000e+00 9.99990000e-03
 0.00000000e+00 0.00000000e+00 0.00000000e+00 0.00000000e+00
 0.00000000e+00 0.00000000e+00 0.00000000e+00 0.00000000e+00
 0.00000000e+00 0.00000000e+00 0.00000000e+00 0.00000000e+00
 0.00000000e+00 0.00000000e+00 0.00000000e+00 0.00000000e+00
 0.00000000e+00 0.00000000e+00 0.00000000e+00 0.00000000e+00
 0.00000000e+00 0.00000000e+00 2.95475972e-09 0.00000000e+00
 0.00000000e+00 0.00000000e+00 0.00000000e+00 9.99996001e-03]"
1786900709.2420275,0.0,0.0,0.0,"[9.99990287e-03 0.00000000e+00 0.00000000e+00 0.00000000e+00
 0.00000000e+00 2.95475972e-09 0.00000000e+00 9.99990000e-03
 0.00000000e+00 0.00000000e+00 0.00000000e+00 0.00000000e+00
 0.00000000e+00 0.00000000e+00 0.00000000e+00 0.00000000e+00
 0.00000000e+00 0.00000000e+00 0.00000000e+00 0.00000000e+00
 0.00000000e+00 0.00000000e+00 0.00000000e+00 0.00000000e+00
 0.00000000e+00 0.00000000e+00 0.00000000e+00 0.00000000e+00
 0.00000000e+00 0.00000000e+00 2.95475972e-09 0.00000000e+00
 0.00000000e+00 0.00000000e+00 0.00000000e+00 9.99996001e-03]"
1786900709.293434,0.0,0.0,0.0,"[9.99990287e-03 0.00000000e+00 0.00000000e+00 0.00000000e+00
 0.00000000e+00 2.95475972e-09 0.00000000e+00 9.99990000e-03
 0.00000000e+00 0.00000000e+00 0.00000000e+00 0.00000000e+00
 0.00000000e+00 0.00000000e+00 0.00000000e+00 0.00000000e+00
 0.00000000e+00 0.00000000e+00 0.00000000e+00 0.00000000e+00
 0.00000000e+00 0.00000000e+00 0.00000000e+00 0.00000000e+00
 0.00000000e+00 0.00000000e+00 0.00000000e+00 0.00000000e+00
 0.00000000e+00 0.00000000e+00 2.95475972e-09 0.00000000e+00
 0.00000000e+00 0.00000000e+00 0.00000000e+00 9.99996001e-03]"
1786900709.3417194,0.0,0.0,0.0,"[9.99990287e-03 0.00000000e+00 0.00000000e+00 0.00000000e+00
 0.00000000e+00 2.95475972e-09 0.00000000e+00 9.99990000e-03
 0.00000000e+00 0.00000000e+00 0.00000000e+00 0.00000000e+00
 0.00000000e+00 0.00000000e+00 0.00000000e+00 0.00000000e+00
 0.00000000e+00 0.00000000e+00 0.00000000e+00 0.00000000e+00
 0.00000000e+00 0.00000000e+00 0.00000000e+00 0.00000000e+00
 0.00000000e+00 0.00000000e+00 0.00000000e+00 0.00000000e+00
 0.00000000e+00 0.00000000e+00 2.95475972e-09 0.00000000e+00
 0.00000000e+00 0.00000000e+00 0.00000000e+00 9.99996001e-03]"
1786900709.3990848,0.0,0.0,0.0,"[9.99990287e-03 0.00000000e+00 0.00000000e+00 0.00000000e+00
 0.00000000e+00 2.95475972e-09 0.00000000e+00 9.99990000e-03
 0.00000000e+00 0.00000000e+00 0.00000000e+00 0.00000000e+00
 0.00000000e+00 0.00000000e+00 0.00000000e+00 0.00000000e+00
 0.00000000e+00 0.00000000e+00 0.00000000e+00 0.00000000e+00
 0.00000000e+00 0.00000000e+00 0.00000000e+00 0.00000000e+00
 0.00000000e+00 0.00000000e+00 0.00000000e+00 0.00000000e+00
 0.00000000e+00 0.00000000e+00 2.95475972e-09 0.00000000e+00
 0.00000000e+00 0.00000000e+00 0.00000000e+00 9.99996001e-03]"
1786900709.4519932,0.0,0.0,0.0,"[9.99990287e-03 0.00000000e+00 0.00000000e+00 0.00000000e+00
 0.00000000e+00 2.95475972e-09 0.00000000e+00 9.99990000e-03
 0.00000000e+00 0.00000000e+00 0.00000000e+00 0.00000000e+00
 0.00000000e+00 0.00000000e+00 0.00000000e+00 0.00000000e+00
 0.00000000e+00 0.00000000e+00 0.00000000e+00 0.00000000e+00
 0.00000000e+00 0.00000000e+00 0.00000000e+00 0.00000000e+00
 0.00000000e+00 0.00000000e+00 0.00000000e+00 0.00000000e+00
 0.00000000e+00 0.00000000e+00 2.95475972e-09 0.00000000e+00
 0.00000000e+00 0.00000000e+00 0.00000000e+00 9.99996001e-03]"
1786900709.4924572,0.0,0.0,0.0,"[9.99990287e-03 0.00000000e+00 0.00000000e+00 0.00000000e+00
 0.00000000e+00 2.95475972e-09 0.00000000e+00 9.99990000e-03
 0.00000000e+00 0.00000000e+00 0.00000000e+00 0.00000000e+00
 0.00000000e+00 0.00000000e+00 0.00000000e+00 0.00000000e+00
 0.00000000e+00 0.00000000e+00 0.00000000e+00 0.00000000e+00
 0.00000000e+00 0.00000000e+00 0.00000000e+00 0.00000000e+00
 0.00000000e+00 0.00000000e+00 0.00000000e+00 0.00000000e+00
 0.00000000e+00 0.00000000e+00 2.95475972e-09 0.00000000e+00
 0.00000000e+00 0.00000000e+00 0.00000000e+00 9.99996001e-03]"
1786900709.544515,0.0,0.0,0.0,"[9.99990287e-03 0.00000000e+00 0.00000000e+00 0.00000000e+00
 0.00000000e+00 2.95475972e-09 0.00000000e+00 9.99990000e-03
 0.00000000e+00 0.00000000e+00 0.00000000e+00 0.00000000e+00
 0.00000000e+00 0.00000000e+00 0.00000000e+00 0.00000000e+00
 0.00000000e+00 0.00000000e+00 0.00000000e+00 0.00000000e+00
 0.00000000e+00 0.00000000e+00 0.00000000e+00 0.00000000e+00
 0.00000000e+00 0.00000000e+00 0.00000000e+00 0.00000000e+00
 0.00000000e+00 0.00000000e+00 2.95475972e-09 0.00000000e+00
 0.00000000e+00 0.00000000e+00 0.00000000e+00 9.99996001e-03]"
1786900709.5916328,0.0,0.0,0.0,"[9.99990287e-03 0.00000000e+00 0.00000000e+00 0.00000000e+00
 0.00000000e+00 2.95475972e-09 0.00000000e+00 9.99990000e-03
 0.00000000e+00 0.00000000e+00 0.00000000e+00 0.00000000e+00
 0.00000000e+00 0.00000000e+00 0.00000000e+00 0.00000000e+00
 0.00000000e+00 0.00000000e+00 0.00000000e+00 0.00000000e+00
 0.00000000e+00 0.00000000e+00 0.00000000e+00 0.00000000e+00
 0.00000000e+00 0.00000000e+00 0.00000000e+00 0.00000000e+00
 0.00000000e+00 0.00000000e+00 2.95475972e-09 0.00000000e+00
 0.00000000e+00 0.00000000e+00 0.00000000e+00 9.99996001e-03]"
1786900709.6419308,0.0,0.0,0.0,"[9.99990287e-03 0.00000000e+00 0.00000000e+00 0.00000000e+00
 0.00000000e+00 2.95475972e-09 0.00000000e+00 9.99990000e-03
 0.00000000e+00 0.00000000e+00 0.00000000e+00 0.00000000e+00
 0.00000000e+00 0.00000000e+00 0.00000000e+00 0.00000000e+00
 0.00000000e+00 0.00000000e+00 0.00000000e+00 0.00000000e+00
 0.00000000e+00 0.00000000e+00 0.00000000e+00 0.00000000e+00
 0.00000000e+00 0.00000000e+00 0.00000000e+00 0.00000000e+00
 0.00000000e+00 0.00000000e+00 2.95475972e-09 0.00000000e+00
 0.00000000e+00 0.00000000e+00 0.00000000e+00 9.99996001e-03]"
1786900709.691543,0.0,0.0,0.0,"[9.99990287e-03 0.00000000e+00 0.00000000e+00 0.00000000e+00
 0.00000000e+00 2.95475972e-09 0.00000000e+00 9.99990000e-03
 0.00000000e+00 0.00000000e+00 0.00000000e+00 0.00000000e+00
 0.00000000e+00 0.00000000e+00 0.00000000e+00 0.00000000e+00
 0.00000000e+00 0.00000000e+00 0.00000000e+00 0.00000000e+00
 0.00000000e+00 0.00000000e+00 0.00000000e+00 0.00000000e+00
 0.00000000e+00 0.00000000e+00 0.00000000e+00 0.00000000e+00
 0.00000000e+00 0.00000000e+00 2.95475972e-09 0.00000000e+00
 0.00000000e+00 0.00000000e+00 0.00000000e+00 9.99996001e-03]"
1786900709.784444,0.0,0.0,0.0,"[9.99990287e-03 0.00000000e+00 0.00000000e+00 0.00000000e+00
 0.00000000e+00 2.95475972e-09 0.00000000e+00 9.99990000e-03
 0.00000000e+00 0.00000000e+00 0.00000000e+00 0.00000000e+00
 0.00000000e+00 0.00000000e+00 0.00000000e+00 0.00000000e+00
 0.00000000e+00 0.00000000e+00 0.00000000e+00 0.00000000e+00
 0.00000000e+00 0.00000000e+00 0.00000000e+00 0.00000000e+00
 0.00000000e+00 0.00000000e+00 0.00000000e+00 0.00000000e+00
 0.00000000e+00 0.00000000e+00 2.95475972e-09 0.00000000e+00
 0.00000000e+00 0.00000000e+00 0.00000000e+00 9.99996001e-03]"
1786900709.7951114,0.0,0.0,0.0,"[9.99990287e-03 0.00000000e+00 0.00000000e+00 0.00000000e+00
 0.00000000e+00 2.95475972e-09 0.00000000e+00 9.99990000e-03
 0.00000000e+00 0.00000000e+00 0.00000000e+00 0.00000000e+00
 0.00000000e+00 0.00000000e+00 0.00000000e+00 0.00000000e+00
 0.00000000e+00 0.00000000e+00 0.00000000e+00 0.00000000e+00
 0.00000000e+00 0.00000000e+00 0.00000000e+00 0.00000000e+00
 0.00000000e+00 0.00000000e+00 0.00000000e+00 0.00000000e+00
 0.00000000e+00 0.00000000e+00 2.95475972e-09 0.00000000e+00
 0.00000000e+00 0.00000000e+00 0.00000000e+00 9.99996001e-03]"
1786900709.8545377,0.0,0.0,0.0,"[9.99990287e-03 0.00000000e+00 0.00000000e+00 0.00000000e+00
 0.00000000e+00 2.95475972e-09 0.00000000e+00 9.99990000e-03
 0.00000000e+00 0.00000000e+00 0.00000000e+00 0.00000000e+00
 0.00000000e+00 0.00000000e+00 0.00000000e+00 0.00000000e+00
 0.00000000e+00 0.00000000e+00 0.00000000e+00 0.00000000e+00
 0.00000000e+00 0.00000000e+00 0.00000000e+00 0.00000000e+00
 0.00000000e+00 0.00000000e+00 0.00000000e+00 0.00000000e+00
 0.00000000e+00 0.00000000e+00 2.95475972e-09 0.00000000e+00
 0.00000000e+00 0.00000000e+00 0.00000000e+00 9.99996001e-03]"
1786900709.9171963,0.0,0.0,0.0,"[9.99990287e-03 0.00000000e+00 0.00000000e+00 0.00000000e+00
 0.00000000e+00 2.95475972e-09 0.00000000e+00 9.99990000e-03
 0.00000000e+00 0.00000000e+00 0.00000000e+00 0.00000000e+00
 0.00000000e+00 0.00000000e+00 0.00000000e+00 0.00000000e+00
 0.00000000e+00 0.00000000e+00 0.00000000e+00 0.00000000e+00
 0.00000000e+00 0.00000000e+00 0.00000000e+00 0.00000000e+00
 0.00000000e+00 0.00000000e+00 0.00000000e+00 0.00000000e+00
 0.00000000e+00 0.00000000e+00 2.95475972e-09 0.00000000e+00
 0.00000000e+00 0.00000000e+00 0.00000000e+00 9.99996001e-03]"
1786900709.9445972,0.0,0.0,0.0,"[9.99990287e-03 0.00000000e+00 0.00000000e+00 0.00000000e+00
 0.00000000e+00 2.95475972e-09 0.00000000e+00 9.99990000e-03
 0.00000000e+00 0.00000000e+00 0.00000000e+00 0.00000000e+00
 0.00000000e+00 0.00000000e+00 0.00000000e+00 0.00000000e+00
 0.00000000e+00 0.00000000e+00 0.00000000e+00 0.00000000e+00
 0.00000000e+00 0.00000000e+00 0.00000000e+00 0.00000000e+00
 0.00000000e+00 0.00000000e+00 0.00000000e+00 0.00000000e+00
 0.00000000e+00 0.00000000e+00 2.95475972e-09 0.00000000e+00
 0.00000000e+00 0.00000000e+00 0.00000000e+00 9.99996001e-03]"
1786900709.9977775,0.0,0.0,0.0,"[9.99990287e-03 0.00000000e+00 0.00000000e+00 0.00000000e+00
 0.00000000e+00 2.95475972e-09 0.00000000e+00 9.99990000e-03
 0.00000000e+00 0.00000000e+00 0.00000000e+00 0.00000000e+00
 0.00000000e+00 0.00000000e+00 0.00000000e+00 0.00000000e+00
 0.00000000e+00 0.00000000e+00 0.00000000e+00 0.00000000e+00
 0.00000000e+00 0.00000000e+00 0.00000000e+00 0.00000000e+00
 0.00000000e+00 0.00000000e+00 0.00000000e+00 0.00000000e+00
 0.00000000e+00 0.00000000e+00 2.95475972e-09 0.00000000e+00
 0.00000000e+00 0.00000000e+00 0.00000000e+00 9.99996001e-03]"
1786900710.0558944,0.0,0.0,0.0,"[9.99990287e-03 0.00000000e+00 0.00000000e+00 0.00000000e+00
 0.00000000e+00 2.95475972e-09 0.00000000e+00 9.99990000e-03
 0.00000000e+00 0.00000000e+00 0.00000000e+00 0.00000000e+00
 0.00000000e+00 0.00000000e+00 0.00000000e+00 0.00000000e+00
 0.00000000e+00 0.00000000e+00 0.00000000e+00 0.00000000e+00
 0.00000000e+00 0.00000000e+00 0.00000000e+00 0.00000000e+00
 0.00000000e+00 0.00000000e+00 0.00000000e+00 0.00000000e+00
 0.00000000e+00 0.00000000e+00 2.95475972e-09 0.00000000e+00
 0.00000000e+00 0.00000000e+00 0.00000000e+00 9.99996001e-03]"
1786900710.1160965,0.0,0.0,0.0,"[9.99990287e-03 0.00000000e+00 0.00000000e+00 0.00000000e+00
 0.00000000e+00 2.95475972e-09 0.00000000e+00 9.99990000e-03
 0.00000000e+00 0.00000000e+00 0.00000000e+00 0.00000000e+00
 0.00000000e+00 0.00000000e+00 0.00000000e+00 0.00000000e+00
 0.00000000e+00 0.00000000e+00 0.00000000e+00 0.00000000e+00
 0.00000000e+00 0.00000000e+00 0.00000000e+00 0.00000000e+00
 0.00000000e+00 0.00000000e+00 0.00000000e+00 0.00000000e+00
 0.00000000e+00 0.00000000e+00 2.95475972e-09 0.00000000e+00
 0.00000000e+00 0.00000000e+00 0.00000000e+00 9.99996001e-03]"
1786900710.1422126,0.0,0.0,0.0,"[9.99990287e-03 0.00000000e+00 0.00000000e+00 0.00000000e+00
 0.00000000e+00 2.95475972e-09 0.00000000e+00 9.99990000e-03
 0.00000000e+00 0.00000000e+00 0.00000000e+00 0.00000000e+00
 0.00000000e+00 0.00000000e+00 0.00000000e+00 0.00000000e+00
 0.00000000e+00 0.00000000e+00 0.00000000e+00 0.00000000e+00
 0.00000000e+00 0.00000000e+00 0.00000000e+00 0.00000000e+00
 0.00000000e+00 0.00000000e+00 0.00000000e+00 0.00000000e+00
 0.00000000e+00 0.00000000e+00 2.95475972e-09 0.00000000e+00
 0.00000000e+00 0.00000000e+00 0.00000000e+00 9.99996001e-03]"
