time,x,y,yaw,cov_prop,K_gain,innovation,v_ekf,omega_ekf
1787306544.3941545,0.2542111338265367,-0.7983937909018632,0.15087618365707023,"[ 2.58696173e-05 -3.89003933e-06  0.00000000e+00  0.00000000e+00
  0.00000000e+00 -3.61398920e-06 -3.89003933e-06  2.01653141e-05
  0.00000000e+00  0.00000000e+00  0.00000000e+00  4.69141246e-06
  0.00000000e+00  0.00000000e+00  0.00000000e+00  0.00000000e+00
  0.00000000e+00  0.00000000e+00  0.00000000e+00  0.00000000e+00
  0.00000000e+00  0.00000000e+00  0.00000000e+00  0.00000000e+00
  0.00000000e+00  0.00000000e+00  0.00000000e+00  0.00000000e+00
  0.00000000e+00  0.00000000e+00 -3.61398920e-06  4.69141246e-06
  0.00000000e+00  0.00000000e+00  0.00000000e+00  4.98111505e-06]","[[-0.00065171  0.00683901]
 [ 0.00012996 -0.01556648]]",[],0.0,0.0
1787306544.4521325,0.2542111338265367,-0.7983937909018632,0.15087618365707023,"[ 2.58696173e-05 -3.89003933e-06  0.00000000e+00  0.00000000e+00
  0.00000000e+00 -3.61398920e-06 -3.89003933e-06  2.01653141e-05
  0.00000000e+00  0.00000000e+00  0.00000000e+00  4.69141246e-06
  0.00000000e+00  0.00000000e+00  0.00000000e+00  0.00000000e+00
  0.00000000e+00  0.00000000e+00  0.00000000e+00  0.00000000e+00
  0.00000000e+00  0.00000000e+00  0.00000000e+00  0.00000000e+00
  0.00000000e+00  0.00000000e+00  0.00000000e+00  0.00000000e+00
  0.00000000e+00  0.00000000e+00 -3.61398920e-06  4.69141246e-06
  0.00000000e+00  0.00000000e+00  0.00000000e+00  4.98111505e-06]","[[-0.00065171  0.00683901]
 [ 0.00012996 -0.01556648]]",[],0.0,0.0
1787306544.4973197,0.2542111338265367,-0.7983937909018632,0.15087618365707023,"[ 2.58696173e-05 -3.89003933e-06  0.00000000e+00  0.00000000e+00
  0.00000000e+00 -3.61398920e-06 -3.89003933e-06  2.01653141e-05
  0.00000000e+00  0.00000000e+00  0.00000000e+00  4.69141246e-06
  0.00000000e+00  0.00000000e+00  0.00000000e+00  0.00000000e+00
  0.00000000e+00  0.00000000e+00  0.00000000e+00  0.00000000e+00
  0.00000000e+00  0.00000000e+00  0.00000000e+00  0.00000000e+00
  0.00000000e+00  0.00000000e+00  0.00000000e+00  0.00000000e+00
  0.00000000e+00  0.00000000e+00 -3.61398920e-06  4.69141246e-06
  0.00000000e+00  0.00000000e+00  0.00000000e+00  4.98111505e-06]","[[-0.00065171  0.00683901]
 [ 0.00012996 -0.01556648]]",[],0.0,0.0
1787306544.5483944,0.2542111338265367,-0.7983937909018632,0.15087618365707023,"[ 2.58696173e-05 -3.89003933e-06  0.00000000e+00  0.00000000e+00
  0.00000000e+00 -3.61398920e-06 -3.89003933e-06  2.01653141e-05
  0.00000000e+00  0.00000000e+00  0.00000000e+00  4.69141246e-06
  0.00000000e+00  0.00000000e+00  0.00000000e+00  0.00000000e+00
  0.00000000e+00  0.00000000e+00  0.00000000e+00  0.00000000e+00
  0.00000000e+00  0.00000000e+00  0.00000000e+00  0.00000000e+00
  0.00000000e+00  0.00000000e+00  0.00000000e+00  0.00000000e+00
  0.00000000e+00  0.00000000e+00 -3.61398920e-06  4.69141246e-06
  0.00000000e+00  0.00000000e+00  0.00000000e+00  4.98111505e-06]","[[-0.00065171  0.00683901]
 [ 0.00012996 -0.01556648]]",[],0.0,0.0
1787306544.5945127,0.2542111338265367,-0.7983937909018632,0.15087618365707023,"[ 2.58696173e-05 -3.89003933e-06  0.00000000e+00  0.00000000e+00
  0.00000000e+00 -3.61398920e-06 -3.89003933e-06  2.01653141e-05
  0.00000000e+00  0.00000000e+00  0.00000000e+00  4.69141246e-06
  0.00000000e+00  0.00000000e+00  0.00000000e+00  0.00000000e+00
  0.00000000e+00  0.00000000e+00  0.00000000e+00  0.00000000e+00
  0.00000000e+00  0.00000000e+00  0.00000000e+00  0.00000000e+00
  0.00000000e+00  0.00000000e+00  0.00000000e+00  0.00000000e+00
  0.00000000e+00  0.00000000e+00 -3.61398920e-06  4.69141246e-06
  0.00000000e+00  0.00000000e+00  0.00000000e+00  4.98111505e-06]","[[-0.00065171  0.00683901]
 [ 0.00012996 -0.01556648]]",[],0.0,0.0
1787306544.6526163,0.2542111338265367,-0.7983937909018632,0.15087618365707023,"[ 2.58696173e-05 -3.89003933e-06  0.00000000e+00  0.00000000e+00
  0.00000000e+00 -3.61398920e-06 -3.89003933e-06  2.01653141e-05
  0.00000000e+00  0.00000000e+00  0.00000000e+00  4.69141246e-06
  0.00000000e+00  0.00000000e+00  0.00000000e+00  0.00000000e+00
  0.00000000e+00  0.00000000e+00  0.00000000e+00  0.00000000e+00
  0.00000000e+00  0.00000000e+00  0.00000000e+00  0.00000000e+00
  0.00000000e+00  0.00000000e+00  0.00000000e+00  0.00000000e+00
  0.00000000e+00  0.00000000e+00 -3.61398920e-06  4.69141246e-06
  0.00000000e+00  0.00000000e+00  0.00000000e+00  4.98111505e-06]","[[-0.00065171  0.00683901]
 [ 0.00012996 -0.01556648]]",[],0.0,0.0
1787306544.7444973,0.2542111338265367,-0.7983937909018632,0.15087618365707023,"[ 2.58696173e-05 -3.89003933e-06  0.00000000e+00  0.00000000e+00
  0.00000000e+00 -3.61398920e-06 -3.89003933e-06  2.01653141e-05
  0.00000000e+00  0.00000000e+00  0.00000000e+00  4.69141246e-06
  0.00000000e+00  0.00000000e+00  0.00000000e+00  0.00000000e+00
  0.00000000e+00  0.00000000e+00  0.00000000e+00  0.00000000e+00
  0.00000000e+00  0.00000000e+00  0.00000000e+00  0.00000000e+00
  0.00000000e+00  0.00000000e+00  0.00000000e+00  0.00000000e+00
  0.00000000e+00  0.00000000e+00 -3.61398920e-06  4.69141246e-06
  0.00000000e+00  0.00000000e+00  0.00000000e+00  4.98111505e-06]","[[-0.00065171  0.00683901]
 [ 0.00012996 -0.01556648]]",[],0.0,0.0
1787306544.825781,0.2542111338265367,-0.7983937909018632,0.15087618365707023,"[ 2.58696173e-05 -3.89003933e-06  0.00000000e+00  0.00000000e+00
  0.00000000e+00 -3.61398920e-06 -3.89003933e-06  2.01653141e-05
  0.00000000e+00  0.00000000e+00  0.00000000e+00  4.69141246e-06
  0.00000000e+00  0.00000000e+00  0.00000000e+00  0.00000000e+00
  0.00000000e+00  0.00000000e+00  0.00000000e+00  0.00000000e+00
  0.00000000e+00  0.00000000e+00  0.00000000e+00  0.00000000e+00
  0.00000000e+00  0.00000000e+00  0.00000000e+00  0.00000000e+00
  0.00000000e+00  0.00000000e+00 -3.61398920e-06  4.69141246e-06
  0.00000000e+00  0.00000000e+00  0.00000000e+00  4.98111505e-06]","[[-0.00065171  0.00683901]
 [ 0.00012996 -0.01556648]]",[],0.0,0.0
1787306544.8510952,0.2542111338265367,-0.7983937909018632,0.15087618365707023,"[ 2.58696173e-05 -3.89003933e-06  0.00000000e+00  0.00000000e+00
  0.00000000e+00 -3.61398920e-06 -3.89003933e-06  2.01653141e-05
  0.00000000e+00  0.00000000e+00  0.00000000e+00  4.69141246e-06
  0.00000000e+00  0.00000000e+00  0.00000000e+00  0.00000000e+00
  0.00000000e+00  0.00000000e+00  0.00000000e+00  0.00000000e+00
  0.00000000e+00  0.00000000e+00  0.00000000e+00  0.00000000e+00
  0.00000000e+00  0.00000000e+00  0.00000000e+00  0.00000000e+00
  0.00000000e+00  0.00000000e+00 -3.61398920e-06  4.69141246e-06
  0.00000000e+00  0.00000000e+00  0.00000000e+00  4.98111505e-06]","[[-0.00065171  0.00683901]
 [ 0.00012996 -0.01556648]]",[],0.0,0.0
1787306544.9026446,0.2542111338265367,-0.7983937909018632,0.15087618365707023,"[ 2.58696173e-05 -3.89003933e-06  0.00000000e+00  0.00000000e+00
  0.00000000e+00 -3.61398920e-06 -3.89003933e-06  2.01653141e-05
  0.00000000e+00  0.00000000e+00  0.00000000e+00  4.69141246e-06
  0.00000000e+00  0.00000000e+00  0.00000000e+00  0.00000000e+00
  0.00000000e+00  0.00000000e+00  0.00000000e+00  0.00000000e+00
  0.00000000e+00  0.00000000e+00  0.00000000e+00  0.00000000e+00
  0.00000000e+00  0.00000000e+00  0.00000000e+00  0.00000000e+00
  0.00000000e+00  0.00000000e+00 -3.61398920e-06  4.69141246e-06
  0.00000000e+00  0.00000000e+00  0.00000000e+00  4.98111505e-06]","[[-0.00065171  0.00683901]
 [ 0.00012996 -0.01556648]]",[],0.0,0.0
1787306544.9568033,0.2542111338265367,-0.7983937909018632,0.15087618365707023,"[ 2.58696173e-05 -3.89003933e-06  0.00000000e+00  0.00000000e+00
  0.00000000e+00 -3.61398920e-06 -3.89003933e-06  2.01653141e-05
  0.00000000e+00  0.00000000e+00  0.00000000e+00  4.69141246e-06
  0.00000000e+00  0.00000000e+00  0.00000000e+00  0.00000000e+00
  0.00000000e+00  0.00000000e+00  0.00000000e+00  0.00000000e+00
  0.00000000e+00  0.00000000e+00  0.00000000e+00  0.00000000e+00
  0.00000000e+00  0.00000000e+00  0.00000000e+00  0.00000000e+00
  0.00000000e+00  0.00000000e+00 -3.61398920e-06  4.69141246e-06
  0.00000000e+00  0.00000000e+00  0.00000000e+00  4.98111505e-06]","[[-0.00065171  0.00683901]
 [ 0.00012996 -0.01556648]]",[],0.0,0.0
1787306545.0276783,0.2542111338265367,-0.7983937909018632,0.15087618365707023,"[ 2.58696173e-05 -3.89003933e-06  0.00000000e+00  0.00000000e+00
  0.00000000e+00 -3.61398920e-06 -3.89003933e-06  2.01653141e-05
  0.00000000e+00  0.00000000e+00  0.00000000e+00  4.69141246e-06
  0.00000000e+00  0.00000000e+00  0.00000000e+00  0.00000000e+00
  0.00000000e+00  0.00000000e+00  0.00000000e+00  0.00000000e+00
  0.00000000e+00  0.00000000e+00  0.00000000e+00  0.00000000e+00
  0.00000000e+00  0.00000000e+00  0.00000000e+00  0.00000000e+00
  0.00000000e+00  0.00000000e+00 -3.61398920e-06  4.69141246e-06
  0.00000000e+00  0.00000000e+00  0.00000000e+00  4.98111505e-06]","[[-0.00065171  0.00683901]
 [ 0.00012996 -0.01556648]]",[],0.0,0.0
1787306545.0554605,0.2542111338265367,-0.7983937909018632,0.15087618365707023,"[ 2.58696173e-05 -3.89003933e-06  0.00000000e+00  0.00000000e+00
  0.00000000e+00 -3.61398920e-06 -3.89003933e-06  2.01653141e-05
  0.00000000e+00  0.00000000e+00  0.00000000e+00  4.69141246e-06
  0.00000000e+00  0.00000000e+00  0.00000000e+00  0.00000000e+00
  0.00000000e+00  0.00000000e+00  0.00000000e+00  0.00000000e+00
  0.00000000e+00  0.00000000e+00  0.00000000e+00  0.00000000e+00
  0.00000000e+00  0.00000000e+00  0.00000000e+00  0.00000000e+00
  0.00000000e+00  0.00000000e+00 -3.61398920e-06  4.69141246e-06
  0.00000000e+00  0.00000000e+00  0.00000000e+00  4.98111505e-06]","[[-0.00065171  0.00683901]
 [ 0.00012996 -0.01556648]]",[],0.0,0.0
1787306545.1348968,0.2542111338265367,-0.7983937909018632,0.15087618365707023,"[ 2.58696173e-05 -3.89003933e-06  0.00000000e+00  0.00000000e+00
  0.00000000e+00 -3.61398920e-06 -3.89003933e-06  2.01653141e-05
  0.00000000e+00  0.00000000e+00  0.00000000e+00  4.69141246e-06
  0.00000000e+00  0.00000000e+00  0.00000000e+00  0.00000000e+00
  0.00000000e+00  0.00000000e+00  0.00000000e+00  0.00000000e+00
  0.00000000e+00  0.00000000e+00  0.00000000e+00  0.00000000e+00
  0.00000000e+00  0.00000000e+00  0.00000000e+00  0.00000000e+00
  0.00000000e+00  0.00000000e+00 -3.61398920e-06  4.69141246e-06
  0.00000000e+00  0.00000000e+00  0.00000000e+00  4.98111505e-06]","[[-0.00065171  0.00683901]
 [ 0.00012996 -0.01556648]]",[],0.0,0.0
1787306545.1504443,0.2542111338265367,-0.7983937909018632,0.15087618365707023,"[ 2.58696173e-05 -3.89003933e-06  0.00000000e+00  0.00000000e+00
  0.00000000e+00 -3.61398920e-06 -3.89003933e-06  2.01653141e-05
  0.00000000e+00  0.00000000e+00  0.00000000e+00  4.69141246e-06
  0.00000000e+00  0.00000000e+00  0.00000000e+00  0.00000000e+00
  0.00000000e+00  0.00000000e+00  0.00000000e+00  0.00000000e+00
  0.00000000e+00  0.00000000e+00  0.00000000e+00  0.00000000e+00
  0.00000000e+00  0.00000000e+00  0.00000000e+00  0.00000000e+00
  0.00000000e+00  0.00000000e+00 -3.61398920e-06  4.69141246e-06
  0.00000000e+00  0.00000000e+00  0.00000000e+00  4.98111505e-06]","[[-0.00065171  0.00683901]
 [ 0.00012996 -0.01556648]]",[],0.0,0.0
1787306545.2360425,0.2542111338265367,-0.7983937909018632,0.15087618365707023,"[ 2.58696173e-05 -3.89003933e-06  0.00000000e+00  0.00000000e+00
  0.00000000e+00 -3.61398920e-06 -3.89003933e-06  2.01653141e-05
  0.00000000e+00  0.00000000e+00  0.00000000e+00  4.69141246e-06
  0.00000000e+00  0.00000000e+00  0.00000000e+00  0.00000000e+00
  0.00000000e+00  0.00000000e+00  0.00000000e+00  0.00000000e+00
  0.00000000e+00  0.00000000e+00  0.00000000e+00  0.00000000e+00
  0.00000000e+00  0.00000000e+00  0.00000000e+00  0.00000000e+00
  0.00000000e+00  0.00000000e+00 -3.61398920e-06  4.69141246e-06
  0.00000000e+00  0.00000000e+00  0.00000000e+00  4.98111505e-06]","[[-0.00065171  0.00683901]
 [ 0.00012996 -0.01556648]]",[],0.0,0.0
1787306545.2449102,0.2542111338265367,-0.7983937909018632,0.15087618365707023,"[ 2.58696173e-05 -3.89003933e-06  0.00000000e+00  0.00000000e+00
  0.00000000e+00 -3.61398920e-06 -3.89003933e-06  2.01653141e-05
  0.00000000e+00  0.00000000e+00  0.00000000e+00  4.69141246e-06
  0.00000000e+00  0.00000000e+00  0.00000000e+00  0.00000000e+00
  0.00000000e+00  0.00000000e+00  0.00000000e+00  0.00000000e+00
  0.00000000e+00  0.00000000e+00  0.00000000e+00  0.00000000e+00
  0.00000000e+00  0.00000000e+00  0.00000000e+00  0.00000000e+00
  0.00000000e+00  0.00000000e+00 -3.61398920e-06  4.69141246e-06
  0.00000000e+00  0.00000000e+00  0.00000000e+00  4.98111505e-06]","[[-0.00065171  0.00683901]
 [ 0.00012996 -0.01556648]]",[],0.0,0.0
1787306545.3170788,0.2542111338265367,-0.7983937909018632,0.15087618365707023,"[ 2.58696173e-05 -3.89003933e-06  0.00000000e+00  0.00000000e+00
  0.00000000e+00 -3.61398920e-06 -3.89003933e-06  2.01653141e-05
  0.00000000e+00  0.00000000e+00  0.00000000e+00  4.69141246e-06
  0.00000000e+00  0.00000000e+00  0.00000000e+00  0.00000000e+00
  0.00000000e+00  0.00000000e+00  0.00000000e+00  0.00000000e+00
  0.00000000e+00  0.00000000e+00  0.00000000e+00  0.00000000e+00
  0.00000000e+00  0.00000000e+00  0.00000000e+00  0.00000000e+00
  0.00000000e+00  0.00000000e+00 -3.61398920e-06  4.69141246e-06
  0.00000000e+00  0.00000000e+00  0.00000000e+00  4.98111505e-06]","[[-0.00065171  0.00683901]
 [ 0.00012996 -0.01556648]]",[],0.0,0.0
1787306545.3420951,0.24338589319064272,-0.7992868028384782,0.14000060543891868,"[ 1.35856246e-05 -1.24380415e-06  0.00000000e+00  0.00000000e+00
  0.00000000e+00 -1.38217138e-06 -1.24380415e-06  9.67004411e-06
  0.00000000e+00  0.00000000e+00  0.00000000e+00  1.75437292e-06
  0.00000000e+00  0.00000000e+00  0.00000000e+00  0.00000000e+00
  0.00000000e+00  0.00000000e+00  0.00000000e+00  0.00000000e+00
  0.00000000e+00  0.00000000e+00  0.00000000e+00  0.00000000e+00
  0.00000000e+00  0.00000000e+00  0.00000000e+00  0.00000000e+00
  0.00000000e+00  0.00000000e+00 -1.38217138e-06  1.75437292e-06
  0.00000000e+00  0.00000000e+00  0.00000000e+00  3.36585827e-06]","[[-3.35166600e-04  3.27455841e-03]
 [ 8.05027738e-06 -6.71576889e-03]]",[],0.0,0.0
1787306545.4297206,0.24338589319064272,-0.7992868028384782,0.14000060543891868,"[ 1.35856246e-05 -1.24380415e-06  0.00000000e+00  0.00000000e+00
  0.00000000e+00 -1.38217138e-06 -1.24380415e-06  9.67004411e-06
  0.00000000e+00  0.00000000e+00  0.00000000e+00  1.75437292e-06
  0.00000000e+00  0.00000000e+00  0.00000000e+00  0.00000000e+00
  0.00000000e+00  0.00000000e+00  0.00000000e+00  0.00000000e+00
  0.00000000e+00  0.00000000e+00  0.00000000e+00  0.00000000e+00
  0.00000000e+00  0.00000000e+00  0.00000000e+00  0.00000000e+00
  0.00000000e+00  0.00000000e+00 -1.38217138e-06  1.75437292e-06
  0.00000000e+00  0.00000000e+00  0.00000000e+00  3.36585827e-06]","[[-3.35166600e-04  3.27455841e-03]
 [ 8.05027738e-06 -6.71576889e-03]]",[],0.0,0.0
1787306545.4596827,0.24338589319064272,-0.7992868028384782,0.14000060543891868,"[ 1.35856246e-05 -1.24380415e-06  0.00000000e+00  0.00000000e+00
  0.00000000e+00 -1.38217138e-06 -1.24380415e-06  9.67004411e-06
  0.00000000e+00  0.00000000e+00  0.00000000e+00  1.75437292e-06
  0.00000000e+00  0.00000000e+00  0.00000000e+00  0.00000000e+00
  0.00000000e+00  0.00000000e+00  0.00000000e+00  0.00000000e+00
  0.00000000e+00  0.00000000e+00  0.00000000e+00  0.00000000e+00
  0.00000000e+00  0.00000000e+00  0.00000000e+00  0.00000000e+00
  0.00000000e+00  0.00000000e+00 -1.38217138e-06  1.75437292e-06
  0.00000000e+00  0.00000000e+00  0.00000000e+00  3.36585827e-06]","[[-3.35166600e-04  3.27455841e-03]
 [ 8.05027738e-06 -6.71576889e-03]]",[],0.0,0.0
1787306545.5306084,0.24338589319064272,-0.7992868028384782,0.14000060543891868,"[ 1.35856246e-05 -1.24380415e-06  0.00000000e+00  0.00000000e+00
  0.00000000e+00 -1.38217138e-06 -1.24380415e-06  9.67004411e-06
  0.00000000e+00  0.00000000e+00  0.00000000e+00  1.75437292e-06
  0.00000000e+00  0.00000000e+00  0.00000000e+00  0.00000000e+00
  0.00000000e+00  0.00000000e+00  0.00000000e+00  0.00000000e+00
  0.00000000e+00  0.00000000e+00  0.00000000e+00  0.00000000e+00
  0.00000000e+00  0.00000000e+00  0.00000000e+00  0.00000000e+00
  0.00000000e+00  0.00000000e+00 -1.38217138e-06  1.75437292e-06
  0.00000000e+00  0.00000000e+00  0.00000000e+00  3.36585827e-06]","[[-3.35166600e-04  3.27455841e-03]
 [ 8.05027738e-06 -6.71576889e-03]]",[],0.0,0.0
1787306545.5596497,0.24338589319064272,-0.7992868028384782,0.14000060543891868,"[ 1.35856246e-05 -1.24380415e-06  0.00000000e+00  0.00000000e+00
  0.00000000e+00 -1.38217138e-06 -1.24380415e-06  9.67004411e-06
  0.00000000e+00  0.00000000e+00  0.00000000e+00  1.75437292e-06
  0.00000000e+00  0.00000000e+00  0.00000000e+00  0.00000000e+00
  0.00000000e+00  0.00000000e+00  0.00000000e+00  0.00000000e+00
  0.00000000e+00  0.00000000e+00  0.00000000e+00  0.00000000e+00
  0.00000000e+00  0.00000000e+00  0.00000000e+00  0.00000000e+00
  0.00000000e+00  0.00000000e+00 -1.38217138e-06  1.75437292e-06
  0.00000000e+00  0.00000000e+00  0.00000000e+00  3.36585827e-06]","[[-3.35166600e-04  3.27455841e-03]
 [ 8.05027738e-06 -6.71576889e-03]]",[],0.0,0.0
1787306545.6518824,0.24338589319064272,-0.7992868028384782,0.14000060543891868,"[ 1.35856246e-05 -1.24380415e-06  0.00000000e+00  0.00000000e+00
  0.00000000e+00 -1.38217138e-06 -1.24380415e-06  9.67004411e-06
  0.00000000e+00  0.00000000e+00  0.00000000e+00  1.75437292e-06
  0.00000000e+00  0.00000000e+00  0.00000000e+00  0.00000000e+00
  0.00000000e+00  0.00000000e+00  0.00000000e+00  0.00000000e+00
  0.00000000e+00  0.00000000e+00  0.00000000e+00  0.00000000e+00
  0.00000000e+00  0.00000000e+00  0.00000000e+00  0.00000000e+00
  0.00000000e+00  0.00000000e+00 -1.38217138e-06  1.75437292e-06
  0.00000000e+00  0.00000000e+00  0.00000000e+00  3.36585827e-06]","[[-3.35166600e-04  3.27455841e-03]
 [ 8.05027738e-06 -6.71576889e-03]]",[],0.0,0.0
1787306545.7475271,0.24338589319064272,-0.7992868028384782,0.14000060543891868,"[ 1.35856246e-05 -1.24380415e-06  0.00000000e+00  0.00000000e+00
  0.00000000e+00 -1.38217138e-06 -1.24380415e-06  9.67004411e-06
  0.00000000e+00  0.00000000e+00  0.00000000e+00  1.75437292e-06
  0.00000000e+00  0.00000000e+00  0.00000000e+00  0.00000000e+00
  0.00000000e+00  0.00000000e+00  0.00000000e+00  0.00000000e+00
  0.00000000e+00  0.00000000e+00  0.00000000e+00  0.00000000e+00
  0.00000000e+00  0.00000000e+00  0.00000000e+00  0.00000000e+00
  0.00000000e+00  0.00000000e+00 -1.38217138e-06  1.75437292e-06
  0.00000000e+00  0.00000000e+00  0.00000000e+00  3.36585827e-06]","[[-3.35166600e-04  3.27455841e-03]
 [ 8.05027738e-06 -6.71576889e-03]]",[],0.0,0.0
1787306545.7930837,0.24338589319064272,-0.7992868028384782,0.14000060543891868,"[ 1.35856246e-05 -1.24380415e-06  0.00000000e+00  0.00000000e+00
  0.00000000e+00 -1.38217138e-06 -1.24380415e-06  9.67004411e-06
  0.00000000e+00  0.00000000e+00  0.00000000e+00  1.75437292e-06
  0.00000000e+00  0.00000000e+00  0.00000000e+00  0.00000000e+00
  0.00000000e+00  0.00000000e+00  0.00000000e+00  0.00000000e+00
  0.00000000e+00  0.00000000e+00  0.00000000e+00  0.00000000e+00
  0.00000000e+00  0.00000000e+00  0.00000000e+00  0.00000000e+00
  0.00000000e+00  0.00000000e+00 -1.38217138e-06  1.75437292e-06
  0.00000000e+00  0.00000000e+00  0.00000000e+00  3.36585827e-06]","[[-3.35166600e-04  3.27455841e-03]
 [ 8.05027738e-06 -6.71576889e-03]]",[],0.0,0.0
1787306545.8666196,0.24338589319064272,-0.7992868028384782,0.14000060543891868,"[ 1.35856246e-05 -1.24380415e-06  0.00000000e+00  0.00000000e+00
  0.00000000e+00 -1.38217138e-06 -1.24380415e-06  9.67004411e-06
  0.00000000e+00  0.00000000e+00  0.00000000e+00  1.75437292e-06
  0.00000000e+00  0.00000000e+00  0.00000000e+00  0.00000000e+00
  0.00000000e+00  0.00000000e+00  0.00000000e+00  0.00000000e+00
  0.00000000e+00  0.00000000e+00  0.00000000e+00  0.00000000e+00
  0.00000000e+00  0.00000000e+00  0.00000000e+00  0.00000000e+00
  0.00000000e+00  0.00000000e+00 -1.38217138e-06  1.75437292e-06
  0.00000000e+00  0.00000000e+00  0.00000000e+00  3.36585827e-06]","[[-3.35166600e-04  3.27455841e-03]
 [ 8.05027738e-06 -6.71576889e-03]]",[],0.0,0.0
1787306545.9253306,0.24338589319064272,-0.7992868028384782,0.14000060543891868,"[ 1.35856246e-05 -1.24380415e-06  0.00000000e+00  0.00000000e+00
  0.00000000e+00 -1.38217138e-06 -1.24380415e-06  9.67004411e-06
  0.00000000e+00  0.00000000e+00  0.00000000e+00  1.75437292e-06
  0.00000000e+00  0.00000000e+00  0.00000000e+00  0.00000000e+00
  0.00000000e+00  0.00000000e+00  0.00000000e+00  0.00000000e+00
  0.00000000e+00  0.00000000e+00  0.00000000e+00  0.00000000e+00
  0.00000000e+00  0.00000000e+00  0.00000000e+00  0.00000000e+00
  0.00000000e+00  0.00000000e+00 -1.38217138e-06  1.75437292e-06
  0.00000000e+00  0.00000000e+00  0.00000000e+00  3.36585827e-06]","[[-3.35166600e-04  3.27455841e-03]
 [ 8.05027738e-06 -6.71576889e-03]]",[],0.0,0.0
1787306545.9467251,0.24338589319064272,-0.7992868028384782,0.14000060543891868,"[ 1.35856246e-05 -1.24380415e-06  0.00000000e+00  0.00000000e+00
  0.00000000e+00 -1.38217138e-06 -1.24380415e-06  9.67004411e-06
  0.00000000e+00  0.00000000e+00  0.00000000e+00  1.75437292e-06
  0.00000000e+00  0.00000000e+00  0.00000000e+00  0.00000000e+00
  0.00000000e+00  0.00000000e+00  0.00000000e+00  0.00000000e+00
  0.00000000e+00  0.00000000e+00  0.00000000e+00  0.00000000e+00
  0.00000000e+00  0.00000000e+00  0.00000000e+00  0.00000000e+00
  0.00000000e+00  0.00000000e+00 -1.38217138e-06  1.75437292e-06
  0.00000000e+00  0.00000000e+00  0.00000000e+00  3.36585827e-06]","[[-3.35166600e-04  3.27455841e-03]
 [ 8.05027738e-06 -6.71576889e-03]]",[],0.0,0.0
1787306545.9985774,0.24338589319064272,-0.7992868028384782,0.14000060543891868,"[ 1.35856246e-05 -1.24380415e-06  0.00000000e+00  0.00000000e+00
  0.00000000e+00 -1.38217138e-06 -1.24380415e-06  9.67004411e-06
  0.00000000e+00  0.00000000e+00  0.00000000e+00  1.75437292e-06
  0.00000000e+00  0.00000000e+00  0.00000000e+00  0.00000000e+00
  0.00000000e+00  0.00000000e+00  0.00000000e+00  0.00000000e+00
  0.00000000e+00  0.00000000e+00  0.00000000e+00  0.00000000e+00
  0.00000000e+00  0.00000000e+00  0.00000000e+00  0.00000000e+00
  0.00000000e+00  0.00000000e+00 -1.38217138e-06  1.75437292e-06
  0.00000000e+00  0.00000000e+00  0.00000000e+00  3.36585827e-06]","[[-3.35166600e-04  3.27455841e-03]
 [ 8.05027738e-06 -6.71576889e-03]]",[],0.0,0.0
1787306546.0688574,0.24338589319064272,-0.7992868028384782,0.14000060543891868,"[ 1.35856246e-05 -1.24380415e-06  0.00000000e+00  0.00000000e+00
  0.00000000e+00 -1.38217138e-06 -1.24380415e-06  9.67004411e-06
  0.00000000e+00  0.00000000e+00  0.00000000e+00  1.75437292e-06
  0.00000000e+00  0.00000000e+00  0.00000000e+00  0.00000000e+00
  0.00000000e+00  0.00000000e+00  0.00000000e+00  0.00000000e+00
  0.00000000e+00  0.00000000e+00  0.00000000e+00  0.00000000e+00
  0.00000000e+00  0.00000000e+00  0.00000000e+00  0.00000000e+00
  0.00000000e+00  0.00000000e+00 -1.38217138e-06  1.75437292e-06
  0.00000000e+00  0.00000000e+00  0.00000000e+00  3.36585827e-06]","[[-3.35166600e-04  3.27455841e-03]
 [ 8.05027738e-06 -6.71576889e-03]]",[],0.0,0.0
1787306546.1430838,0.24338589319064272,-0.7992868028384782,0.14000060543891868,"[ 1.35856246e-05 -1.24380415e-06  0.00000000e+00  0.00000000e+00
  0.00000000e+00 -1.38217138e-06 -1.24380415e-06  9.67004411e-06
  0.00000000e+00  0.00000000e+00  0.00000000e+00  1.75437292e-06
  0.00000000e+00  0.00000000e+00  0.00000000e+00  0.00000000e+00
  0.00000000e+00  0.00000000e+00  0.00000000e+00  0.00000000e+00
  0.00000000e+00  0.00000000e+00  0.00000000e+00  0.00000000e+00
  0.00000000e+00  0.00000000e+00  0.00000000e+00  0.00000000e+00
  0.00000000e+00  0.00000000e+00 -1.38217138e-06  1.75437292e-06
  0.00000000e+00  0.00000000e+00  0.00000000e+00  3.36585827e-06]","[[-3.35166600e-04  3.27455841e-03]
 [ 8.05027738e-06 -6.71576889e-03]]",[],0.0,0.0
1787306546.2184668,0.24338589319064272,-0.7992868028384782,0.14000060543891868,"[ 1.35856246e-05 -1.24380415e-06  0.00000000e+00  0.00000000e+00
  0.00000000e+00 -1.38217138e-06 -1.24380415e-06  9.67004411e-06
  0.00000000e+00  0.00000000e+00  0.00000000e+00  1.75437292e-06
  0.00000000e+00  0.00000000e+00  0.00000000e+00  0.00000000e+00
  0.00000000e+00  0.00000000e+00  0.00000000e+00  0.00000000e+00
  0.00000000e+00  0.00000000e+00  0.00000000e+00  0.00000000e+00
  0.00000000e+00  0.00000000e+00  0.00000000e+00  0.00000000e+00
  0.00000000e+00  0.00000000e+00 -1.38217138e-06  1.75437292e-06
  0.00000000e+00  0.00000000e+00  0.00000000e+00  3.36585827e-06]","[[-3.35166600e-04  3.27455841e-03]
 [ 8.05027738e-06 -6.71576889e-03]]",[],0.0,0.0
1787306546.2495039,0.2228578056899978,-0.796953997727277,0.12007332740283427,"[ 9.20971977e-06 -6.45422138e-07  0.00000000e+00  0.00000000e+00
  0.00000000e+00 -9.39967282e-07 -6.45422138e-07  6.24922976e-06
  0.00000000e+00  0.00000000e+00  0.00000000e+00  1.07469601e-06
  0.00000000e+00  0.00000000e+00  0.00000000e+00  0.00000000e+00
  0.00000000e+00  0.00000000e+00  0.00000000e+00  0.00000000e+00
  0.00000000e+00  0.00000000e+00  0.00000000e+00  0.00000000e+00
  0.00000000e+00  0.00000000e+00  0.00000000e+00  0.00000000e+00
  0.00000000e+00  0.00000000e+00 -9.39967282e-07  1.07469601e-06
  0.00000000e+00  0.00000000e+00  0.00000000e+00  3.12301532e-06]","[[-2.28613691e-04  2.05307815e-03]
 [ 5.47872930e-06 -4.24156761e-03]]",[],0.0,0.0
1787306546.2954643,0.2228578056899978,-0.796953997727277,0.12007332740283427,"[ 9.20971977e-06 -6.45422138e-07  0.00000000e+00  0.00000000e+00
  0.00000000e+00 -9.39967282e-07 -6.45422138e-07  6.24922976e-06
  0.00000000e+00  0.00000000e+00  0.00000000e+00  1.07469601e-06
  0.00000000e+00  0.00000000e+00  0.00000000e+00  0.00000000e+00
  0.00000000e+00  0.00000000e+00  0.00000000e+00  0.00000000e+00
  0.00000000e+00  0.00000000e+00  0.00000000e+00  0.00000000e+00
  0.00000000e+00  0.00000000e+00  0.00000000e+00  0.00000000e+00
  0.00000000e+00  0.00000000e+00 -9.39967282e-07  1.07469601e-06
  0.00000000e+00  0.00000000e+00  0.00000000e+00  3.12301532e-06]","[[-2.28613691e-04  2.05307815e-03]
 [ 5.47872930e-06 -4.24156761e-03]]",[],0.0,0.0
1787306546.367394,0.2228578056899978,-0.796953997727277,0.12007332740283427,"[ 9.20971977e-06 -6.45422138e-07  0.00000000e+00  0.00000000e+00
  0.00000000e+00 -9.39967282e-07 -6.45422138e-07  6.24922976e-06
  0.00000000e+00  0.00000000e+00  0.00000000e+00  1.07469601e-06
  0.00000000e+00  0.00000000e+00  0.00000000e+00  0.00000000e+00
  0.00000000e+00  0.00000000e+00  0.00000000e+00  0.00000000e+00
  0.00000000e+00  0.00000000e+00  0.00000000e+00  0.00000000e+00
  0.00000000e+00  0.00000000e+00  0.00000000e+00  0.00000000e+00
  0.00000000e+00  0.00000000e+00 -9.39967282e-07  1.07469601e-06
  0.00000000e+00  0.00000000e+00  0.00000000e+00  3.12301532e-06]","[[-2.28613691e-04  2.05307815e-03]
 [ 5.47872930e-06 -4.24156761e-03]]",[],0.0,0.0
1787306546.4400861,0.2228578056899978,-0.796953997727277,0.12007332740283427,"[ 9.20971977e-06 -6.45422138e-07  0.00000000e+00  0.00000000e+00
  0.00000000e+00 -9.39967282e-07 -6.45422138e-07  6.24922976e-06
  0.00000000e+00  0.00000000e+00  0.00000000e+00  1.07469601e-06
  0.00000000e+00  0.00000000e+00  0.00000000e+00  0.00000000e+00
  0.00000000e+00  0.00000000e+00  0.00000000e+00  0.00000000e+00
  0.00000000e+00  0.00000000e+00  0.00000000e+00  0.00000000e+00
  0.00000000e+00  0.00000000e+00  0.00000000e+00  0.00000000e+00
  0.00000000e+00  0.00000000e+00 -9.39967282e-07  1.07469601e-06
  0.00000000e+00  0.00000000e+00  0.00000000e+00  3.12301532e-06]","[[-2.28613691e-04  2.05307815e-03]
 [ 5.47872930e-06 -4.24156761e-03]]",[],0.0,0.0
1787306546.4416163,0.2228578056899978,-0.796953997727277,0.12007332740283427,"[ 9.20971977e-06 -6.45422138e-07  0.00000000e+00  0.00000000e+00
  0.00000000e+00 -9.39967282e-07 -6.45422138e-07  6.24922976e-06
  0.00000000e+00  0.00000000e+00  0.00000000e+00  1.07469601e-06
  0.00000000e+00  0.00000000e+00  0.00000000e+00  0.00000000e+00
  0.00000000e+00  0.00000000e+00  0.00000000e+00  0.00000000e+00
  0.00000000e+00  0.00000000e+00  0.00000000e+00  0.00000000e+00
  0.00000000e+00  0.00000000e+00  0.00000000e+00  0.00000000e+00
  0.00000000e+00  0.00000000e+00 -9.39967282e-07  1.07469601e-06
  0.00000000e+00  0.00000000e+00  0.00000000e+00  3.12301532e-06]","[[-2.28613691e-04  2.05307815e-03]
 [ 5.47872930e-06 -4.24156761e-03]]",[],0.0,0.0
1787306546.5237815,0.2228578056899978,-0.796953997727277,0.12007332740283427,"[ 9.20971977e-06 -6.45422138e-07  0.00000000e+00  0.00000000e+00
  0.00000000e+00 -9.39967282e-07 -6.45422138e-07  6.24922976e-06
  0.00000000e+00  0.00000000e+00  0.00000000e+00  1.07469601e-06
  0.00000000e+00  0.00000000e+00  0.00000000e+00  0.00000000e+00
  0.00000000e+00  0.00000000e+00  0.00000000e+00  0.00000000e+00
  0.00000000e+00  0.00000000e+00  0.00000000e+00  0.00000000e+00
  0.00000000e+00  0.00000000e+00  0.00000000e+00  0.00000000e+00
  0.00000000e+00  0.00000000e+00 -9.39967282e-07  1.07469601e-06
  0.00000000e+00  0.00000000e+00  0.00000000e+00  3.12301532e-06]","[[-2.28613691e-04  2.05307815e-03]
 [ 5.47872930e-06 -4.24156761e-03]]",[],0.0,0.0
1787306546.546288,0.2228578056899978,-0.796953997727277,0.12007332740283427,"[ 9.20971977e-06 -6.45422138e-07  0.00000000e+00  0.00000000e+00
  0.00000000e+00 -9.39967282e-07 -6.45422138e-07  6.24922976e-06
  0.00000000e+00  0.00000000e+00  0.00000000e+00  1.07469601e-06
  0.00000000e+00  0.00000000e+00  0.00000000e+00  0.00000000e+00
  0.00000000e+00  0.00000000e+00  0.00000000e+00  0.00000000e+00
  0.00000000e+00  0.00000000e+00  0.00000000e+00  0.00000000e+00
  0.00000000e+00  0.00000000e+00  0.00000000e+00  0.00000000e+00
  0.00000000e+00  0.00000000e+00 -9.39967282e-07  1.07469601e-06
  0.00000000e+00  0.00000000e+00  0.00000000e+00  3.12301532e-06]","[[-2.28613691e-04  2.05307815e-03]
 [ 5.47872930e-06 -4.24156761e-03]]",[],0.0,0.0
1787306546.6299653,0.2228578056899978,-0.796953997727277,0.12007332740283427,"[ 9.20971977e-06 -6.45422138e-07  0.00000000e+00  0.00000000e+00
  0.00000000e+00 -9.39967282e-07 -6.45422138e-07  6.24922976e-06
  0.00000000e+00  0.00000000e+00  0.00000000e+00  1.07469601e-06
  0.00000000e+00  0.00000000e+00  0.00000000e+00  0.00000000e+00
  0.00000000e+00  0.00000000e+00  0.00000000e+00  0.00000000e+00
  0.00000000e+00  0.00000000e+00  0.00000000e+00  0.00000000e+00
  0.00000000e+00  0.00000000e+00  0.00000000e+00  0.00000000e+00
  0.00000000e+00  0.00000000e+00 -9.39967282e-07  1.07469601e-06
  0.00000000e+00  0.00000000e+00  0.00000000e+00  3.12301532e-06]","[[-2.28613691e-04  2.05307815e-03]
 [ 5.47872930e-06 -4.24156761e-03]]",[],0.0,0.0
1787306546.6701999,0.2228578056899978,-0.796953997727277,0.12007332740283427,"[ 9.20971977e-06 -6.45422138e-07  0.00000000e+00  0.00000000e+00
  0.00000000e+00 -9.39967282e-07 -6.45422138e-07  6.24922976e-06
  0.00000000e+00  0.00000000e+00  0.00000000e+00  1.07469601e-06
  0.00000000e+00  0.00000000e+00  0.00000000e+00  0.00000000e+00
  0.00000000e+00  0.00000000e+00  0.00000000e+00  0.00000000e+00
  0.00000000e+00  0.00000000e+00  0.00000000e+00  0.00000000e+00
  0.00000000e+00  0.00000000e+00  0.00000000e+00  0.00000000e+00
  0.00000000e+00  0.00000000e+00 -9.39967282e-07  1.07469601e-06
  0.00000000e+00  0.00000000e+00  0.00000000e+00  3.12301532e-06]","[[-2.28613691e-04  2.05307815e-03]
 [ 5.47872930e-06 -4.24156761e-03]]",[],0.0,0.0
1787306546.6962013,0.2228578056899978,-0.796953997727277,0.12007332740283427,"[ 9.20971977e-06 -6.45422138e-07  0.00000000e+00  0.00000000e+00
  0.00000000e+00 -9.39967282e-07 -6.45422138e-07  6.24922976e-06
  0.00000000e+00  0.00000000e+00  0.00000000e+00  1.07469601e-06
  0.00000000e+00  0.00000000e+00  0.00000000e+00  0.00000000e+00
  0.00000000e+00  0.00000000e+00  0.00000000e+00  0.00000000e+00
  0.00000000e+00  0.00000000e+00  0.00000000e+00  0.00000000e+00
  0.00000000e+00  0.00000000e+00  0.00000000e+00  0.00000000e+00
  0.00000000e+00  0.00000000e+00 -9.39967282e-07  1.07469601e-06
  0.00000000e+00  0.00000000e+00  0.00000000e+00  3.12301532e-06]","[[-2.28613691e-04  2.05307815e-03]
 [ 5.47872930e-06 -4.24156761e-03]]",[],0.0,0.0
1787306546.7780612,0.2228578056899978,-0.796953997727277,0.12007332740283427,"[ 9.20971977e-06 -6.45422138e-07  0.00000000e+00  0.00000000e+00
  0.00000000e+00 -9.39967282e-07 -6.45422138e-07  6.24922976e-06
  0.00000000e+00  0.00000000e+00  0.00000000e+00  1.07469601e-06
  0.00000000e+00  0.00000000e+00  0.00000000e+00  0.00000000e+00
  0.00000000e+00  0.00000000e+00  0.00000000e+00  0.00000000e+00
  0.00000000e+00  0.00000000e+00  0.00000000e+00  0.00000000e+00
  0.00000000e+00  0.00000000e+00  0.00000000e+00  0.00000000e+00
  0.00000000e+00  0.00000000e+00 -9.39967282e-07  1.07469601e-06
  0.00000000e+00  0.00000000e+00  0.00000000e+00  3.12301532e-06]","[[-2.28613691e-04  2.05307815e-03]
 [ 5.47872930e-06 -4.24156761e-03]]",[],0.0,0.0
1787306546.839194,0.2228578056899978,-0.796953997727277,0.12007332740283427,"[ 9.20971977e-06 -6.45422138e-07  0.00000000e+00  0.00000000e+00
  0.00000000e+00 -9.39967282e-07 -6.45422138e-07  6.24922976e-06
  0.00000000e+00  0.00000000e+00  0.00000000e+00  1.07469601e-06
  0.00000000e+00  0.00000000e+00  0.00000000e+00  0.00000000e+00
  0.00000000e+00  0.00000000e+00  0.00000000e+00  0.00000000e+00
  0.00000000e+00  0.00000000e+00  0.00000000e+00  0.00000000e+00
  0.00000000e+00  0.00000000e+00  0.00000000e+00  0.00000000e+00
  0.00000000e+00  0.00000000e+00 -9.39967282e-07  1.07469601e-06
  0.00000000e+00  0.00000000e+00  0.00000000e+00  3.12301532e-06]","[[-2.28613691e-04  2.05307815e-03]
 [ 5.47872930e-06 -4.24156761e-03]]",[],0.0,0.0
1787306546.8515642,0.2228578056899978,-0.796953997727277,0.12007332740283427,"[ 9.20971977e-06 -6.45422138e-07  0.00000000e+00  0.00000000e+00
  0.00000000e+00 -9.39967282e-07 -6.45422138e-07  6.24922976e-06
  0.00000000e+00  0.00000000e+00  0.00000000e+00  1.07469601e-06
  0.00000000e+00  0.00000000e+00  0.00000000e+00  0.00000000e+00
  0.00000000e+00  0.00000000e+00  0.00000000e+00  0.00000000e+00
  0.00000000e+00  0.00000000e+00  0.00000000e+00  0.00000000e+00
  0.00000000e+00  0.00000000e+00  0.00000000e+00  0.00000000e+00
  0.00000000e+00  0.00000000e+00 -9.39967282e-07  1.07469601e-06
  0.00000000e+00  0.00000000e+00  0.00000000e+00  3.12301532e-06]","[[-2.28613691e-04  2.05307815e-03]
 [ 5.47872930e-06 -4.24156761e-03]]",[],0.0,0.0
1787306546.9374661,0.2228578056899978,-0.796953997727277,0.12007332740283427,"[ 9.20971977e-06 -6.45422138e-07  0.00000000e+00  0.00000000e+00
  0.00000000e+00 -9.39967282e-07 -6.45422138e-07  6.24922976e-06
  0.00000000e+00  0.00000000e+00  0.00000000e+00  1.07469601e-06
  0.00000000e+00  0.00000000e+00  0.00000000e+00  0.00000000e+00
  0.00000000e+00  0.00000000e+00  0.00000000e+00  0.00000000e+00
  0.00000000e+00  0.00000000e+00  0.00000000e+00  0.00000000e+00
  0.00000000e+00  0.00000000e+00  0.00000000e+00  0.00000000e+00
  0.00000000e+00  0.00000000e+00 -9.39967282e-07  1.07469601e-06
  0.00000000e+00  0.00000000e+00  0.00000000e+00  3.12301532e-06]","[[-2.28613691e-04  2.05307815e-03]
 [ 5.47872930e-06 -4.24156761e-03]]",[],0.0,0.0
1787306546.944888,0.2228578056899978,-0.796953997727277,0.12007332740283427,"[ 9.20971977e-06 -6.45422138e-07  0.00000000e+00  0.00000000e+00
  0.00000000e+00 -9.39967282e-07 -6.45422138e-07  6.24922976e-06
  0.00000000e+00  0.00000000e+00  0.00000000e+00  1.07469601e-06
  0.00000000e+00  0.00000000e+00  0.00000000e+00  0.00000000e+00
  0.00000000e+00  0.00000000e+00  0.00000000e+00  0.00000000e+00
  0.00000000e+00  0.00000000e+00  0.00000000e+00  0.00000000e+00
  0.00000000e+00  0.00000000e+00  0.00000000e+00  0.00000000e+00
  0.00000000e+00  0.00000000e+00 -9.39967282e-07  1.07469601e-06
  0.00000000e+00  0.00000000e+00  0.00000000e+00  3.12301532e-06]","[[-2.28613691e-04  2.05307815e-03]
 [ 5.47872930e-06 -4.24156761e-03]]",[],0.0,0.0
1787306547.0364065,0.2228578056899978,-0.796953997727277,0.12007332740283427,"[ 9.20971977e-06 -6.45422138e-07  0.00000000e+00  0.00000000e+00
  0.00000000e+00 -9.39967282e-07 -6.45422138e-07  6.24922976e-06
  0.00000000e+00  0.00000000e+00  0.00000000e+00  1.07469601e-06
  0.00000000e+00  0.00000000e+00  0.00000000e+00  0.00000000e+00
  0.00000000e+00  0.00000000e+00  0.00000000e+00  0.00000000e+00
  0.00000000e+00  0.00000000e+00  0.00000000e+00  0.00000000e+00
  0.00000000e+00  0.00000000e+00  0.00000000e+00  0.00000000e+00
  0.00000000e+00  0.00000000e+00 -9.39967282e-07  1.07469601e-06
  0.00000000e+00  0.00000000e+00  0.00000000e+00  3.12301532e-06]","[[-2.28613691e-04  2.05307815e-03]
 [ 5.47872930e-06 -4.24156761e-03]]",[],0.0,0.0
1787306547.0444427,0.2228578056899978,-0.796953997727277,0.12007332740283427,"[ 9.20971977e-06 -6.45422138e-07  0.00000000e+00  0.00000000e+00
  0.00000000e+00 -9.39967282e-07 -6.45422138e-07  6.24922976e-06
  0.00000000e+00  0.00000000e+00  0.00000000e+00  1.07469601e-06
  0.00000000e+00  0.00000000e+00  0.00000000e+00  0.00000000e+00
  0.00000000e+00  0.00000000e+00  0.00000000e+00  0.00000000e+00
  0.00000000e+00  0.00000000e+00  0.00000000e+00  0.00000000e+00
  0.00000000e+00  0.00000000e+00  0.00000000e+00  0.00000000e+00
  0.00000000e+00  0.00000000e+00 -9.39967282e-07  1.07469601e-06
  0.00000000e+00  0.00000000e+00  0.00000000e+00  3.12301532e-06]","[[-2.28613691e-04  2.05307815e-03]
 [ 5.47872930e-06 -4.24156761e-03]]",[],0.0,0.0
1787306547.0961406,0.2228578056899978,-0.796953997727277,0.12007332740283427,"[ 9.20971977e-06 -6.45422138e-07  0.00000000e+00  0.00000000e+00
  0.00000000e+00 -9.39967282e-07 -6.45422138e-07  6.24922976e-06
  0.00000000e+00  0.00000000e+00  0.00000000e+00  1.07469601e-06
  0.00000000e+00  0.00000000e+00  0.00000000e+00  0.00000000e+00
  0.00000000e+00  0.00000000e+00  0.00000000e+00  0.00000000e+00
  0.00000000e+00  0.00000000e+00  0.00000000e+00  0.00000000e+00
  0.00000000e+00  0.00000000e+00  0.00000000e+00  0.00000000e+00
  0.00000000e+00  0.00000000e+00 -9.39967282e-07  1.07469601e-06
  0.00000000e+00  0.00000000e+00  0.00000000e+00  3.12301532e-06]","[[-2.28613691e-04  2.05307815e-03]
 [ 5.47872930e-06 -4.24156761e-03]]",[],0.0,0.0
1787306547.1583009,0.20858728998555748,-0.798209480894173,0.10122625875841654,"[ 7.23540474e-06 -4.49980841e-07  0.00000000e+00  0.00000000e+00
  0.00000000e+00 -5.02554152e-07 -4.49980841e-07  4.72594186e-06
  0.00000000e+00  0.00000000e+00  0.00000000e+00  8.49021179e-07
  0.00000000e+00  0.00000000e+00  0.00000000e+00  0.00000000e+00
  0.00000000e+00  0.00000000e+00  0.00000000e+00  0.00000000e+00
  0.00000000e+00  0.00000000e+00  0.00000000e+00  0.00000000e+00
  0.00000000e+00  0.00000000e+00  0.00000000e+00  0.00000000e+00
  0.00000000e+00  0.00000000e+00 -5.02554152e-07  8.49021179e-07
  0.00000000e+00  0.00000000e+00  0.00000000e+00  3.17907910e-06]","[[-1.78426569e-04  1.32757917e-03]
 [-2.28106523e-06 -3.25762518e-03]]",[],0.0,0.0
1787306547.1915765,0.20858728998555748,-0.798209480894173,0.10122625875841654,"[ 7.23540474e-06 -4.49980841e-07  0.00000000e+00  0.00000000e+00
  0.00000000e+00 -5.02554152e-07 -4.49980841e-07  4.72594186e-06
  0.00000000e+00  0.00000000e+00  0.00000000e+00  8.49021179e-07
  0.00000000e+00  0.00000000e+00  0.00000000e+00  0.00000000e+00
  0.00000000e+00  0.00000000e+00  0.00000000e+00  0.00000000e+00
  0.00000000e+00  0.00000000e+00  0.00000000e+00  0.00000000e+00
  0.00000000e+00  0.00000000e+00  0.00000000e+00  0.00000000e+00
  0.00000000e+00  0.00000000e+00 -5.02554152e-07  8.49021179e-07
  0.00000000e+00  0.00000000e+00  0.00000000e+00  3.17907910e-06]","[[-1.78426569e-04  1.32757917e-03]
 [-2.28106523e-06 -3.25762518e-03]]",[],0.0,0.0
1787306547.2676146,0.20858728998555748,-0.798209480894173,0.10122625875841654,"[ 7.23540474e-06 -4.49980841e-07  0.00000000e+00  0.00000000e+00
  0.00000000e+00 -5.02554152e-07 -4.49980841e-07  4.72594186e-06
  0.00000000e+00  0.00000000e+00  0.00000000e+00  8.49021179e-07
  0.00000000e+00  0.00000000e+00  0.00000000e+00  0.00000000e+00
  0.00000000e+00  0.00000000e+00  0.00000000e+00  0.00000000e+00
  0.00000000e+00  0.00000000e+00  0.00000000e+00  0.00000000e+00
  0.00000000e+00  0.00000000e+00  0.00000000e+00  0.00000000e+00
  0.00000000e+00  0.00000000e+00 -5.02554152e-07  8.49021179e-07
  0.00000000e+00  0.00000000e+00  0.00000000e+00  3.17907910e-06]","[[-1.78426569e-04  1.32757917e-03]
 [-2.28106523e-06 -3.25762518e-03]]",[],0.0,0.0
1787306547.2918096,0.20858728998555748,-0.798209480894173,0.10122625875841654,"[ 7.23540474e-06 -4.49980841e-07  0.00000000e+00  0.00000000e+00
  0.00000000e+00 -5.02554152e-07 -4.49980841e-07  4.72594186e-06
  0.00000000e+00  0.00000000e+00  0.00000000e+00  8.49021179e-07
  0.00000000e+00  0.00000000e+00  0.00000000e+00  0.00000000e+00
  0.00000000e+00  0.00000000e+00  0.00000000e+00  0.00000000e+00
  0.00000000e+00  0.00000000e+00  0.00000000e+00  0.00000000e+00
  0.00000000e+00  0.00000000e+00  0.00000000e+00  0.00000000e+00
  0.00000000e+00  0.00000000e+00 -5.02554152e-07  8.49021179e-07
  0.00000000e+00  0.00000000e+00  0.00000000e+00  3.17907910e-06]","[[-1.78426569e-04  1.32757917e-03]
 [-2.28106523e-06 -3.25762518e-03]]",[],0.0,0.0
1787306547.365772,0.20858728998555748,-0.798209480894173,0.10122625875841654,"[ 7.23540474e-06 -4.49980841e-07  0.00000000e+00  0.00000000e+00
  0.00000000e+00 -5.02554152e-07 -4.49980841e-07  4.72594186e-06
  0.00000000e+00  0.00000000e+00  0.00000000e+00  8.49021179e-07
  0.00000000e+00  0.00000000e+00  0.00000000e+00  0.00000000e+00
  0.00000000e+00  0.00000000e+00  0.00000000e+00  0.00000000e+00
  0.00000000e+00  0.00000000e+00  0.00000000e+00  0.00000000e+00
  0.00000000e+00  0.00000000e+00  0.00000000e+00  0.00000000e+00
  0.00000000e+00  0.00000000e+00 -5.02554152e-07  8.49021179e-07
  0.00000000e+00  0.00000000e+00  0.00000000e+00  3.17907910e-06]","[[-1.78426569e-04  1.32757917e-03]
 [-2.28106523e-06 -3.25762518e-03]]",[],0.0,0.0
1787306547.397401,0.20858728998555748,-0.798209480894173,0.10122625875841654,"[ 7.23540474e-06 -4.49980841e-07  0.00000000e+00  0.00000000e+00
  0.00000000e+00 -5.02554152e-07 -4.49980841e-07  4.72594186e-06
  0.00000000e+00  0.00000000e+00  0.00000000e+00  8.49021179e-07
  0.00000000e+00  0.00000000e+00  0.00000000e+00  0.00000000e+00
  0.00000000e+00  0.00000000e+00  0.00000000e+00  0.00000000e+00
  0.00000000e+00  0.00000000e+00  0.00000000e+00  0.00000000e+00
  0.00000000e+00  0.00000000e+00  0.00000000e+00  0.00000000e+00
  0.00000000e+00  0.00000000e+00 -5.02554152e-07  8.49021179e-07
  0.00000000e+00  0.00000000e+00  0.00000000e+00  3.17907910e-06]","[[-1.78426569e-04  1.32757917e-03]
 [-2.28106523e-06 -3.25762518e-03]]",[],0.0,0.0
1787306547.4496148,0.20858728998555748,-0.798209480894173,0.10122625875841654,"[ 7.23540474e-06 -4.49980841e-07  0.00000000e+00  0.00000000e+00
  0.00000000e+00 -5.02554152e-07 -4.49980841e-07  4.72594186e-06
  0.00000000e+00  0.00000000e+00  0.00000000e+00  8.49021179e-07
  0.00000000e+00  0.00000000e+00  0.00000000e+00  0.00000000e+00
  0.00000000e+00  0.00000000e+00  0.00000000e+00  0.00000000e+00
  0.00000000e+00  0.00000000e+00  0.00000000e+00  0.00000000e+00
  0.00000000e+00  0.00000000e+00  0.00000000e+00  0.00000000e+00
  0.00000000e+00  0.00000000e+00 -5.02554152e-07  8.49021179e-07
  0.00000000e+00  0.00000000e+00  0.00000000e+00  3.17907910e-06]","[[-1.78426569e-04  1.32757917e-03]
 [-2.28106523e-06 -3.25762518e-03]]",[],0.0,0.0
1787306547.4935226,0.20858728998555748,-0.798209480894173,0.10122625875841654,"[ 7.23540474e-06 -4.49980841e-07  0.00000000e+00  0.00000000e+00
  0.00000000e+00 -5.02554152e-07 -4.49980841e-07  4.72594186e-06
  0.00000000e+00  0.00000000e+00  0.00000000e+00  8.49021179e-07
  0.00000000e+00  0.00000000e+00  0.00000000e+00  0.00000000e+00
  0.00000000e+00  0.00000000e+00  0.00000000e+00  0.00000000e+00
  0.00000000e+00  0.00000000e+00  0.00000000e+00  0.00000000e+00
  0.00000000e+00  0.00000000e+00  0.00000000e+00  0.00000000e+00
  0.00000000e+00  0.00000000e+00 -5.02554152e-07  8.49021179e-07
  0.00000000e+00  0.00000000e+00  0.00000000e+00  3.17907910e-06]","[[-1.78426569e-04  1.32757917e-03]
 [-2.28106523e-06 -3.25762518e-03]]",[],0.0,0.0
1787306547.545704,0.20858728998555748,-0.798209480894173,0.10122625875841654,"[ 7.23540474e-06 -4.49980841e-07  0.00000000e+00  0.00000000e+00
  0.00000000e+00 -5.02554152e-07 -4.49980841e-07  4.72594186e-06
  0.00000000e+00  0.00000000e+00  0.00000000e+00  8.49021179e-07
  0.00000000e+00  0.00000000e+00  0.00000000e+00  0.00000000e+00
  0.00000000e+00  0.00000000e+00  0.00000000e+00  0.00000000e+00
  0.00000000e+00  0.00000000e+00  0.00000000e+00  0.00000000e+00
  0.00000000e+00  0.00000000e+00  0.00000000e+00  0.00000000e+00
  0.00000000e+00  0.00000000e+00 -5.02554152e-07  8.49021179e-07
  0.00000000e+00  0.00000000e+00  0.00000000e+00  3.17907910e-06]","[[-1.78426569e-04  1.32757917e-03]
 [-2.28106523e-06 -3.25762518e-03]]",[],0.0,0.0
1787306547.5930095,0.20858728998555748,-0.798209480894173,0.10122625875841654,"[ 7.23540474e-06 -4.49980841e-07  0.00000000e+00  0.00000000e+00
  0.00000000e+00 -5.02554152e-07 -4.49980841e-07  4.72594186e-06
  0.00000000e+00  0.00000000e+00  0.00000000e+00  8.49021179e-07
  0.00000000e+00  0.00000000e+00  0.00000000e+00  0.00000000e+00
  0.00000000e+00  0.00000000e+00  0.00000000e+00  0.00000000e+00
  0.00000000e+00  0.00000000e+00  0.00000000e+00  0.00000000e+00
  0.00000000e+00  0.00000000e+00  0.00000000e+00  0.00000000e+00
  0.00000000e+00  0.00000000e+00 -5.02554152e-07  8.49021179e-07
  0.00000000e+00  0.00000000e+00  0.00000000e+00  3.17907910e-06]","[[-1.78426569e-04  1.32757917e-03]
 [-2.28106523e-06 -3.25762518e-03]]",[],0.0,0.0
1787306547.6481318,0.20858728998555748,-0.798209480894173,0.10122625875841654,"[ 7.23540474e-06 -4.49980841e-07  0.00000000e+00  0.00000000e+00
  0.00000000e+00 -5.02554152e-07 -4.49980841e-07  4.72594186e-06
  0.00000000e+00  0.00000000e+00  0.00000000e+00  8.49021179e-07
  0.00000000e+00  0.00000000e+00  0.00000000e+00  0.00000000e+00
  0.00000000e+00  0.00000000e+00  0.00000000e+00  0.00000000e+00
  0.00000000e+00  0.00000000e+00  0.00000000e+00  0.00000000e+00
  0.00000000e+00  0.00000000e+00  0.00000000e+00  0.00000000e+00
  0.00000000e+00  0.00000000e+00 -5.02554152e-07  8.49021179e-07
  0.00000000e+00  0.00000000e+00  0.00000000e+00  3.17907910e-06]","[[-1.78426569e-04  1.32757917e-03]
 [-2.28106523e-06 -3.25762518e-03]]",[],0.0,0.0
1787306547.6922717,0.20858728998555748,-0.798209480894173,0.10122625875841654,"[ 7.23540474e-06 -4.49980841e-07  0.00000000e+00  0.00000000e+00
  0.00000000e+00 -5.02554152e-07 -4.49980841e-07  4.72594186e-06
  0.00000000e+00  0.00000000e+00  0.00000000e+00  8.49021179e-07
  0.00000000e+00  0.00000000e+00  0.00000000e+00  0.00000000e+00
  0.00000000e+00  0.00000000e+00  0.00000000e+00  0.00000000e+00
  0.00000000e+00  0.00000000e+00  0.00000000e+00  0.00000000e+00
  0.00000000e+00  0.00000000e+00  0.00000000e+00  0.00000000e+00
  0.00000000e+00  0.00000000e+00 -5.02554152e-07  8.49021179e-07
  0.00000000e+00  0.00000000e+00  0.00000000e+00  3.17907910e-06]","[[-1.78426569e-04  1.32757917e-03]
 [-2.28106523e-06 -3.25762518e-03]]",[],0.0,0.0
1787306547.7448087,0.20858728998555748,-0.798209480894173,0.10122625875841654,"[ 7.23540474e-06 -4.49980841e-07  0.00000000e+00  0.00000000e+00
  0.00000000e+00 -5.02554152e-07 -4.49980841e-07  4.72594186e-06
  0.00000000e+00  0.00000000e+00  0.00000000e+00  8.49021179e-07
  0.00000000e+00  0.00000000e+00  0.00000000e+00  0.00000000e+00
  0.00000000e+00  0.00000000e+00  0.00000000e+00  0.00000000e+00
  0.00000000e+00  0.00000000e+00  0.00000000e+00  0.00000000e+00
  0.00000000e+00  0.00000000e+00  0.00000000e+00  0.00000000e+00
  0.00000000e+00  0.00000000e+00 -5.02554152e-07  8.49021179e-07
  0.00000000e+00  0.00000000e+00  0.00000000e+00  3.17907910e-06]","[[-1.78426569e-04  1.32757917e-03]
 [-2.28106523e-06 -3.25762518e-03]]",[],0.0,0.0
1787306547.7932515,0.20858728998555748,-0.798209480894173,0.10122625875841654,"[ 7.23540474e-06 -4.49980841e-07  0.00000000e+00  0.00000000e+00
  0.00000000e+00 -5.02554152e-07 -4.49980841e-07  4.72594186e-06
  0.00000000e+00  0.00000000e+00  0.00000000e+00  8.49021179e-07
  0.00000000e+00  0.00000000e+00  0.00000000e+00  0.00000000e+00
  0.00000000e+00  0.00000000e+00  0.00000000e+00  0.00000000e+00
  0.00000000e+00  0.00000000e+00  0.00000000e+00  0.00000000e+00
  0.00000000e+00  0.00000000e+00  0.00000000e+00  0.00000000e+00
  0.00000000e+00  0.00000000e+00 -5.02554152e-07  8.49021179e-07
  0.00000000e+00  0.00000000e+00  0.00000000e+00  3.17907910e-06]","[[-1.78426569e-04  1.32757917e-03]
 [-2.28106523e-06 -3.25762518e-03]]",[],0.0,0.0
1787306547.8441315,0.20858728998555748,-0.798209480894173,0.10122625875841654,"[ 7.23540474e-06 -4.49980841e-07  0.00000000e+00  0.00000000e+00
  0.00000000e+00 -5.02554152e-07 -4.49980841e-07  4.72594186e-06
  0.00000000e+00  0.00000000e+00  0.00000000e+00  8.49021179e-07
  0.00000000e+00  0.00000000e+00  0.00000000e+00  0.00000000e+00
  0.00000000e+00  0.00000000e+00  0.00000000e+00  0.00000000e+00
  0.00000000e+00  0.00000000e+00  0.00000000e+00  0.00000000e+00
  0.00000000e+00  0.00000000e+00  0.00000000e+00  0.00000000e+00
  0.00000000e+00  0.00000000e+00 -5.02554152e-07  8.49021179e-07
  0.00000000e+00  0.00000000e+00  0.00000000e+00  3.17907910e-06]","[[-1.78426569e-04  1.32757917e-03]
 [-2.28106523e-06 -3.25762518e-03]]",[],0.0,0.0
1787306547.893154,0.20858728998555748,-0.798209480894173,0.10122625875841654,"[ 7.23540474e-06 -4.49980841e-07  0.00000000e+00  0.00000000e+00
  0.00000000e+00 -5.02554152e-07 -4.49980841e-07  4.72594186e-06
  0.00000000e+00  0.00000000e+00  0.00000000e+00  8.49021179e-07
  0.00000000e+00  0.00000000e+00  0.00000000e+00  0.00000000e+00
  0.00000000e+00  0.00000000e+00  0.00000000e+00  0.00000000e+00
  0.00000000e+00  0.00000000e+00  0.00000000e+00  0.00000000e+00
  0.00000000e+00  0.00000000e+00  0.00000000e+00  0.00000000e+00
  0.00000000e+00  0.00000000e+00 -5.02554152e-07  8.49021179e-07
  0.00000000e+00  0.00000000e+00  0.00000000e+00  3.17907910e-06]","[[-1.78426569e-04  1.32757917e-03]
 [-2.28106523e-06 -3.25762518e-03]]",[],0.0,0.0
1787306547.9424553,0.20858728998555748,-0.798209480894173,0.10122625875841654,"[ 7.23540474e-06 -4.49980841e-07  0.00000000e+00  0.00000000e+00
  0.00000000e+00 -5.02554152e-07 -4.49980841e-07  4.72594186e-06
  0.00000000e+00  0.00000000e+00  0.00000000e+00  8.49021179e-07
  0.00000000e+00  0.00000000e+00  0.00000000e+00  0.00000000e+00
  0.00000000e+00  0.00000000e+00  0.00000000e+00  0.00000000e+00
  0.00000000e+00  0.00000000e+00  0.00000000e+00  0.00000000e+00
  0.00000000e+00  0.00000000e+00  0.00000000e+00  0.00000000e+00
  0.00000000e+00  0.00000000e+00 -5.02554152e-07  8.49021179e-07
  0.00000000e+00  0.00000000e+00  0.00000000e+00  3.17907910e-06]","[[-1.78426569e-04  1.32757917e-03]
 [-2.28106523e-06 -3.25762518e-03]]",[],0.0,0.0
1787306547.9933624,0.20858728998555748,-0.798209480894173,0.10122625875841654,"[ 7.23540474e-06 -4.49980841e-07  0.00000000e+00  0.00000000e+00
  0.00000000e+00 -5.02554152e-07 -4.49980841e-07  4.72594186e-06
  0.00000000e+00  0.00000000e+00  0.00000000e+00  8.49021179e-07
  0.00000000e+00  0.00000000e+00  0.00000000e+00  0.00000000e+00
  0.00000000e+00  0.00000000e+00  0.00000000e+00  0.00000000e+00
  0.00000000e+00  0.00000000e+00  0.00000000e+00  0.00000000e+00
  0.00000000e+00  0.00000000e+00  0.00000000e+00  0.00000000e+00
  0.00000000e+00  0.00000000e+00 -5.02554152e-07  8.49021179e-07
  0.00000000e+00  0.00000000e+00  0.00000000e+00  3.17907910e-06]","[[-1.78426569e-04  1.32757917e-03]
 [-2.28106523e-06 -3.25762518e-03]]",[],0.0,0.0
1787306548.0576227,0.20858728998555748,-0.798209480894173,0.10122625875841654,"[ 7.23540474e-06 -4.49980841e-07  0.00000000e+00  0.00000000e+00
  0.00000000e+00 -5.02554152e-07 -4.49980841e-07  4.72594186e-06
  0.00000000e+00  0.00000000e+00  0.00000000e+00  8.49021179e-07
  0.00000000e+00  0.00000000e+00  0.00000000e+00  0.00000000e+00
  0.00000000e+00  0.00000000e+00  0.00000000e+00  0.00000000e+00
  0.00000000e+00  0.00000000e+00  0.00000000e+00  0.00000000e+00
  0.00000000e+00  0.00000000e+00  0.00000000e+00  0.00000000e+00
  0.00000000e+00  0.00000000e+00 -5.02554152e-07  8.49021179e-07
  0.00000000e+00  0.00000000e+00  0.00000000e+00  3.17907910e-06]","[[-1.78426569e-04  1.32757917e-03]
 [-2.28106523e-06 -3.25762518e-03]]",[],0.0,0.0
1787306548.092308,0.20858728998555748,-0.798209480894173,0.10122625875841654,"[ 7.23540474e-06 -4.49980841e-07  0.00000000e+00  0.00000000e+00
  0.00000000e+00 -5.02554152e-07 -4.49980841e-07  4.72594186e-06
  0.00000000e+00  0.00000000e+00  0.00000000e+00  8.49021179e-07
  0.00000000e+00  0.00000000e+00  0.00000000e+00  0.00000000e+00
  0.00000000e+00  0.00000000e+00  0.00000000e+00  0.00000000e+00
  0.00000000e+00  0.00000000e+00  0.00000000e+00  0.00000000e+00
  0.00000000e+00  0.00000000e+00  0.00000000e+00  0.00000000e+00
  0.00000000e+00  0.00000000e+00 -5.02554152e-07  8.49021179e-07
  0.00000000e+00  0.00000000e+00  0.00000000e+00  3.17907910e-06]","[[-1.78426569e-04  1.32757917e-03]
 [-2.28106523e-06 -3.25762518e-03]]",[],0.0,0.0
1787306548.1695542,0.18980076135346222,-0.8014127104704165,0.07590102360813944,"[ 5.91234029e-06 -3.18247357e-07  0.00000000e+00  0.00000000e+00
  0.00000000e+00 -5.70520920e-07 -3.18247357e-07  3.78807368e-06
  0.00000000e+00  0.00000000e+00  0.00000000e+00  6.81656440e-07
  0.00000000e+00  0.00000000e+00  0.00000000e+00  0.00000000e+00
  0.00000000e+00  0.00000000e+00  0.00000000e+00  0.00000000e+00
  0.00000000e+00  0.00000000e+00  0.00000000e+00  0.00000000e+00
  0.00000000e+00  0.00000000e+00  0.00000000e+00  0.00000000e+00
  0.00000000e+00  0.00000000e+00 -5.70520920e-07  6.81656440e-07
  0.00000000e+00  0.00000000e+00  0.00000000e+00  3.12436041e-06]","[[-1.46745527e-04  1.24821940e-03]
 [ 5.83942898e-07 -2.61941578e-03]]",[],0.0,0.0
1787306548.1995113,0.18980076135346222,-0.8014127104704165,0.07590102360813944,"[ 5.91234029e-06 -3.18247357e-07  0.00000000e+00  0.00000000e+00
  0.00000000e+00 -5.70520920e-07 -3.18247357e-07  3.78807368e-06
  0.00000000e+00  0.00000000e+00  0.00000000e+00  6.81656440e-07
  0.00000000e+00  0.00000000e+00  0.00000000e+00  0.00000000e+00
  0.00000000e+00  0.00000000e+00  0.00000000e+00  0.00000000e+00
  0.00000000e+00  0.00000000e+00  0.00000000e+00  0.00000000e+00
  0.00000000e+00  0.00000000e+00  0.00000000e+00  0.00000000e+00
  0.00000000e+00  0.00000000e+00 -5.70520920e-07  6.81656440e-07
  0.00000000e+00  0.00000000e+00  0.00000000e+00  3.12436041e-06]","[[-1.46745527e-04  1.24821940e-03]
 [ 5.83942898e-07 -2.61941578e-03]]",[],0.0,0.0
1787306548.2762215,0.18980076135346222,-0.8014127104704165,0.07590102360813944,"[ 5.91234029e-06 -3.18247357e-07  0.00000000e+00  0.00000000e+00
  0.00000000e+00 -5.70520920e-07 -3.18247357e-07  3.78807368e-06
  0.00000000e+00  0.00000000e+00  0.00000000e+00  6.81656440e-07
  0.00000000e+00  0.00000000e+00  0.00000000e+00  0.00000000e+00
  0.00000000e+00  0.00000000e+00  0.00000000e+00  0.00000000e+00
  0.00000000e+00  0.00000000e+00  0.00000000e+00  0.00000000e+00
  0.00000000e+00  0.00000000e+00  0.00000000e+00  0.00000000e+00
  0.00000000e+00  0.00000000e+00 -5.70520920e-07  6.81656440e-07
  0.00000000e+00  0.00000000e+00  0.00000000e+00  3.12436041e-06]","[[-1.46745527e-04  1.24821940e-03]
 [ 5.83942898e-07 -2.61941578e-03]]",[],0.0,0.0
1787306548.3003647,0.18980076135346222,-0.8014127104704165,0.07590102360813944,"[ 5.91234029e-06 -3.18247357e-07  0.00000000e+00  0.00000000e+00
  0.00000000e+00 -5.70520920e-07 -3.18247357e-07  3.78807368e-06
  0.00000000e+00  0.00000000e+00  0.00000000e+00  6.81656440e-07
  0.00000000e+00  0.00000000e+00  0.00000000e+00  0.00000000e+00
  0.00000000e+00  0.00000000e+00  0.00000000e+00  0.00000000e+00
  0.00000000e+00  0.00000000e+00  0.00000000e+00  0.00000000e+00
  0.00000000e+00  0.00000000e+00  0.00000000e+00  0.00000000e+00
  0.00000000e+00  0.00000000e+00 -5.70520920e-07  6.81656440e-07
  0.00000000e+00  0.00000000e+00  0.00000000e+00  3.12436041e-06]","[[-1.46745527e-04  1.24821940e-03]
 [ 5.83942898e-07 -2.61941578e-03]]",[],0.0,0.0
1787306548.3419485,0.18980076135346222,-0.8014127104704165,0.07590102360813944,"[ 5.91234029e-06 -3.18247357e-07  0.00000000e+00  0.00000000e+00
  0.00000000e+00 -5.70520920e-07 -3.18247357e-07  3.78807368e-06
  0.00000000e+00  0.00000000e+00  0.00000000e+00  6.81656440e-07
  0.00000000e+00  0.00000000e+00  0.00000000e+00  0.00000000e+00
  0.00000000e+00  0.00000000e+00  0.00000000e+00  0.00000000e+00
  0.00000000e+00  0.00000000e+00  0.00000000e+00  0.00000000e+00
  0.00000000e+00  0.00000000e+00  0.00000000e+00  0.00000000e+00
  0.00000000e+00  0.00000000e+00 -5.70520920e-07  6.81656440e-07
  0.00000000e+00  0.00000000e+00  0.00000000e+00  3.12436041e-06]","[[-1.46745527e-04  1.24821940e-03]
 [ 5.83942898e-07 -2.61941578e-03]]",[],0.0,0.0
1787306548.3940573,0.18980076135346222,-0.8014127104704165,0.07590102360813944,"[ 5.91234029e-06 -3.18247357e-07  0.00000000e+00  0.00000000e+00
  0.00000000e+00 -5.70520920e-07 -3.18247357e-07  3.78807368e-06
  0.00000000e+00  0.00000000e+00  0.00000000e+00  6.81656440e-07
  0.00000000e+00  0.00000000e+00  0.00000000e+00  0.00000000e+00
  0.00000000e+00  0.00000000e+00  0.00000000e+00  0.00000000e+00
  0.00000000e+00  0.00000000e+00  0.00000000e+00  0.00000000e+00
  0.00000000e+00  0.00000000e+00  0.00000000e+00  0.00000000e+00
  0.00000000e+00  0.00000000e+00 -5.70520920e-07  6.81656440e-07
  0.00000000e+00  0.00000000e+00  0.00000000e+00  3.12436041e-06]","[[-1.46745527e-04  1.24821940e-03]
 [ 5.83942898e-07 -2.61941578e-03]]",[],0.0,0.0
1787306548.4426932,0.18980076135346222,-0.8014127104704165,0.07590102360813944,"[ 5.91234029e-06 -3.18247357e-07  0.00000000e+00  0.00000000e+00
  0.00000000e+00 -5.70520920e-07 -3.18247357e-07  3.78807368e-06
  0.00000000e+00  0.00000000e+00  0.00000000e+00  6.81656440e-07
  0.00000000e+00  0.00000000e+00  0.00000000e+00  0.00000000e+00
  0.00000000e+00  0.00000000e+00  0.00000000e+00  0.00000000e+00
  0.00000000e+00  0.00000000e+00  0.00000000e+00  0.00000000e+00
  0.00000000e+00  0.00000000e+00  0.00000000e+00  0.00000000e+00
  0.00000000e+00  0.00000000e+00 -5.70520920e-07  6.81656440e-07
  0.00000000e+00  0.00000000e+00  0.00000000e+00  3.12436041e-06]","[[-1.46745527e-04  1.24821940e-03]
 [ 5.83942898e-07 -2.61941578e-03]]",[],0.0,0.0
1787306548.4954286,0.18980076135346222,-0.8014127104704165,0.07590102360813944,"[ 5.91234029e-06 -3.18247357e-07  0.00000000e+00  0.00000000e+00
  0.00000000e+00 -5.70520920e-07 -3.18247357e-07  3.78807368e-06
  0.00000000e+00  0.00000000e+00  0.00000000e+00  6.81656440e-07
  0.00000000e+00  0.00000000e+00  0.00000000e+00  0.00000000e+00
  0.00000000e+00  0.00000000e+00  0.00000000e+00  0.00000000e+00
  0.00000000e+00  0.00000000e+00  0.00000000e+00  0.00000000e+00
  0.00000000e+00  0.00000000e+00  0.00000000e+00  0.00000000e+00
  0.00000000e+00  0.00000000e+00 -5.70520920e-07  6.81656440e-07
  0.00000000e+00  0.00000000e+00  0.00000000e+00  3.12436041e-06]","[[-1.46745527e-04  1.24821940e-03]
 [ 5.83942898e-07 -2.61941578e-03]]",[],0.0,0.0
1787306548.5425453,0.18980076135346222,-0.8014127104704165,0.07590102360813944,"[ 5.91234029e-06 -3.18247357e-07  0.00000000e+00  0.00000000e+00
  0.00000000e+00 -5.70520920e-07 -3.18247357e-07  3.78807368e-06
  0.00000000e+00  0.00000000e+00  0.00000000e+00  6.81656440e-07
  0.00000000e+00  0.00000000e+00  0.00000000e+00  0.00000000e+00
  0.00000000e+00  0.00000000e+00  0.00000000e+00  0.00000000e+00
  0.00000000e+00  0.00000000e+00  0.00000000e+00  0.00000000e+00
  0.00000000e+00  0.00000000e+00  0.00000000e+00  0.00000000e+00
  0.00000000e+00  0.00000000e+00 -5.70520920e-07  6.81656440e-07
  0.00000000e+00  0.00000000e+00  0.00000000e+00  3.12436041e-06]","[[-1.46745527e-04  1.24821940e-03]
 [ 5.83942898e-07 -2.61941578e-03]]",[],0.0,0.0
1787306548.5954673,0.18980076135346222,-0.8014127104704165,0.07590102360813944,"[ 5.91234029e-06 -3.18247357e-07  0.00000000e+00  0.00000000e+00
  0.00000000e+00 -5.70520920e-07 -3.18247357e-07  3.78807368e-06
  0.00000000e+00  0.00000000e+00  0.00000000e+00  6.81656440e-07
  0.00000000e+00  0.00000000e+00  0.00000000e+00  0.00000000e+00
  0.00000000e+00  0.00000000e+00  0.00000000e+00  0.00000000e+00
  0.00000000e+00  0.00000000e+00  0.00000000e+00  0.00000000e+00
  0.00000000e+00  0.00000000e+00  0.00000000e+00  0.00000000e+00
  0.00000000e+00  0.00000000e+00 -5.70520920e-07  6.81656440e-07
  0.00000000e+00  0.00000000e+00  0.00000000e+00  3.12436041e-06]","[[-1.46745527e-04  1.24821940e-03]
 [ 5.83942898e-07 -2.61941578e-03]]",[],0.0,0.0
1787306548.6424797,0.18980076135346222,-0.8014127104704165,0.07590102360813944,"[ 5.91234029e-06 -3.18247357e-07  0.00000000e+00  0.00000000e+00
  0.00000000e+00 -5.70520920e-07 -3.18247357e-07  3.78807368e-06
  0.00000000e+00  0.00000000e+00  0.00000000e+00  6.81656440e-07
  0.00000000e+00  0.00000000e+00  0.00000000e+00  0.00000000e+00
  0.00000000e+00  0.00000000e+00  0.00000000e+00  0.00000000e+00
  0.00000000e+00  0.00000000e+00  0.00000000e+00  0.00000000e+00
  0.00000000e+00  0.00000000e+00  0.00000000e+00  0.00000000e+00
  0.00000000e+00  0.00000000e+00 -5.70520920e-07  6.81656440e-07
  0.00000000e+00  0.00000000e+00  0.00000000e+00  3.12436041e-06]","[[-1.46745527e-04  1.24821940e-03]
 [ 5.83942898e-07 -2.61941578e-03]]",[],0.0,0.0
1787306548.7001975,0.18980076135346222,-0.8014127104704165,0.07590102360813944,"[ 5.91234029e-06 -3.18247357e-07  0.00000000e+00  0.00000000e+00
  0.00000000e+00 -5.70520920e-07 -3.18247357e-07  3.78807368e-06
  0.00000000e+00  0.00000000e+00  0.00000000e+00  6.81656440e-07
  0.00000000e+00  0.00000000e+00  0.00000000e+00  0.00000000e+00
  0.00000000e+00  0.00000000e+00  0.00000000e+00  0.00000000e+00
  0.00000000e+00  0.00000000e+00  0.00000000e+00  0.00000000e+00
  0.00000000e+00  0.00000000e+00  0.00000000e+00  0.00000000e+00
  0.00000000e+00  0.00000000e+00 -5.70520920e-07  6.81656440e-07
  0.00000000e+00  0.00000000e+00  0.00000000e+00  3.12436041e-06]","[[-1.46745527e-04  1.24821940e-03]
 [ 5.83942898e-07 -2.61941578e-03]]",[],0.0,0.0
1787306548.7423296,0.18980076135346222,-0.8014127104704165,0.07590102360813944,"[ 5.91234029e-06 -3.18247357e-07  0.00000000e+00  0.00000000e+00
  0.00000000e+00 -5.70520920e-07 -3.18247357e-07  3.78807368e-06
  0.00000000e+00  0.00000000e+00  0.00000000e+00  6.81656440e-07
  0.00000000e+00  0.00000000e+00  0.00000000e+00  0.00000000e+00
  0.00000000e+00  0.00000000e+00  0.00000000e+00  0.00000000e+00
  0.00000000e+00  0.00000000e+00  0.00000000e+00  0.00000000e+00
  0.00000000e+00  0.00000000e+00  0.00000000e+00  0.00000000e+00
  0.00000000e+00  0.00000000e+00 -5.70520920e-07  6.81656440e-07
  0.00000000e+00  0.00000000e+00  0.00000000e+00  3.12436041e-06]","[[-1.46745527e-04  1.24821940e-03]
 [ 5.83942898e-07 -2.61941578e-03]]",[],0.0,0.0
1787306548.8050268,0.18980076135346222,-0.8014127104704165,0.07590102360813944,"[ 5.91234029e-06 -3.18247357e-07  0.00000000e+00  0.00000000e+00
  0.00000000e+00 -5.70520920e-07 -3.18247357e-07  3.78807368e-06
  0.00000000e+00  0.00000000e+00  0.00000000e+00  6.81656440e-07
  0.00000000e+00  0.00000000e+00  0.00000000e+00  0.00000000e+00
  0.00000000e+00  0.00000000e+00  0.00000000e+00  0.00000000e+00
  0.00000000e+00  0.00000000e+00  0.00000000e+00  0.00000000e+00
  0.00000000e+00  0.00000000e+00  0.00000000e+00  0.00000000e+00
  0.00000000e+00  0.00000000e+00 -5.70520920e-07  6.81656440e-07
  0.00000000e+00  0.00000000e+00  0.00000000e+00  3.12436041e-06]","[[-1.46745527e-04  1.24821940e-03]
 [ 5.83942898e-07 -2.61941578e-03]]",[],0.0,0.0
1787306548.8513823,0.18980076135346222,-0.8014127104704165,0.07590102360813944,"[ 5.91234029e-06 -3.18247357e-07  0.00000000e+00  0.00000000e+00
  0.00000000e+00 -5.70520920e-07 -3.18247357e-07  3.78807368e-06
  0.00000000e+00  0.00000000e+00  0.00000000e+00  6.81656440e-07
  0.00000000e+00  0.00000000e+00  0.00000000e+00  0.00000000e+00
  0.00000000e+00  0.00000000e+00  0.00000000e+00  0.00000000e+00
  0.00000000e+00  0.00000000e+00  0.00000000e+00  0.00000000e+00
  0.00000000e+00  0.00000000e+00  0.00000000e+00  0.00000000e+00
  0.00000000e+00  0.00000000e+00 -5.70520920e-07  6.81656440e-07
  0.00000000e+00  0.00000000e+00  0.00000000e+00  3.12436041e-06]","[[-1.46745527e-04  1.24821940e-03]
 [ 5.83942898e-07 -2.61941578e-03]]",[],0.0,0.0
1787306548.8937476,0.18980076135346222,-0.8014127104704165,0.07590102360813944,"[ 5.91234029e-06 -3.18247357e-07  0.00000000e+00  0.00000000e+00
  0.00000000e+00 -5.70520920e-07 -3.18247357e-07  3.78807368e-06
  0.00000000e+00  0.00000000e+00  0.00000000e+00  6.81656440e-07
  0.00000000e+00  0.00000000e+00  0.00000000e+00  0.00000000e+00
  0.00000000e+00  0.00000000e+00  0.00000000e+00  0.00000000e+00
  0.00000000e+00  0.00000000e+00  0.00000000e+00  0.00000000e+00
  0.00000000e+00  0.00000000e+00  0.00000000e+00  0.00000000e+00
  0.00000000e+00  0.00000000e+00 -5.70520920e-07  6.81656440e-07
  0.00000000e+00  0.00000000e+00  0.00000000e+00  3.12436041e-06]","[[-1.46745527e-04  1.24821940e-03]
 [ 5.83942898e-07 -2.61941578e-03]]",[],0.0,0.0
1787306548.942079,0.18980076135346222,-0.8014127104704165,0.07590102360813944,"[ 5.91234029e-06 -3.18247357e-07  0.00000000e+00  0.00000000e+00
  0.00000000e+00 -5.70520920e-07 -3.18247357e-07  3.78807368e-06
  0.00000000e+00  0.00000000e+00  0.00000000e+00  6.81656440e-07
  0.00000000e+00  0.00000000e+00  0.00000000e+00  0.00000000e+00
  0.00000000e+00  0.00000000e+00  0.00000000e+00  0.00000000e+00
  0.00000000e+00  0.00000000e+00  0.00000000e+00  0.00000000e+00
  0.00000000e+00  0.00000000e+00  0.00000000e+00  0.00000000e+00
  0.00000000e+00  0.00000000e+00 -5.70520920e-07  6.81656440e-07
  0.00000000e+00  0.00000000e+00  0.00000000e+00  3.12436041e-06]","[[-1.46745527e-04  1.24821940e-03]
 [ 5.83942898e-07 -2.61941578e-03]]",[],0.0,0.0
1787306549.0075948,0.18980076135346222,-0.8014127104704165,0.07590102360813944,"[ 5.91234029e-06 -3.18247357e-07  0.00000000e+00  0.00000000e+00
  0.00000000e+00 -5.70520920e-07 -3.18247357e-07  3.78807368e-06
  0.00000000e+00  0.00000000e+00  0.00000000e+00  6.81656440e-07
  0.00000000e+00  0.00000000e+00  0.00000000e+00  0.00000000e+00
  0.00000000e+00  0.00000000e+00  0.00000000e+00  0.00000000e+00
  0.00000000e+00  0.00000000e+00  0.00000000e+00  0.00000000e+00
  0.00000000e+00  0.00000000e+00  0.00000000e+00  0.00000000e+00
  0.00000000e+00  0.00000000e+00 -5.70520920e-07  6.81656440e-07
  0.00000000e+00  0.00000000e+00  0.00000000e+00  3.12436041e-06]","[[-1.46745527e-04  1.24821940e-03]
 [ 5.83942898e-07 -2.61941578e-03]]",[],0.0,0.0
1787306549.0424945,0.18980076135346222,-0.8014127104704165,0.07590102360813944,"[ 5.91234029e-06 -3.18247357e-07  0.00000000e+00  0.00000000e+00
  0.00000000e+00 -5.70520920e-07 -3.18247357e-07  3.78807368e-06
  0.00000000e+00  0.00000000e+00  0.00000000e+00  6.81656440e-07
  0.00000000e+00  0.00000000e+00  0.00000000e+00  0.00000000e+00
  0.00000000e+00  0.00000000e+00  0.00000000e+00  0.00000000e+00
  0.00000000e+00  0.00000000e+00  0.00000000e+00  0.00000000e+00
  0.00000000e+00  0.00000000e+00  0.00000000e+00  0.00000000e+00
  0.00000000e+00  0.00000000e+00 -5.70520920e-07  6.81656440e-07
  0.00000000e+00  0.00000000e+00  0.00000000e+00  3.12436041e-06]","[[-1.46745527e-04  1.24821940e-03]
 [ 5.83942898e-07 -2.61941578e-03]]",[],0.0,0.0
1787306549.098213,0.18980076135346222,-0.8014127104704165,0.07590102360813944,"[ 5.91234029e-06 -3.18247357e-07  0.00000000e+00  0.00000000e+00
  0.00000000e+00 -5.70520920e-07 -3.18247357e-07  3.78807368e-06
  0.00000000e+00  0.00000000e+00  0.00000000e+00  6.81656440e-07
  0.00000000e+00  0.00000000e+00  0.00000000e+00  0.00000000e+00
  0.00000000e+00  0.00000000e+00  0.00000000e+00  0.00000000e+00
  0.00000000e+00  0.00000000e+00  0.00000000e+00  0.00000000e+00
  0.00000000e+00  0.00000000e+00  0.00000000e+00  0.00000000e+00
  0.00000000e+00  0.00000000e+00 -5.70520920e-07  6.81656440e-07
  0.00000000e+00  0.00000000e+00  0.00000000e+00  3.12436041e-06]","[[-1.46745527e-04  1.24821940e-03]
 [ 5.83942898e-07 -2.61941578e-03]]",[],0.0,0.0
1787306549.1457303,0.18980076135346222,-0.8014127104704165,0.07590102360813944,"[ 5.91234029e-06 -3.18247357e-07  0.00000000e+00  0.00000000e+00
  0.00000000e+00 -5.70520920e-07 -3.18247357e-07  3.78807368e-06
  0.00000000e+00  0.00000000e+00  0.00000000e+00  6.81656440e-07
  0.00000000e+00  0.00000000e+00  0.00000000e+00  0.00000000e+00
  0.00000000e+00  0.00000000e+00  0.00000000e+00  0.00000000e+00
  0.00000000e+00  0.00000000e+00  0.00000000e+00  0.00000000e+00
  0.00000000e+00  0.00000000e+00  0.00000000e+00  0.00000000e+00
  0.00000000e+00  0.00000000e+00 -5.70520920e-07  6.81656440e-07
  0.00000000e+00  0.00000000e+00  0.00000000e+00  3.12436041e-06]","[[-1.46745527e-04  1.24821940e-03]
 [ 5.83942898e-07 -2.61941578e-03]]",[],0.0,0.0
1787306549.1926389,0.18980076135346222,-0.8014127104704165,0.07590102360813944,"[ 5.91234029e-06 -3.18247357e-07  0.00000000e+00  0.00000000e+00
  0.00000000e+00 -5.70520920e-07 -3.18247357e-07  3.78807368e-06
  0.00000000e+00  0.00000000e+00  0.00000000e+00  6.81656440e-07
  0.00000000e+00  0.00000000e+00  0.00000000e+00  0.00000000e+00
  0.00000000e+00  0.00000000e+00  0.00000000e+00  0.00000000e+00
  0.00000000e+00  0.00000000e+00  0.00000000e+00  0.00000000e+00
  0.00000000e+00  0.00000000e+00  0.00000000e+00  0.00000000e+00
  0.00000000e+00  0.00000000e+00 -5.70520920e-07  6.81656440e-07
  0.00000000e+00  0.00000000e+00  0.00000000e+00  3.12436041e-06]","[[-1.46745527e-04  1.24821940e-03]
 [ 5.83942898e-07 -2.61941578e-03]]",[],0.0,0.0
1787306549.245781,0.18980076135346222,-0.8014127104704165,0.07590102360813944,"[ 5.91234029e-06 -3.18247357e-07  0.00000000e+00  0.00000000e+00
  0.00000000e+00 -5.70520920e-07 -3.18247357e-07  3.78807368e-06
  0.00000000e+00  0.00000000e+00  0.00000000e+00  6.81656440e-07
  0.00000000e+00  0.00000000e+00  0.00000000e+00  0.00000000e+00
  0.00000000e+00  0.00000000e+00  0.00000000e+00  0.00000000e+00
  0.00000000e+00  0.00000000e+00  0.00000000e+00  0.00000000e+00
  0.00000000e+00  0.00000000e+00  0.00000000e+00  0.00000000e+00
  0.00000000e+00  0.00000000e+00 -5.70520920e-07  6.81656440e-07
  0.00000000e+00  0.00000000e+00  0.00000000e+00  3.12436041e-06]","[[-1.46745527e-04  1.24821940e-03]
 [ 5.83942898e-07 -2.61941578e-03]]",[],0.0,0.0
1787306549.3115819,0.17210457670212403,-0.8062140894877932,0.03859291026270917,"[ 5.12188663e-06 -2.24032965e-07  0.00000000e+00  0.00000000e+00
  0.00000000e+00 -3.91573399e-07 -2.24032965e-07  3.15316249e-06
  0.00000000e+00  0.00000000e+00  0.00000000e+00  5.95451698e-07
  0.00000000e+00  0.00000000e+00  0.00000000e+00  0.00000000e+00
  0.00000000e+00  0.00000000e+00  0.00000000e+00  0.00000000e+00
  0.00000000e+00  0.00000000e+00  0.00000000e+00  0.00000000e+00
  0.00000000e+00  0.00000000e+00  0.00000000e+00  0.00000000e+00
  0.00000000e+00  0.00000000e+00 -3.91573399e-07  5.95451698e-07
  0.00000000e+00  0.00000000e+00  0.00000000e+00  3.11646948e-06]","[[-1.27919883e-04  7.73083921e-04]
 [ 4.12419467e-06 -2.22269718e-03]]",[],0.0,0.0
1787306549.3515723,0.17210457670212403,-0.8062140894877932,0.03859291026270917,"[ 5.12188663e-06 -2.24032965e-07  0.00000000e+00  0.00000000e+00
  0.00000000e+00 -3.91573399e-07 -2.24032965e-07  3.15316249e-06
  0.00000000e+00  0.00000000e+00  0.00000000e+00  5.95451698e-07
  0.00000000e+00  0.00000000e+00  0.00000000e+00  0.00000000e+00
  0.00000000e+00  0.00000000e+00  0.00000000e+00  0.00000000e+00
  0.00000000e+00  0.00000000e+00  0.00000000e+00  0.00000000e+00
  0.00000000e+00  0.00000000e+00  0.00000000e+00  0.00000000e+00
  0.00000000e+00  0.00000000e+00 -3.91573399e-07  5.95451698e-07
  0.00000000e+00  0.00000000e+00  0.00000000e+00  3.11646948e-06]","[[-1.27919883e-04  7.73083921e-04]
 [ 4.12419467e-06 -2.22269718e-03]]",[],0.0,0.0
1787306549.3937397,0.17210457670212403,-0.8062140894877932,0.03859291026270917,"[ 5.12188663e-06 -2.24032965e-07  0.00000000e+00  0.00000000e+00
  0.00000000e+00 -3.91573399e-07 -2.24032965e-07  3.15316249e-06
  0.00000000e+00  0.00000000e+00  0.00000000e+00  5.95451698e-07
  0.00000000e+00  0.00000000e+00  0.00000000e+00  0.00000000e+00
  0.00000000e+00  0.00000000e+00  0.00000000e+00  0.00000000e+00
  0.00000000e+00  0.00000000e+00  0.00000000e+00  0.00000000e+00
  0.00000000e+00  0.00000000e+00  0.00000000e+00  0.00000000e+00
  0.00000000e+00  0.00000000e+00 -3.91573399e-07  5.95451698e-07
  0.00000000e+00  0.00000000e+00  0.00000000e+00  3.11646948e-06]","[[-1.27919883e-04  7.73083921e-04]
 [ 4.12419467e-06 -2.22269718e-03]]",[],0.0,0.0
1787306549.447066,0.17210457670212403,-0.8062140894877932,0.03859291026270917,"[ 5.12188663e-06 -2.24032965e-07  0.00000000e+00  0.00000000e+00
  0.00000000e+00 -3.91573399e-07 -2.24032965e-07  3.15316249e-06
  0.00000000e+00  0.00000000e+00  0.00000000e+00  5.95451698e-07
  0.00000000e+00  0.00000000e+00  0.00000000e+00  0.00000000e+00
  0.00000000e+00  0.00000000e+00  0.00000000e+00  0.00000000e+00
  0.00000000e+00  0.00000000e+00  0.00000000e+00  0.00000000e+00
  0.00000000e+00  0.00000000e+00  0.00000000e+00  0.00000000e+00
  0.00000000e+00  0.00000000e+00 -3.91573399e-07  5.95451698e-07
  0.00000000e+00  0.00000000e+00  0.00000000e+00  3.11646948e-06]","[[-1.27919883e-04  7.73083921e-04]
 [ 4.12419467e-06 -2.22269718e-03]]",[],0.0,0.0
1787306549.4962673,0.17210457670212403,-0.8062140894877932,0.03859291026270917,"[ 5.12188663e-06 -2.24032965e-07  0.00000000e+00  0.00000000e+00
  0.00000000e+00 -3.91573399e-07 -2.24032965e-07  3.15316249e-06
  0.00000000e+00  0.00000000e+00  0.00000000e+00  5.95451698e-07
  0.00000000e+00  0.00000000e+00  0.00000000e+00  0.00000000e+00
  0.00000000e+00  0.00000000e+00  0.00000000e+00  0.00000000e+00
  0.00000000e+00  0.00000000e+00  0.00000000e+00  0.00000000e+00
  0.00000000e+00  0.00000000e+00  0.00000000e+00  0.00000000e+00
  0.00000000e+00  0.00000000e+00 -3.91573399e-07  5.95451698e-07
  0.00000000e+00  0.00000000e+00  0.00000000e+00  3.11646948e-06]","[[-1.27919883e-04  7.73083921e-04]
 [ 4.12419467e-06 -2.22269718e-03]]",[],0.0,0.0
1787306549.545894,0.17210457670212403,-0.8062140894877932,0.03859291026270917,"[ 5.12188663e-06 -2.24032965e-07  0.00000000e+00  0.00000000e+00
  0.00000000e+00 -3.91573399e-07 -2.24032965e-07  3.15316249e-06
  0.00000000e+00  0.00000000e+00  0.00000000e+00  5.95451698e-07
  0.00000000e+00  0.00000000e+00  0.00000000e+00  0.00000000e+00
  0.00000000e+00  0.00000000e+00  0.00000000e+00  0.00000000e+00
  0.00000000e+00  0.00000000e+00  0.00000000e+00  0.00000000e+00
  0.00000000e+00  0.00000000e+00  0.00000000e+00  0.00000000e+00
  0.00000000e+00  0.00000000e+00 -3.91573399e-07  5.95451698e-07
  0.00000000e+00  0.00000000e+00  0.00000000e+00  3.11646948e-06]","[[-1.27919883e-04  7.73083921e-04]
 [ 4.12419467e-06 -2.22269718e-03]]",[],0.0,0.0
1787306549.6978197,0.17210457670212403,-0.8062140894877932,0.03859291026270917,"[ 5.12188663e-06 -2.24032965e-07  0.00000000e+00  0.00000000e+00
  0.00000000e+00 -3.91573399e-07 -2.24032965e-07  3.15316249e-06
  0.00000000e+00  0.00000000e+00  0.00000000e+00  5.95451698e-07
  0.00000000e+00  0.00000000e+00  0.00000000e+00  0.00000000e+00
  0.00000000e+00  0.00000000e+00  0.00000000e+00  0.00000000e+00
  0.00000000e+00  0.00000000e+00  0.00000000e+00  0.00000000e+00
  0.00000000e+00  0.00000000e+00  0.00000000e+00  0.00000000e+00
  0.00000000e+00  0.00000000e+00 -3.91573399e-07  5.95451698e-07
  0.00000000e+00  0.00000000e+00  0.00000000e+00  3.11646948e-06]","[[-1.27919883e-04  7.73083921e-04]
 [ 4.12419467e-06 -2.22269718e-03]]",[],0.0,0.0
1787306549.74246,0.17210457670212403,-0.8062140894877932,0.03859291026270917,"[ 5.12188663e-06 -2.24032965e-07  0.00000000e+00  0.00000000e+00
  0.00000000e+00 -3.91573399e-07 -2.24032965e-07  3.15316249e-06
  0.00000000e+00  0.00000000e+00  0.00000000e+00  5.95451698e-07
  0.00000000e+00  0.00000000e+00  0.00000000e+00  0.00000000e+00
  0.00000000e+00  0.00000000e+00  0.00000000e+00  0.00000000e+00
  0.00000000e+00  0.00000000e+00  0.00000000e+00  0.00000000e+00
  0.00000000e+00  0.00000000e+00  0.00000000e+00  0.00000000e+00
  0.00000000e+00  0.00000000e+00 -3.91573399e-07  5.95451698e-07
  0.00000000e+00  0.00000000e+00  0.00000000e+00  3.11646948e-06]","[[-1.27919883e-04  7.73083921e-04]
 [ 4.12419467e-06 -2.22269718e-03]]",[],0.0,0.0
1787306549.8040063,0.17210457670212403,-0.8062140894877932,0.03859291026270917,"[ 5.12188663e-06 -2.24032965e-07  0.00000000e+00  0.00000000e+00
  0.00000000e+00 -3.91573399e-07 -2.24032965e-07  3.15316249e-06
  0.00000000e+00  0.00000000e+00  0.00000000e+00  5.95451698e-07
  0.00000000e+00  0.00000000e+00  0.00000000e+00  0.00000000e+00
  0.00000000e+00  0.00000000e+00  0.00000000e+00  0.00000000e+00
  0.00000000e+00  0.00000000e+00  0.00000000e+00  0.00000000e+00
  0.00000000e+00  0.00000000e+00  0.00000000e+00  0.00000000e+00
  0.00000000e+00  0.00000000e+00 -3.91573399e-07  5.95451698e-07
  0.00000000e+00  0.00000000e+00  0.00000000e+00  3.11646948e-06]","[[-1.27919883e-04  7.73083921e-04]
 [ 4.12419467e-06 -2.22269718e-03]]",[],0.0,0.0
1787306549.8432367,0.17210457670212403,-0.8062140894877932,0.03859291026270917,"[ 5.12188663e-06 -2.24032965e-07  0.00000000e+00  0.00000000e+00
  0.00000000e+00 -3.91573399e-07 -2.24032965e-07  3.15316249e-06
  0.00000000e+00  0.00000000e+00  0.00000000e+00  5.95451698e-07
  0.00000000e+00  0.00000000e+00  0.00000000e+00  0.00000000e+00
  0.00000000e+00  0.00000000e+00  0.00000000e+00  0.00000000e+00
  0.00000000e+00  0.00000000e+00  0.00000000e+00  0.00000000e+00
  0.00000000e+00  0.00000000e+00  0.00000000e+00  0.00000000e+00
  0.00000000e+00  0.00000000e+00 -3.91573399e-07  5.95451698e-07
  0.00000000e+00  0.00000000e+00  0.00000000e+00  3.11646948e-06]","[[-1.27919883e-04  7.73083921e-04]
 [ 4.12419467e-06 -2.22269718e-03]]",[],0.0,0.0
1787306549.9167476,0.17210457670212403,-0.8062140894877932,0.03859291026270917,"[ 5.12188663e-06 -2.24032965e-07  0.00000000e+00  0.00000000e+00
  0.00000000e+00 -3.91573399e-07 -2.24032965e-07  3.15316249e-06
  0.00000000e+00  0.00000000e+00  0.00000000e+00  5.95451698e-07
  0.00000000e+00  0.00000000e+00  0.00000000e+00  0.00000000e+00
  0.00000000e+00  0.00000000e+00  0.00000000e+00  0.00000000e+00
  0.00000000e+00  0.00000000e+00  0.00000000e+00  0.00000000e+00
  0.00000000e+00  0.00000000e+00  0.00000000e+00  0.00000000e+00
  0.00000000e+00  0.00000000e+00 -3.91573399e-07  5.95451698e-07
  0.00000000e+00  0.00000000e+00  0.00000000e+00  3.11646948e-06]","[[-1.27919883e-04  7.73083921e-04]
 [ 4.12419467e-06 -2.22269718e-03]]",[],0.0,0.0
1787306549.9418561,0.17210457670212403,-0.8062140894877932,0.03859291026270917,"[ 5.12188663e-06 -2.24032965e-07  0.00000000e+00  0.00000000e+00
  0.00000000e+00 -3.91573399e-07 -2.24032965e-07  3.15316249e-06
  0.00000000e+00  0.00000000e+00  0.00000000e+00  5.95451698e-07
  0.00000000e+00  0.00000000e+00  0.00000000e+00  0.00000000e+00
  0.00000000e+00  0.00000000e+00  0.00000000e+00  0.00000000e+00
  0.00000000e+00  0.00000000e+00  0.00000000e+00  0.00000000e+00
  0.00000000e+00  0.00000000e+00  0.00000000e+00  0.00000000e+00
  0.00000000e+00  0.00000000e+00 -3.91573399e-07  5.95451698e-07
  0.00000000e+00  0.00000000e+00  0.00000000e+00  3.11646948e-06]","[[-1.27919883e-04  7.73083921e-04]
 [ 4.12419467e-06 -2.22269718e-03]]",[],0.0,0.0
1787306550.0482454,0.17210457670212403,-0.8062140894877932,0.03859291026270917,"[ 5.12188663e-06 -2.24032965e-07  0.00000000e+00  0.00000000e+00
  0.00000000e+00 -3.91573399e-07 -2.24032965e-07  3.15316249e-06
  0.00000000e+00  0.00000000e+00  0.00000000e+00  5.95451698e-07
  0.00000000e+00  0.00000000e+00  0.00000000e+00  0.00000000e+00
  0.00000000e+00  0.00000000e+00  0.00000000e+00  0.00000000e+00
  0.00000000e+00  0.00000000e+00  0.00000000e+00  0.00000000e+00
  0.00000000e+00  0.00000000e+00  0.00000000e+00  0.00000000e+00
  0.00000000e+00  0.00000000e+00 -3.91573399e-07  5.95451698e-07
  0.00000000e+00  0.00000000e+00  0.00000000e+00  3.11646948e-06]","[[-1.27919883e-04  7.73083921e-04]
 [ 4.12419467e-06 -2.22269718e-03]]",[],0.0,0.0
1787306550.0962493,0.17210457670212403,-0.8062140894877932,0.03859291026270917,"[ 5.12188663e-06 -2.24032965e-07  0.00000000e+00  0.00000000e+00
  0.00000000e+00 -3.91573399e-07 -2.24032965e-07  3.15316249e-06
  0.00000000e+00  0.00000000e+00  0.00000000e+00  5.95451698e-07
  0.00000000e+00  0.00000000e+00  0.00000000e+00  0.00000000e+00
  0.00000000e+00  0.00000000e+00  0.00000000e+00  0.00000000e+00
  0.00000000e+00  0.00000000e+00  0.00000000e+00  0.00000000e+00
  0.00000000e+00  0.00000000e+00  0.00000000e+00  0.00000000e+00
  0.00000000e+00  0.00000000e+00 -3.91573399e-07  5.95451698e-07
  0.00000000e+00  0.00000000e+00  0.00000000e+00  3.11646948e-06]","[[-1.27919883e-04  7.73083921e-04]
 [ 4.12419467e-06 -2.22269718e-03]]",[],0.0,0.0
1787306550.1428819,0.17210457670212403,-0.8062140894877932,0.03859291026270917,"[ 5.12188663e-06 -2.24032965e-07  0.00000000e+00  0.00000000e+00
  0.00000000e+00 -3.91573399e-07 -2.24032965e-07  3.15316249e-06
  0.00000000e+00  0.00000000e+00  0.00000000e+00  5.95451698e-07
  0.00000000e+00  0.00000000e+00  0.00000000e+00  0.00000000e+00
  0.00000000e+00  0.00000000e+00  0.00000000e+00  0.00000000e+00
  0.00000000e+00  0.00000000e+00  0.00000000e+00  0.00000000e+00
  0.00000000e+00  0.00000000e+00  0.00000000e+00  0.00000000e+00
  0.00000000e+00  0.00000000e+00 -3.91573399e-07  5.95451698e-07
  0.00000000e+00  0.00000000e+00  0.00000000e+00  3.11646948e-06]","[[-1.27919883e-04  7.73083921e-04]
 [ 4.12419467e-06 -2.22269718e-03]]",[],0.0,0.0
1787306550.200209,0.17210457670212403,-0.8062140894877932,0.03859291026270917,"[ 5.12188663e-06 -2.24032965e-07  0.00000000e+00  0.00000000e+00
  0.00000000e+00 -3.91573399e-07 -2.24032965e-07  3.15316249e-06
  0.00000000e+00  0.00000000e+00  0.00000000e+00  5.95451698e-07
  0.00000000e+00  0.00000000e+00  0.00000000e+00  0.00000000e+00
  0.00000000e+00  0.00000000e+00  0.00000000e+00  0.00000000e+00
  0.00000000e+00  0.00000000e+00  0.00000000e+00  0.00000000e+00
  0.00000000e+00  0.00000000e+00  0.00000000e+00  0.00000000e+00
  0.00000000e+00  0.00000000e+00 -3.91573399e-07  5.95451698e-07
  0.00000000e+00  0.00000000e+00  0.00000000e+00  3.11646948e-06]","[[-1.27919883e-04  7.73083921e-04]
 [ 4.12419467e-06 -2.22269718e-03]]",[],0.0,0.0
1787306550.2608173,0.17210457670212403,-0.8062140894877932,0.03859291026270917,"[ 5.12188663e-06 -2.24032965e-07  0.00000000e+00  0.00000000e+00
  0.00000000e+00 -3.91573399e-07 -2.24032965e-07  3.15316249e-06
  0.00000000e+00  0.00000000e+00  0.00000000e+00  5.95451698e-07
  0.00000000e+00  0.00000000e+00  0.00000000e+00  0.00000000e+00
  0.00000000e+00  0.00000000e+00  0.00000000e+00  0.00000000e+00
  0.00000000e+00  0.00000000e+00  0.00000000e+00  0.00000000e+00
  0.00000000e+00  0.00000000e+00  0.00000000e+00  0.00000000e+00
  0.00000000e+00  0.00000000e+00 -3.91573399e-07  5.95451698e-07
  0.00000000e+00  0.00000000e+00  0.00000000e+00  3.11646948e-06]","[[-1.27919883e-04  7.73083921e-04]
 [ 4.12419467e-06 -2.22269718e-03]]",[],0.0,0.0
1787306550.3297973,0.17210457670212403,-0.8062140894877932,0.03859291026270917,"[ 5.12188663e-06 -2.24032965e-07  0.00000000e+00  0.00000000e+00
  0.00000000e+00 -3.91573399e-07 -2.24032965e-07  3.15316249e-06
  0.00000000e+00  0.00000000e+00  0.00000000e+00  5.95451698e-07
  0.00000000e+00  0.00000000e+00  0.00000000e+00  0.00000000e+00
  0.00000000e+00  0.00000000e+00  0.00000000e+00  0.00000000e+00
  0.00000000e+00  0.00000000e+00  0.00000000e+00  0.00000000e+00
  0.00000000e+00  0.00000000e+00  0.00000000e+00  0.00000000e+00
  0.00000000e+00  0.00000000e+00 -3.91573399e-07  5.95451698e-07
  0.00000000e+00  0.00000000e+00  0.00000000e+00  3.11646948e-06]","[[-1.27919883e-04  7.73083921e-04]
 [ 4.12419467e-06 -2.22269718e-03]]",[],0.0,0.0
1787306550.346211,0.15570576140776232,-0.812018026189428,0.01737378552650393,"[ 4.61199030e-06 -2.07776289e-07  0.00000000e+00  0.00000000e+00
  0.00000000e+00 -2.03514013e-07 -2.07776289e-07  2.72360959e-06
  0.00000000e+00  0.00000000e+00  0.00000000e+00  4.86618476e-07
  0.00000000e+00  0.00000000e+00  0.00000000e+00  0.00000000e+00
  0.00000000e+00  0.00000000e+00  0.00000000e+00  0.00000000e+00
  0.00000000e+00  0.00000000e+00  0.00000000e+00  0.00000000e+00
  0.00000000e+00  0.00000000e+00  0.00000000e+00  0.00000000e+00
  0.00000000e+00  0.00000000e+00 -2.03514013e-07  4.86618476e-07
  0.00000000e+00  0.00000000e+00  0.00000000e+00  3.13087609e-06]","[[-1.15138204e-04  4.62220480e-04]
 [ 3.52735007e-06 -1.87389466e-03]]",[],0.0,0.0
1787306550.4244456,0.15570576140776232,-0.812018026189428,0.01737378552650393,"[ 4.61199030e-06 -2.07776289e-07  0.00000000e+00  0.00000000e+00
  0.00000000e+00 -2.03514013e-07 -2.07776289e-07  2.72360959e-06
  0.00000000e+00  0.00000000e+00  0.00000000e+00  4.86618476e-07
  0.00000000e+00  0.00000000e+00  0.00000000e+00  0.00000000e+00
  0.00000000e+00  0.00000000e+00  0.00000000e+00  0.00000000e+00
  0.00000000e+00  0.00000000e+00  0.00000000e+00  0.00000000e+00
  0.00000000e+00  0.00000000e+00  0.00000000e+00  0.00000000e+00
  0.00000000e+00  0.00000000e+00 -2.03514013e-07  4.86618476e-07
  0.00000000e+00  0.00000000e+00  0.00000000e+00  3.13087609e-06]","[[-1.15138204e-04  4.62220480e-04]
 [ 3.52735007e-06 -1.87389466e-03]]",[],0.0,0.0
1787306550.4522395,0.15570576140776232,-0.812018026189428,0.01737378552650393,"[ 4.61199030e-06 -2.07776289e-07  0.00000000e+00  0.00000000e+00
  0.00000000e+00 -2.03514013e-07 -2.07776289e-07  2.72360959e-06
  0.00000000e+00  0.00000000e+00  0.00000000e+00  4.86618476e-07
  0.00000000e+00  0.00000000e+00  0.00000000e+00  0.00000000e+00
  0.00000000e+00  0.00000000e+00  0.00000000e+00  0.00000000e+00
  0.00000000e+00  0.00000000e+00  0.00000000e+00  0.00000000e+00
  0.00000000e+00  0.00000000e+00  0.00000000e+00  0.00000000e+00
  0.00000000e+00  0.00000000e+00 -2.03514013e-07  4.86618476e-07
  0.00000000e+00  0.00000000e+00  0.00000000e+00  3.13087609e-06]","[[-1.15138204e-04  4.62220480e-04]
 [ 3.52735007e-06 -1.87389466e-03]]",[],0.0,0.0
1787306550.5264566,0.15570576140776232,-0.812018026189428,0.01737378552650393,"[ 4.61199030e-06 -2.07776289e-07  0.00000000e+00  0.00000000e+00
  0.00000000e+00 -2.03514013e-07 -2.07776289e-07  2.72360959e-06
  0.00000000e+00  0.00000000e+00  0.00000000e+00  4.86618476e-07
  0.00000000e+00  0.00000000e+00  0.00000000e+00  0.00000000e+00
  0.00000000e+00  0.00000000e+00  0.00000000e+00  0.00000000e+00
  0.00000000e+00  0.00000000e+00  0.00000000e+00  0.00000000e+00
  0.00000000e+00  0.00000000e+00  0.00000000e+00  0.00000000e+00
  0.00000000e+00  0.00000000e+00 -2.03514013e-07  4.86618476e-07
  0.00000000e+00  0.00000000e+00  0.00000000e+00  3.13087609e-06]","[[-1.15138204e-04  4.62220480e-04]
 [ 3.52735007e-06 -1.87389466e-03]]",[],0.0,0.0
1787306550.58716,0.15570576140776232,-0.812018026189428,0.01737378552650393,"[ 4.61199030e-06 -2.07776289e-07  0.00000000e+00  0.00000000e+00
  0.00000000e+00 -2.03514013e-07 -2.07776289e-07  2.72360959e-06
  0.00000000e+00  0.00000000e+00  0.00000000e+00  4.86618476e-07
  0.00000000e+00  0.00000000e+00  0.00000000e+00  0.00000000e+00
  0.00000000e+00  0.00000000e+00  0.00000000e+00  0.00000000e+00
  0.00000000e+00  0.00000000e+00  0.00000000e+00  0.00000000e+00
  0.00000000e+00  0.00000000e+00  0.00000000e+00  0.00000000e+00
  0.00000000e+00  0.00000000e+00 -2.03514013e-07  4.86618476e-07
  0.00000000e+00  0.00000000e+00  0.00000000e+00  3.13087609e-06]","[[-1.15138204e-04  4.62220480e-04]
 [ 3.52735007e-06 -1.87389466e-03]]",[],0.0,0.0
1787306550.6038194,0.15570576140776232,-0.812018026189428,0.01737378552650393,"[ 4.61199030e-06 -2.07776289e-07  0.00000000e+00  0.00000000e+00
  0.00000000e+00 -2.03514013e-07 -2.07776289e-07  2.72360959e-06
  0.00000000e+00  0.00000000e+00  0.00000000e+00  4.86618476e-07
  0.00000000e+00  0.00000000e+00  0.00000000e+00  0.00000000e+00
  0.00000000e+00  0.00000000e+00  0.00000000e+00  0.00000000e+00
  0.00000000e+00  0.00000000e+00  0.00000000e+00  0.00000000e+00
  0.00000000e+00  0.00000000e+00  0.00000000e+00  0.00000000e+00
  0.00000000e+00  0.00000000e+00 -2.03514013e-07  4.86618476e-07
  0.00000000e+00  0.00000000e+00  0.00000000e+00  3.13087609e-06]","[[-1.15138204e-04  4.62220480e-04]
 [ 3.52735007e-06 -1.87389466e-03]]",[],0.0,0.0
1787306550.6771743,0.15570576140776232,-0.812018026189428,0.01737378552650393,"[ 4.61199030e-06 -2.07776289e-07  0.00000000e+00  0.00000000e+00
  0.00000000e+00 -2.03514013e-07 -2.07776289e-07  2.72360959e-06
  0.00000000e+00  0.00000000e+00  0.00000000e+00  4.86618476e-07
  0.00000000e+00  0.00000000e+00  0.00000000e+00  0.00000000e+00
  0.00000000e+00  0.00000000e+00  0.00000000e+00  0.00000000e+00
  0.00000000e+00  0.00000000e+00  0.00000000e+00  0.00000000e+00
  0.00000000e+00  0.00000000e+00  0.00000000e+00  0.00000000e+00
  0.00000000e+00  0.00000000e+00 -2.03514013e-07  4.86618476e-07
  0.00000000e+00  0.00000000e+00  0.00000000e+00  3.13087609e-06]","[[-1.15138204e-04  4.62220480e-04]
 [ 3.52735007e-06 -1.87389466e-03]]",[],0.0,0.0
1787306550.7072604,0.15570576140776232,-0.812018026189428,0.01737378552650393,"[ 4.61199030e-06 -2.07776289e-07  0.00000000e+00  0.00000000e+00
  0.00000000e+00 -2.03514013e-07 -2.07776289e-07  2.72360959e-06
  0.00000000e+00  0.00000000e+00  0.00000000e+00  4.86618476e-07
  0.00000000e+00  0.00000000e+00  0.00000000e+00  0.00000000e+00
  0.00000000e+00  0.00000000e+00  0.00000000e+00  0.00000000e+00
  0.00000000e+00  0.00000000e+00  0.00000000e+00  0.00000000e+00
  0.00000000e+00  0.00000000e+00  0.00000000e+00  0.00000000e+00
  0.00000000e+00  0.00000000e+00 -2.03514013e-07  4.86618476e-07
  0.00000000e+00  0.00000000e+00  0.00000000e+00  3.13087609e-06]","[[-1.15138204e-04  4.62220480e-04]
 [ 3.52735007e-06 -1.87389466e-03]]",[],0.0,0.0
1787306550.7788136,0.15570576140776232,-0.812018026189428,0.01737378552650393,"[ 4.61199030e-06 -2.07776289e-07  0.00000000e+00  0.00000000e+00
  0.00000000e+00 -2.03514013e-07 -2.07776289e-07  2.72360959e-06
  0.00000000e+00  0.00000000e+00  0.00000000e+00  4.86618476e-07
  0.00000000e+00  0.00000000e+00  0.00000000e+00  0.00000000e+00
  0.00000000e+00  0.00000000e+00  0.00000000e+00  0.00000000e+00
  0.00000000e+00  0.00000000e+00  0.00000000e+00  0.00000000e+00
  0.00000000e+00  0.00000000e+00  0.00000000e+00  0.00000000e+00
  0.00000000e+00  0.00000000e+00 -2.03514013e-07  4.86618476e-07
  0.00000000e+00  0.00000000e+00  0.00000000e+00  3.13087609e-06]","[[-1.15138204e-04  4.62220480e-04]
 [ 3.52735007e-06 -1.87389466e-03]]",[],0.0,0.0
1787306550.7974548,0.15570576140776232,-0.812018026189428,0.01737378552650393,"[ 4.61199030e-06 -2.07776289e-07  0.00000000e+00  0.00000000e+00
  0.00000000e+00 -2.03514013e-07 -2.07776289e-07  2.72360959e-06
  0.00000000e+00  0.00000000e+00  0.00000000e+00  4.86618476e-07
  0.00000000e+00  0.00000000e+00  0.00000000e+00  0.00000000e+00
  0.00000000e+00  0.00000000e+00  0.00000000e+00  0.00000000e+00
  0.00000000e+00  0.00000000e+00  0.00000000e+00  0.00000000e+00
  0.00000000e+00  0.00000000e+00  0.00000000e+00  0.00000000e+00
  0.00000000e+00  0.00000000e+00 -2.03514013e-07  4.86618476e-07
  0.00000000e+00  0.00000000e+00  0.00000000e+00  3.13087609e-06]","[[-1.15138204e-04  4.62220480e-04]
 [ 3.52735007e-06 -1.87389466e-03]]",[],0.0,0.0
1787306550.8429413,0.15570576140776232,-0.812018026189428,0.01737378552650393,"[ 4.61199030e-06 -2.07776289e-07  0.00000000e+00  0.00000000e+00
  0.00000000e+00 -2.03514013e-07 -2.07776289e-07  2.72360959e-06
  0.00000000e+00  0.00000000e+00  0.00000000e+00  4.86618476e-07
  0.00000000e+00  0.00000000e+00  0.00000000e+00  0.00000000e+00
  0.00000000e+00  0.00000000e+00  0.00000000e+00  0.00000000e+00
  0.00000000e+00  0.00000000e+00  0.00000000e+00  0.00000000e+00
  0.00000000e+00  0.00000000e+00  0.00000000e+00  0.00000000e+00
  0.00000000e+00  0.00000000e+00 -2.03514013e-07  4.86618476e-07
  0.00000000e+00  0.00000000e+00  0.00000000e+00  3.13087609e-06]","[[-1.15138204e-04  4.62220480e-04]
 [ 3.52735007e-06 -1.87389466e-03]]",[],0.0,0.0
1787306550.917859,0.15570576140776232,-0.812018026189428,0.01737378552650393,"[ 4.61199030e-06 -2.07776289e-07  0.00000000e+00  0.00000000e+00
  0.00000000e+00 -2.03514013e-07 -2.07776289e-07  2.72360959e-06
  0.00000000e+00  0.00000000e+00  0.00000000e+00  4.86618476e-07
  0.00000000e+00  0.00000000e+00  0.00000000e+00  0.00000000e+00
  0.00000000e+00  0.00000000e+00  0.00000000e+00  0.00000000e+00
  0.00000000e+00  0.00000000e+00  0.00000000e+00  0.00000000e+00
  0.00000000e+00  0.00000000e+00  0.00000000e+00  0.00000000e+00
  0.00000000e+00  0.00000000e+00 -2.03514013e-07  4.86618476e-07
  0.00000000e+00  0.00000000e+00  0.00000000e+00  3.13087609e-06]","[[-1.15138204e-04  4.62220480e-04]
 [ 3.52735007e-06 -1.87389466e-03]]",[],0.0,0.0
1787306550.9500198,0.15570576140776232,-0.812018026189428,0.01737378552650393,"[ 4.61199030e-06 -2.07776289e-07  0.00000000e+00  0.00000000e+00
  0.00000000e+00 -2.03514013e-07 -2.07776289e-07  2.72360959e-06
  0.00000000e+00  0.00000000e+00  0.00000000e+00  4.86618476e-07
  0.00000000e+00  0.00000000e+00  0.00000000e+00  0.00000000e+00
  0.00000000e+00  0.00000000e+00  0.00000000e+00  0.00000000e+00
  0.00000000e+00  0.00000000e+00  0.00000000e+00  0.00000000e+00
  0.00000000e+00  0.00000000e+00  0.00000000e+00  0.00000000e+00
  0.00000000e+00  0.00000000e+00 -2.03514013e-07  4.86618476e-07
  0.00000000e+00  0.00000000e+00  0.00000000e+00  3.13087609e-06]","[[-1.15138204e-04  4.62220480e-04]
 [ 3.52735007e-06 -1.87389466e-03]]",[],0.0,0.0
1787306550.99327,0.15570576140776232,-0.812018026189428,0.01737378552650393,"[ 4.61199030e-06 -2.07776289e-07  0.00000000e+00  0.00000000e+00
  0.00000000e+00 -2.03514013e-07 -2.07776289e-07  2.72360959e-06
  0.00000000e+00  0.00000000e+00  0.00000000e+00  4.86618476e-07
  0.00000000e+00  0.00000000e+00  0.00000000e+00  0.00000000e+00
  0.00000000e+00  0.00000000e+00  0.00000000e+00  0.00000000e+00
  0.00000000e+00  0.00000000e+00  0.00000000e+00  0.00000000e+00
  0.00000000e+00  0.00000000e+00  0.00000000e+00  0.00000000e+00
  0.00000000e+00  0.00000000e+00 -2.03514013e-07  4.86618476e-07
  0.00000000e+00  0.00000000e+00  0.00000000e+00  3.13087609e-06]","[[-1.15138204e-04  4.62220480e-04]
 [ 3.52735007e-06 -1.87389466e-03]]",[],0.0,0.0
1787306551.0775611,0.15570576140776232,-0.812018026189428,0.01737378552650393,"[ 4.61199030e-06 -2.07776289e-07  0.00000000e+00  0.00000000e+00
  0.00000000e+00 -2.03514013e-07 -2.07776289e-07  2.72360959e-06
  0.00000000e+00  0.00000000e+00  0.00000000e+00  4.86618476e-07
  0.00000000e+00  0.00000000e+00  0.00000000e+00  0.00000000e+00
  0.00000000e+00  0.00000000e+00  0.00000000e+00  0.00000000e+00
  0.00000000e+00  0.00000000e+00  0.00000000e+00  0.00000000e+00
  0.00000000e+00  0.00000000e+00  0.00000000e+00  0.00000000e+00
  0.00000000e+00  0.00000000e+00 -2.03514013e-07  4.86618476e-07
  0.00000000e+00  0.00000000e+00  0.00000000e+00  3.13087609e-06]","[[-1.15138204e-04  4.62220480e-04]
 [ 3.52735007e-06 -1.87389466e-03]]",[],0.0,0.0
1787306551.1366906,0.15570576140776232,-0.812018026189428,0.01737378552650393,"[ 4.61199030e-06 -2.07776289e-07  0.00000000e+00  0.00000000e+00
  0.00000000e+00 -2.03514013e-07 -2.07776289e-07  2.72360959e-06
  0.00000000e+00  0.00000000e+00  0.00000000e+00  4.86618476e-07
  0.00000000e+00  0.00000000e+00  0.00000000e+00  0.00000000e+00
  0.00000000e+00  0.00000000e+00  0.00000000e+00  0.00000000e+00
  0.00000000e+00  0.00000000e+00  0.00000000e+00  0.00000000e+00
  0.00000000e+00  0.00000000e+00  0.00000000e+00  0.00000000e+00
  0.00000000e+00  0.00000000e+00 -2.03514013e-07  4.86618476e-07
  0.00000000e+00  0.00000000e+00  0.00000000e+00  3.13087609e-06]","[[-1.15138204e-04  4.62220480e-04]
 [ 3.52735007e-06 -1.87389466e-03]]",[],0.0,0.0
1787306551.148327,0.15570576140776232,-0.812018026189428,0.01737378552650393,"[ 4.61199030e-06 -2.07776289e-07  0.00000000e+00  0.00000000e+00
  0.00000000e+00 -2.03514013e-07 -2.07776289e-07  2.72360959e-06
  0.00000000e+00  0.00000000e+00  0.00000000e+00  4.86618476e-07
  0.00000000e+00  0.00000000e+00  0.00000000e+00  0.00000000e+00
  0.00000000e+00  0.00000000e+00  0.00000000e+00  0.00000000e+00
  0.00000000e+00  0.00000000e+00  0.00000000e+00  0.00000000e+00
  0.00000000e+00  0.00000000e+00  0.00000000e+00  0.00000000e+00
  0.00000000e+00  0.00000000e+00 -2.03514013e-07  4.86618476e-07
  0.00000000e+00  0.00000000e+00  0.00000000e+00  3.13087609e-06]","[[-1.15138204e-04  4.62220480e-04]
 [ 3.52735007e-06 -1.87389466e-03]]",[],0.0,0.0
1787306551.196141,0.15570576140776232,-0.812018026189428,0.01737378552650393,"[ 4.61199030e-06 -2.07776289e-07  0.00000000e+00  0.00000000e+00
  0.00000000e+00 -2.03514013e-07 -2.07776289e-07  2.72360959e-06
  0.00000000e+00  0.00000000e+00  0.00000000e+00  4.86618476e-07
  0.00000000e+00  0.00000000e+00  0.00000000e+00  0.00000000e+00
  0.00000000e+00  0.00000000e+00  0.00000000e+00  0.00000000e+00
  0.00000000e+00  0.00000000e+00  0.00000000e+00  0.00000000e+00
  0.00000000e+00  0.00000000e+00  0.00000000e+00  0.00000000e+00
  0.00000000e+00  0.00000000e+00 -2.03514013e-07  4.86618476e-07
  0.00000000e+00  0.00000000e+00  0.00000000e+00  3.13087609e-06]","[[-1.15138204e-04  4.62220480e-04]
 [ 3.52735007e-06 -1.87389466e-03]]",[],0.0,0.0
1787306551.2461407,0.15570576140776232,-0.812018026189428,0.01737378552650393,"[ 4.61199030e-06 -2.07776289e-07  0.00000000e+00  0.00000000e+00
  0.00000000e+00 -2.03514013e-07 -2.07776289e-07  2.72360959e-06
  0.00000000e+00  0.00000000e+00  0.00000000e+00  4.86618476e-07
  0.00000000e+00  0.00000000e+00  0.00000000e+00  0.00000000e+00
  0.00000000e+00  0.00000000e+00  0.00000000e+00  0.00000000e+00
  0.00000000e+00  0.00000000e+00  0.00000000e+00  0.00000000e+00
  0.00000000e+00  0.00000000e+00  0.00000000e+00  0.00000000e+00
  0.00000000e+00  0.00000000e+00 -2.03514013e-07  4.86618476e-07
  0.00000000e+00  0.00000000e+00  0.00000000e+00  3.13087609e-06]","[[-1.15138204e-04  4.62220480e-04]
 [ 3.52735007e-06 -1.87389466e-03]]",[],0.0,0.0
1787306551.3276494,0.15570576140776232,-0.812018026189428,0.01737378552650393,"[ 4.61199030e-06 -2.07776289e-07  0.00000000e+00  0.00000000e+00
  0.00000000e+00 -2.03514013e-07 -2.07776289e-07  2.72360959e-06
  0.00000000e+00  0.00000000e+00  0.00000000e+00  4.86618476e-07
  0.00000000e+00  0.00000000e+00  0.00000000e+00  0.00000000e+00
  0.00000000e+00  0.00000000e+00  0.00000000e+00  0.00000000e+00
  0.00000000e+00  0.00000000e+00  0.00000000e+00  0.00000000e+00
  0.00000000e+00  0.00000000e+00  0.00000000e+00  0.00000000e+00
  0.00000000e+00  0.00000000e+00 -2.03514013e-07  4.86618476e-07
  0.00000000e+00  0.00000000e+00  0.00000000e+00  3.13087609e-06]","[[-1.15138204e-04  4.62220480e-04]
 [ 3.52735007e-06 -1.87389466e-03]]",[],0.0,0.0
1787306551.3542402,0.14353777665891326,-0.8168583021005413,-0.0033169575332427925,"[ 4.18455996e-06 -1.87738066e-07  0.00000000e+00  0.00000000e+00
  0.00000000e+00 -2.89885913e-07 -1.87738066e-07  2.39438241e-06
  0.00000000e+00  0.00000000e+00  0.00000000e+00  4.37290495e-07
  0.00000000e+00  0.00000000e+00  0.00000000e+00  0.00000000e+00
  0.00000000e+00  0.00000000e+00  0.00000000e+00  0.00000000e+00
  0.00000000e+00  0.00000000e+00  0.00000000e+00  0.00000000e+00
  0.00000000e+00  0.00000000e+00  0.00000000e+00  0.00000000e+00
  0.00000000e+00  0.00000000e+00 -2.89885913e-07  4.37290495e-07
  0.00000000e+00  0.00000000e+00  0.00000000e+00  3.02139740e-06]","[[-1.04719090e-04  4.76764656e-04]
 [ 7.46944119e-06 -1.65965621e-03]]",[],0.0,0.0
1787306551.4340403,0.14353777665891326,-0.8168583021005413,-0.0033169575332427925,"[ 4.18455996e-06 -1.87738066e-07  0.00000000e+00  0.00000000e+00
  0.00000000e+00 -2.89885913e-07 -1.87738066e-07  2.39438241e-06
  0.00000000e+00  0.00000000e+00  0.00000000e+00  4.37290495e-07
  0.00000000e+00  0.00000000e+00  0.00000000e+00  0.00000000e+00
  0.00000000e+00  0.00000000e+00  0.00000000e+00  0.00000000e+00
  0.00000000e+00  0.00000000e+00  0.00000000e+00  0.00000000e+00
  0.00000000e+00  0.00000000e+00  0.00000000e+00  0.00000000e+00
  0.00000000e+00  0.00000000e+00 -2.89885913e-07  4.37290495e-07
  0.00000000e+00  0.00000000e+00  0.00000000e+00  3.02139740e-06]","[[-1.04719090e-04  4.76764656e-04]
 [ 7.46944119e-06 -1.65965621e-03]]",[],0.0,0.0
1787306551.4802198,0.14353777665891326,-0.8168583021005413,-0.0033169575332427925,"[ 4.18455996e-06 -1.87738066e-07  0.00000000e+00  0.00000000e+00
  0.00000000e+00 -2.89885913e-07 -1.87738066e-07  2.39438241e-06
  0.00000000e+00  0.00000000e+00  0.00000000e+00  4.37290495e-07
  0.00000000e+00  0.00000000e+00  0.00000000e+00  0.00000000e+00
  0.00000000e+00  0.00000000e+00  0.00000000e+00  0.00000000e+00
  0.00000000e+00  0.00000000e+00  0.00000000e+00  0.00000000e+00
  0.00000000e+00  0.00000000e+00  0.00000000e+00  0.00000000e+00
  0.00000000e+00  0.00000000e+00 -2.89885913e-07  4.37290495e-07
  0.00000000e+00  0.00000000e+00  0.00000000e+00  3.02139740e-06]","[[-1.04719090e-04  4.76764656e-04]
 [ 7.46944119e-06 -1.65965621e-03]]",[],0.0,0.0
1787306551.5355415,0.14353777665891326,-0.8168583021005413,-0.0033169575332427925,"[ 4.18455996e-06 -1.87738066e-07  0.00000000e+00  0.00000000e+00
  0.00000000e+00 -2.89885913e-07 -1.87738066e-07  2.39438241e-06
  0.00000000e+00  0.00000000e+00  0.00000000e+00  4.37290495e-07
  0.00000000e+00  0.00000000e+00  0.00000000e+00  0.00000000e+00
  0.00000000e+00  0.00000000e+00  0.00000000e+00  0.00000000e+00
  0.00000000e+00  0.00000000e+00  0.00000000e+00  0.00000000e+00
  0.00000000e+00  0.00000000e+00  0.00000000e+00  0.00000000e+00
  0.00000000e+00  0.00000000e+00 -2.89885913e-07  4.37290495e-07
  0.00000000e+00  0.00000000e+00  0.00000000e+00  3.02139740e-06]","[[-1.04719090e-04  4.76764656e-04]
 [ 7.46944119e-06 -1.65965621e-03]]",[],0.0,0.0
1787306551.5457978,0.14353777665891326,-0.8168583021005413,-0.0033169575332427925,"[ 4.18455996e-06 -1.87738066e-07  0.00000000e+00  0.00000000e+00
  0.00000000e+00 -2.89885913e-07 -1.87738066e-07  2.39438241e-06
  0.00000000e+00  0.00000000e+00  0.00000000e+00  4.37290495e-07
  0.00000000e+00  0.00000000e+00  0.00000000e+00  0.00000000e+00
  0.00000000e+00  0.00000000e+00  0.00000000e+00  0.00000000e+00
  0.00000000e+00  0.00000000e+00  0.00000000e+00  0.00000000e+00
  0.00000000e+00  0.00000000e+00  0.00000000e+00  0.00000000e+00
  0.00000000e+00  0.00000000e+00 -2.89885913e-07  4.37290495e-07
  0.00000000e+00  0.00000000e+00  0.00000000e+00  3.02139740e-06]","[[-1.04719090e-04  4.76764656e-04]
 [ 7.46944119e-06 -1.65965621e-03]]",[],0.0,0.0
1787306551.5991008,0.14353777665891326,-0.8168583021005413,-0.0033169575332427925,"[ 4.18455996e-06 -1.87738066e-07  0.00000000e+00  0.00000000e+00
  0.00000000e+00 -2.89885913e-07 -1.87738066e-07  2.39438241e-06
  0.00000000e+00  0.00000000e+00  0.00000000e+00  4.37290495e-07
  0.00000000e+00  0.00000000e+00  0.00000000e+00  0.00000000e+00
  0.00000000e+00  0.00000000e+00  0.00000000e+00  0.00000000e+00
  0.00000000e+00  0.00000000e+00  0.00000000e+00  0.00000000e+00
  0.00000000e+00  0.00000000e+00  0.00000000e+00  0.00000000e+00
  0.00000000e+00  0.00000000e+00 -2.89885913e-07  4.37290495e-07
  0.00000000e+00  0.00000000e+00  0.00000000e+00  3.02139740e-06]","[[-1.04719090e-04  4.76764656e-04]
 [ 7.46944119e-06 -1.65965621e-03]]",[],0.0,0.0
1787306551.6760123,0.14353777665891326,-0.8168583021005413,-0.0033169575332427925,"[ 4.18455996e-06 -1.87738066e-07  0.00000000e+00  0.00000000e+00
  0.00000000e+00 -2.89885913e-07 -1.87738066e-07  2.39438241e-06
  0.00000000e+00  0.00000000e+00  0.00000000e+00  4.37290495e-07
  0.00000000e+00  0.00000000e+00  0.00000000e+00  0.00000000e+00
  0.00000000e+00  0.00000000e+00  0.00000000e+00  0.00000000e+00
  0.00000000e+00  0.00000000e+00  0.00000000e+00  0.00000000e+00
  0.00000000e+00  0.00000000e+00  0.00000000e+00  0.00000000e+00
  0.00000000e+00  0.00000000e+00 -2.89885913e-07  4.37290495e-07
  0.00000000e+00  0.00000000e+00  0.00000000e+00  3.02139740e-06]","[[-1.04719090e-04  4.76764656e-04]
 [ 7.46944119e-06 -1.65965621e-03]]",[],0.0,0.0
1787306551.7415955,0.14353777665891326,-0.8168583021005413,-0.0033169575332427925,"[ 4.18455996e-06 -1.87738066e-07  0.00000000e+00  0.00000000e+00
  0.00000000e+00 -2.89885913e-07 -1.87738066e-07  2.39438241e-06
  0.00000000e+00  0.00000000e+00  0.00000000e+00  4.37290495e-07
  0.00000000e+00  0.00000000e+00  0.00000000e+00  0.00000000e+00
  0.00000000e+00  0.00000000e+00  0.00000000e+00  0.00000000e+00
  0.00000000e+00  0.00000000e+00  0.00000000e+00  0.00000000e+00
  0.00000000e+00  0.00000000e+00  0.00000000e+00  0.00000000e+00
  0.00000000e+00  0.00000000e+00 -2.89885913e-07  4.37290495e-07
  0.00000000e+00  0.00000000e+00  0.00000000e+00  3.02139740e-06]","[[-1.04719090e-04  4.76764656e-04]
 [ 7.46944119e-06 -1.65965621e-03]]",[],0.0,0.0
1787306551.8355355,0.14353777665891326,-0.8168583021005413,-0.0033169575332427925,"[ 4.18455996e-06 -1.87738066e-07  0.00000000e+00  0.00000000e+00
  0.00000000e+00 -2.89885913e-07 -1.87738066e-07  2.39438241e-06
  0.00000000e+00  0.00000000e+00  0.00000000e+00  4.37290495e-07
  0.00000000e+00  0.00000000e+00  0.00000000e+00  0.00000000e+00
  0.00000000e+00  0.00000000e+00  0.00000000e+00  0.00000000e+00
  0.00000000e+00  0.00000000e+00  0.00000000e+00  0.00000000e+00
  0.00000000e+00  0.00000000e+00  0.00000000e+00  0.00000000e+00
  0.00000000e+00  0.00000000e+00 -2.89885913e-07  4.37290495e-07
  0.00000000e+00  0.00000000e+00  0.00000000e+00  3.02139740e-06]","[[-1.04719090e-04  4.76764656e-04]
 [ 7.46944119e-06 -1.65965621e-03]]",[],0.0,0.0
1787306551.844076,0.14353777665891326,-0.8168583021005413,-0.0033169575332427925,"[ 4.18455996e-06 -1.87738066e-07  0.00000000e+00  0.00000000e+00
  0.00000000e+00 -2.89885913e-07 -1.87738066e-07  2.39438241e-06
  0.00000000e+00  0.00000000e+00  0.00000000e+00  4.37290495e-07
  0.00000000e+00  0.00000000e+00  0.00000000e+00  0.00000000e+00
  0.00000000e+00  0.00000000e+00  0.00000000e+00  0.00000000e+00
  0.00000000e+00  0.00000000e+00  0.00000000e+00  0.00000000e+00
  0.00000000e+00  0.00000000e+00  0.00000000e+00  0.00000000e+00
  0.00000000e+00  0.00000000e+00 -2.89885913e-07  4.37290495e-07
  0.00000000e+00  0.00000000e+00  0.00000000e+00  3.02139740e-06]","[[-1.04719090e-04  4.76764656e-04]
 [ 7.46944119e-06 -1.65965621e-03]]",[],0.0,0.0
1787306551.9302626,0.14353777665891326,-0.8168583021005413,-0.0033169575332427925,"[ 4.18455996e-06 -1.87738066e-07  0.00000000e+00  0.00000000e+00
  0.00000000e+00 -2.89885913e-07 -1.87738066e-07  2.39438241e-06
  0.00000000e+00  0.00000000e+00  0.00000000e+00  4.37290495e-07
  0.00000000e+00  0.00000000e+00  0.00000000e+00  0.00000000e+00
  0.00000000e+00  0.00000000e+00  0.00000000e+00  0.00000000e+00
  0.00000000e+00  0.00000000e+00  0.00000000e+00  0.00000000e+00
  0.00000000e+00  0.00000000e+00  0.00000000e+00  0.00000000e+00
  0.00000000e+00  0.00000000e+00 -2.89885913e-07  4.37290495e-07
  0.00000000e+00  0.00000000e+00  0.00000000e+00  3.02139740e-06]","[[-1.04719090e-04  4.76764656e-04]
 [ 7.46944119e-06 -1.65965621e-03]]",[],0.0,0.0
1787306551.9519992,0.14353777665891326,-0.8168583021005413,-0.0033169575332427925,"[ 4.18455996e-06 -1.87738066e-07  0.00000000e+00  0.00000000e+00
  0.00000000e+00 -2.89885913e-07 -1.87738066e-07  2.39438241e-06
  0.00000000e+00  0.00000000e+00  0.00000000e+00  4.37290495e-07
  0.00000000e+00  0.00000000e+00  0.00000000e+00  0.00000000e+00
  0.00000000e+00  0.00000000e+00  0.00000000e+00  0.00000000e+00
  0.00000000e+00  0.00000000e+00  0.00000000e+00  0.00000000e+00
  0.00000000e+00  0.00000000e+00  0.00000000e+00  0.00000000e+00
  0.00000000e+00  0.00000000e+00 -2.89885913e-07  4.37290495e-07
  0.00000000e+00  0.00000000e+00  0.00000000e+00  3.02139740e-06]","[[-1.04719090e-04  4.76764656e-04]
 [ 7.46944119e-06 -1.65965621e-03]]",[],0.0,0.0
1787306552.0535896,0.14353777665891326,-0.8168583021005413,-0.0033169575332427925,"[ 4.18455996e-06 -1.87738066e-07  0.00000000e+00  0.00000000e+00
  0.00000000e+00 -2.89885913e-07 -1.87738066e-07  2.39438241e-06
  0.00000000e+00  0.00000000e+00  0.00000000e+00  4.37290495e-07
  0.00000000e+00  0.00000000e+00  0.00000000e+00  0.00000000e+00
  0.00000000e+00  0.00000000e+00  0.00000000e+00  0.00000000e+00
  0.00000000e+00  0.00000000e+00  0.00000000e+00  0.00000000e+00
  0.00000000e+00  0.00000000e+00  0.00000000e+00  0.00000000e+00
  0.00000000e+00  0.00000000e+00 -2.89885913e-07  4.37290495e-07
  0.00000000e+00  0.00000000e+00  0.00000000e+00  3.02139740e-06]","[[-1.04719090e-04  4.76764656e-04]
 [ 7.46944119e-06 -1.65965621e-03]]",[],0.0,0.0
1787306552.1264136,0.14353777665891326,-0.8168583021005413,-0.0033169575332427925,"[ 4.18455996e-06 -1.87738066e-07  0.00000000e+00  0.00000000e+00
  0.00000000e+00 -2.89885913e-07 -1.87738066e-07  2.39438241e-06
  0.00000000e+00  0.00000000e+00  0.00000000e+00  4.37290495e-07
  0.00000000e+00  0.00000000e+00  0.00000000e+00  0.00000000e+00
  0.00000000e+00  0.00000000e+00  0.00000000e+00  0.00000000e+00
  0.00000000e+00  0.00000000e+00  0.00000000e+00  0.00000000e+00
  0.00000000e+00  0.00000000e+00  0.00000000e+00  0.00000000e+00
  0.00000000e+00  0.00000000e+00 -2.89885913e-07  4.37290495e-07
  0.00000000e+00  0.00000000e+00  0.00000000e+00  3.02139740e-06]","[[-1.04719090e-04  4.76764656e-04]
 [ 7.46944119e-06 -1.65965621e-03]]",[],0.0,0.0
1787306552.151139,0.14353777665891326,-0.8168583021005413,-0.0033169575332427925,"[ 4.18455996e-06 -1.87738066e-07  0.00000000e+00  0.00000000e+00
  0.00000000e+00 -2.89885913e-07 -1.87738066e-07  2.39438241e-06
  0.00000000e+00  0.00000000e+00  0.00000000e+00  4.37290495e-07
  0.00000000e+00  0.00000000e+00  0.00000000e+00  0.00000000e+00
  0.00000000e+00  0.00000000e+00  0.00000000e+00  0.00000000e+00
  0.00000000e+00  0.00000000e+00  0.00000000e+00  0.00000000e+00
  0.00000000e+00  0.00000000e+00  0.00000000e+00  0.00000000e+00
  0.00000000e+00  0.00000000e+00 -2.89885913e-07  4.37290495e-07
  0.00000000e+00  0.00000000e+00  0.00000000e+00  3.02139740e-06]","[[-1.04719090e-04  4.76764656e-04]
 [ 7.46944119e-06 -1.65965621e-03]]",[],0.0,0.0
1787306552.2350242,0.14353777665891326,-0.8168583021005413,-0.0033169575332427925,"[ 4.18455996e-06 -1.87738066e-07  0.00000000e+00  0.00000000e+00
  0.00000000e+00 -2.89885913e-07 -1.87738066e-07  2.39438241e-06
  0.00000000e+00  0.00000000e+00  0.00000000e+00  4.37290495e-07
  0.00000000e+00  0.00000000e+00  0.00000000e+00  0.00000000e+00
  0.00000000e+00  0.00000000e+00  0.00000000e+00  0.00000000e+00
  0.00000000e+00  0.00000000e+00  0.00000000e+00  0.00000000e+00
  0.00000000e+00  0.00000000e+00  0.00000000e+00  0.00000000e+00
  0.00000000e+00  0.00000000e+00 -2.89885913e-07  4.37290495e-07
  0.00000000e+00  0.00000000e+00  0.00000000e+00  3.02139740e-06]","[[-1.04719090e-04  4.76764656e-04]
 [ 7.46944119e-06 -1.65965621e-03]]",[],0.0,0.0
1787306552.2463746,0.14353777665891326,-0.8168583021005413,-0.0033169575332427925,"[ 4.18455996e-06 -1.87738066e-07  0.00000000e+00  0.00000000e+00
  0.00000000e+00 -2.89885913e-07 -1.87738066e-07  2.39438241e-06
  0.00000000e+00  0.00000000e+00  0.00000000e+00  4.37290495e-07
  0.00000000e+00  0.00000000e+00  0.00000000e+00  0.00000000e+00
  0.00000000e+00  0.00000000e+00  0.00000000e+00  0.00000000e+00
  0.00000000e+00  0.00000000e+00  0.00000000e+00  0.00000000e+00
  0.00000000e+00  0.00000000e+00  0.00000000e+00  0.00000000e+00
  0.00000000e+00  0.00000000e+00 -2.89885913e-07  4.37290495e-07
  0.00000000e+00  0.00000000e+00  0.00000000e+00  3.02139740e-06]","[[-1.04719090e-04  4.76764656e-04]
 [ 7.46944119e-06 -1.65965621e-03]]",[],0.0,0.0
1787306552.2948682,0.13106316842905738,-0.8213059149417798,-0.02944441858191427,"[ 3.84273689e-06 -1.78057961e-07  0.00000000e+00  0.00000000e+00
  0.00000000e+00 -2.30880347e-07 -1.78057961e-07  2.13739660e-06
  0.00000000e+00  0.00000000e+00  0.00000000e+00  4.02373356e-07
  0.00000000e+00  0.00000000e+00  0.00000000e+00  0.00000000e+00
  0.00000000e+00  0.00000000e+00  0.00000000e+00  0.00000000e+00
  0.00000000e+00  0.00000000e+00  0.00000000e+00  0.00000000e+00
  0.00000000e+00  0.00000000e+00  0.00000000e+00  0.00000000e+00
  0.00000000e+00  0.00000000e+00 -2.30880347e-07  4.02373356e-07
  0.00000000e+00  0.00000000e+00  0.00000000e+00  3.05399912e-06]","[[-9.61714399e-05  3.83539928e-04]
 [ 6.86118522e-06 -1.49898761e-03]]",[],0.0,0.0
1787306552.3431838,0.13106316842905738,-0.8213059149417798,-0.02944441858191427,"[ 3.84273689e-06 -1.78057961e-07  0.00000000e+00  0.00000000e+00
  0.00000000e+00 -2.30880347e-07 -1.78057961e-07  2.13739660e-06
  0.00000000e+00  0.00000000e+00  0.00000000e+00  4.02373356e-07
  0.00000000e+00  0.00000000e+00  0.00000000e+00  0.00000000e+00
  0.00000000e+00  0.00000000e+00  0.00000000e+00  0.00000000e+00
  0.00000000e+00  0.00000000e+00  0.00000000e+00  0.00000000e+00
  0.00000000e+00  0.00000000e+00  0.00000000e+00  0.00000000e+00
  0.00000000e+00  0.00000000e+00 -2.30880347e-07  4.02373356e-07
  0.00000000e+00  0.00000000e+00  0.00000000e+00  3.05399912e-06]","[[-9.61714399e-05  3.83539928e-04]
 [ 6.86118522e-06 -1.49898761e-03]]",[],0.0,0.0
1787306552.4309857,0.13106316842905738,-0.8213059149417798,-0.02944441858191427,"[ 3.84273689e-06 -1.78057961e-07  0.00000000e+00  0.00000000e+00
  0.00000000e+00 -2.30880347e-07 -1.78057961e-07  2.13739660e-06
  0.00000000e+00  0.00000000e+00  0.00000000e+00  4.02373356e-07
  0.00000000e+00  0.00000000e+00  0.00000000e+00  0.00000000e+00
  0.00000000e+00  0.00000000e+00  0.00000000e+00  0.00000000e+00
  0.00000000e+00  0.00000000e+00  0.00000000e+00  0.00000000e+00
  0.00000000e+00  0.00000000e+00  0.00000000e+00  0.00000000e+00
  0.00000000e+00  0.00000000e+00 -2.30880347e-07  4.02373356e-07
  0.00000000e+00  0.00000000e+00  0.00000000e+00  3.05399912e-06]","[[-9.61714399e-05  3.83539928e-04]
 [ 6.86118522e-06 -1.49898761e-03]]",[],0.0,0.0
1787306552.444304,0.13106316842905738,-0.8213059149417798,-0.02944441858191427,"[ 3.84273689e-06 -1.78057961e-07  0.00000000e+00  0.00000000e+00
  0.00000000e+00 -2.30880347e-07 -1.78057961e-07  2.13739660e-06
  0.00000000e+00  0.00000000e+00  0.00000000e+00  4.02373356e-07
  0.00000000e+00  0.00000000e+00  0.00000000e+00  0.00000000e+00
  0.00000000e+00  0.00000000e+00  0.00000000e+00  0.00000000e+00
  0.00000000e+00  0.00000000e+00  0.00000000e+00  0.00000000e+00
  0.00000000e+00  0.00000000e+00  0.00000000e+00  0.00000000e+00
  0.00000000e+00  0.00000000e+00 -2.30880347e-07  4.02373356e-07
  0.00000000e+00  0.00000000e+00  0.00000000e+00  3.05399912e-06]","[[-9.61714399e-05  3.83539928e-04]
 [ 6.86118522e-06 -1.49898761e-03]]",[],0.0,0.0
1787306552.5397587,0.13106316842905738,-0.8213059149417798,-0.02944441858191427,"[ 3.84273689e-06 -1.78057961e-07  0.00000000e+00  0.00000000e+00
  0.00000000e+00 -2.30880347e-07 -1.78057961e-07  2.13739660e-06
  0.00000000e+00  0.00000000e+00  0.00000000e+00  4.02373356e-07
  0.00000000e+00  0.00000000e+00  0.00000000e+00  0.00000000e+00
  0.00000000e+00  0.00000000e+00  0.00000000e+00  0.00000000e+00
  0.00000000e+00  0.00000000e+00  0.00000000e+00  0.00000000e+00
  0.00000000e+00  0.00000000e+00  0.00000000e+00  0.00000000e+00
  0.00000000e+00  0.00000000e+00 -2.30880347e-07  4.02373356e-07
  0.00000000e+00  0.00000000e+00  0.00000000e+00  3.05399912e-06]","[[-9.61714399e-05  3.83539928e-04]
 [ 6.86118522e-06 -1.49898761e-03]]",[],0.0,0.0
1787306552.550736,0.13106316842905738,-0.8213059149417798,-0.02944441858191427,"[ 3.84273689e-06 -1.78057961e-07  0.00000000e+00  0.00000000e+00
  0.00000000e+00 -2.30880347e-07 -1.78057961e-07  2.13739660e-06
  0.00000000e+00  0.00000000e+00  0.00000000e+00  4.02373356e-07
  0.00000000e+00  0.00000000e+00  0.00000000e+00  0.00000000e+00
  0.00000000e+00  0.00000000e+00  0.00000000e+00  0.00000000e+00
  0.00000000e+00  0.00000000e+00  0.00000000e+00  0.00000000e+00
  0.00000000e+00  0.00000000e+00  0.00000000e+00  0.00000000e+00
  0.00000000e+00  0.00000000e+00 -2.30880347e-07  4.02373356e-07
  0.00000000e+00  0.00000000e+00  0.00000000e+00  3.05399912e-06]","[[-9.61714399e-05  3.83539928e-04]
 [ 6.86118522e-06 -1.49898761e-03]]",[],0.0,0.0
1787306552.5964499,0.13106316842905738,-0.8213059149417798,-0.02944441858191427,"[ 3.84273689e-06 -1.78057961e-07  0.00000000e+00  0.00000000e+00
  0.00000000e+00 -2.30880347e-07 -1.78057961e-07  2.13739660e-06
  0.00000000e+00  0.00000000e+00  0.00000000e+00  4.02373356e-07
  0.00000000e+00  0.00000000e+00  0.00000000e+00  0.00000000e+00
  0.00000000e+00  0.00000000e+00  0.00000000e+00  0.00000000e+00
  0.00000000e+00  0.00000000e+00  0.00000000e+00  0.00000000e+00
  0.00000000e+00  0.00000000e+00  0.00000000e+00  0.00000000e+00
  0.00000000e+00  0.00000000e+00 -2.30880347e-07  4.02373356e-07
  0.00000000e+00  0.00000000e+00  0.00000000e+00  3.05399912e-06]","[[-9.61714399e-05  3.83539928e-04]
 [ 6.86118522e-06 -1.49898761e-03]]",[],0.0,0.0
1787306552.6600354,0.13106316842905738,-0.8213059149417798,-0.02944441858191427,"[ 3.84273689e-06 -1.78057961e-07  0.00000000e+00  0.00000000e+00
  0.00000000e+00 -2.30880347e-07 -1.78057961e-07  2.13739660e-06
  0.00000000e+00  0.00000000e+00  0.00000000e+00  4.02373356e-07
  0.00000000e+00  0.00000000e+00  0.00000000e+00  0.00000000e+00
  0.00000000e+00  0.00000000e+00  0.00000000e+00  0.00000000e+00
  0.00000000e+00  0.00000000e+00  0.00000000e+00  0.00000000e+00
  0.00000000e+00  0.00000000e+00  0.00000000e+00  0.00000000e+00
  0.00000000e+00  0.00000000e+00 -2.30880347e-07  4.02373356e-07
  0.00000000e+00  0.00000000e+00  0.00000000e+00  3.05399912e-06]","[[-9.61714399e-05  3.83539928e-04]
 [ 6.86118522e-06 -1.49898761e-03]]",[],0.0,0.0
1787306552.7285275,0.13106316842905738,-0.8213059149417798,-0.02944441858191427,"[ 3.84273689e-06 -1.78057961e-07  0.00000000e+00  0.00000000e+00
  0.00000000e+00 -2.30880347e-07 -1.78057961e-07  2.13739660e-06
  0.00000000e+00  0.00000000e+00  0.00000000e+00  4.02373356e-07
  0.00000000e+00  0.00000000e+00  0.00000000e+00  0.00000000e+00
  0.00000000e+00  0.00000000e+00  0.00000000e+00  0.00000000e+00
  0.00000000e+00  0.00000000e+00  0.00000000e+00  0.00000000e+00
  0.00000000e+00  0.00000000e+00  0.00000000e+00  0.00000000e+00
  0.00000000e+00  0.00000000e+00 -2.30880347e-07  4.02373356e-07
  0.00000000e+00  0.00000000e+00  0.00000000e+00  3.05399912e-06]","[[-9.61714399e-05  3.83539928e-04]
 [ 6.86118522e-06 -1.49898761e-03]]",[],0.0,0.0
1787306552.7491972,0.13106316842905738,-0.8213059149417798,-0.02944441858191427,"[ 3.84273689e-06 -1.78057961e-07  0.00000000e+00  0.00000000e+00
  0.00000000e+00 -2.30880347e-07 -1.78057961e-07  2.13739660e-06
  0.00000000e+00  0.00000000e+00  0.00000000e+00  4.02373356e-07
  0.00000000e+00  0.00000000e+00  0.00000000e+00  0.00000000e+00
  0.00000000e+00  0.00000000e+00  0.00000000e+00  0.00000000e+00
  0.00000000e+00  0.00000000e+00  0.00000000e+00  0.00000000e+00
  0.00000000e+00  0.00000000e+00  0.00000000e+00  0.00000000e+00
  0.00000000e+00  0.00000000e+00 -2.30880347e-07  4.02373356e-07
  0.00000000e+00  0.00000000e+00  0.00000000e+00  3.05399912e-06]","[[-9.61714399e-05  3.83539928e-04]
 [ 6.86118522e-06 -1.49898761e-03]]",[],0.0,0.0
1787306552.8335354,0.13106316842905738,-0.8213059149417798,-0.02944441858191427,"[ 3.84273689e-06 -1.78057961e-07  0.00000000e+00  0.00000000e+00
  0.00000000e+00 -2.30880347e-07 -1.78057961e-07  2.13739660e-06
  0.00000000e+00  0.00000000e+00  0.00000000e+00  4.02373356e-07
  0.00000000e+00  0.00000000e+00  0.00000000e+00  0.00000000e+00
  0.00000000e+00  0.00000000e+00  0.00000000e+00  0.00000000e+00
  0.00000000e+00  0.00000000e+00  0.00000000e+00  0.00000000e+00
  0.00000000e+00  0.00000000e+00  0.00000000e+00  0.00000000e+00
  0.00000000e+00  0.00000000e+00 -2.30880347e-07  4.02373356e-07
  0.00000000e+00  0.00000000e+00  0.00000000e+00  3.05399912e-06]","[[-9.61714399e-05  3.83539928e-04]
