time,x,y,yaw,cov_prop,K_gain,innovation,v_ekf,omega_ekf
1787581803.1516855,1.0182876660062765,-0.42854317512588863,1.9474152059099454,"[ 5.03902448e-05  3.38074392e-06  0.00000000e+00  0.00000000e+00
  0.00000000e+00 -2.04914983e-06  3.38074392e-06  4.62261157e-05
  0.00000000e+00  0.00000000e+00  0.00000000e+00 -9.34986018e-07
  0.00000000e+00  0.00000000e+00  0.00000000e+00  0.00000000e+00
  0.00000000e+00  0.00000000e+00  0.00000000e+00  0.00000000e+00
  0.00000000e+00  0.00000000e+00  0.00000000e+00  0.00000000e+00
  0.00000000e+00  0.00000000e+00  0.00000000e+00  0.00000000e+00
  0.00000000e+00  0.00000000e+00 -2.04914983e-06 -9.34986018e-07
  0.00000000e+00  0.00000000e+00  0.00000000e+00  3.39989424e-06]","[[-0.00014315  0.03748301]
 [-0.00115834  0.00237687]]",[],0.0,0.0
1787581803.2030523,1.0182876660062765,-0.42854317512588863,1.9474152059099454,"[ 5.03902448e-05  3.38074392e-06  0.00000000e+00  0.00000000e+00
  0.00000000e+00 -2.04914983e-06  3.38074392e-06  4.62261157e-05
  0.00000000e+00  0.00000000e+00  0.00000000e+00 -9.34986018e-07
  0.00000000e+00  0.00000000e+00  0.00000000e+00  0.00000000e+00
  0.00000000e+00  0.00000000e+00  0.00000000e+00  0.00000000e+00
  0.00000000e+00  0.00000000e+00  0.00000000e+00  0.00000000e+00
  0.00000000e+00  0.00000000e+00  0.00000000e+00  0.00000000e+00
  0.00000000e+00  0.00000000e+00 -2.04914983e-06 -9.34986018e-07
  0.00000000e+00  0.00000000e+00  0.00000000e+00  3.39989424e-06]","[[-0.00014315  0.03748301]
 [-0.00115834  0.00237687]]",[],0.0,0.0
1787581803.2537699,1.0182876660062765,-0.42854317512588863,1.9474152059099454,"[ 5.03902448e-05  3.38074392e-06  0.00000000e+00  0.00000000e+00
  0.00000000e+00 -2.04914983e-06  3.38074392e-06  4.62261157e-05
  0.00000000e+00  0.00000000e+00  0.00000000e+00 -9.34986018e-07
  0.00000000e+00  0.00000000e+00  0.00000000e+00  0.00000000e+00
  0.00000000e+00  0.00000000e+00  0.00000000e+00  0.00000000e+00
  0.00000000e+00  0.00000000e+00  0.00000000e+00  0.00000000e+00
  0.00000000e+00  0.00000000e+00  0.00000000e+00  0.00000000e+00
  0.00000000e+00  0.00000000e+00 -2.04914983e-06 -9.34986018e-07
  0.00000000e+00  0.00000000e+00  0.00000000e+00  3.39989424e-06]","[[-0.00014315  0.03748301]
 [-0.00115834  0.00237687]]",[],0.0,0.0
1787581803.3027446,1.0182876660062765,-0.42854317512588863,1.9474152059099454,"[ 5.03902448e-05  3.38074392e-06  0.00000000e+00  0.00000000e+00
  0.00000000e+00 -2.04914983e-06  3.38074392e-06  4.62261157e-05
  0.00000000e+00  0.00000000e+00  0.00000000e+00 -9.34986018e-07
  0.00000000e+00  0.00000000e+00  0.00000000e+00  0.00000000e+00
  0.00000000e+00  0.00000000e+00  0.00000000e+00  0.00000000e+00
  0.00000000e+00  0.00000000e+00  0.00000000e+00  0.00000000e+00
  0.00000000e+00  0.00000000e+00  0.00000000e+00  0.00000000e+00
  0.00000000e+00  0.00000000e+00 -2.04914983e-06 -9.34986018e-07
  0.00000000e+00  0.00000000e+00  0.00000000e+00  3.39989424e-06]","[[-0.00014315  0.03748301]
 [-0.00115834  0.00237687]]",[],0.0,0.0
1787581803.358852,1.0182876660062765,-0.42854317512588863,1.9474152059099454,"[ 5.03902448e-05  3.38074392e-06  0.00000000e+00  0.00000000e+00
  0.00000000e+00 -2.04914983e-06  3.38074392e-06  4.62261157e-05
  0.00000000e+00  0.00000000e+00  0.00000000e+00 -9.34986018e-07
  0.00000000e+00  0.00000000e+00  0.00000000e+00  0.00000000e+00
  0.00000000e+00  0.00000000e+00  0.00000000e+00  0.00000000e+00
  0.00000000e+00  0.00000000e+00  0.00000000e+00  0.00000000e+00
  0.00000000e+00  0.00000000e+00  0.00000000e+00  0.00000000e+00
  0.00000000e+00  0.00000000e+00 -2.04914983e-06 -9.34986018e-07
  0.00000000e+00  0.00000000e+00  0.00000000e+00  3.39989424e-06]","[[-0.00014315  0.03748301]
 [-0.00115834  0.00237687]]",[],0.0,0.0
1787581803.4028604,1.0182876660062765,-0.42854317512588863,1.9474152059099454,"[ 5.03902448e-05  3.38074392e-06  0.00000000e+00  0.00000000e+00
  0.00000000e+00 -2.04914983e-06  3.38074392e-06  4.62261157e-05
  0.00000000e+00  0.00000000e+00  0.00000000e+00 -9.34986018e-07
  0.00000000e+00  0.00000000e+00  0.00000000e+00  0.00000000e+00
  0.00000000e+00  0.00000000e+00  0.00000000e+00  0.00000000e+00
  0.00000000e+00  0.00000000e+00  0.00000000e+00  0.00000000e+00
  0.00000000e+00  0.00000000e+00  0.00000000e+00  0.00000000e+00
  0.00000000e+00  0.00000000e+00 -2.04914983e-06 -9.34986018e-07
  0.00000000e+00  0.00000000e+00  0.00000000e+00  3.39989424e-06]","[[-0.00014315  0.03748301]
 [-0.00115834  0.00237687]]",[],0.0,0.0
1787581803.4554498,1.0182876660062765,-0.42854317512588863,1.9474152059099454,"[ 5.03902448e-05  3.38074392e-06  0.00000000e+00  0.00000000e+00
  0.00000000e+00 -2.04914983e-06  3.38074392e-06  4.62261157e-05
  0.00000000e+00  0.00000000e+00  0.00000000e+00 -9.34986018e-07
  0.00000000e+00  0.00000000e+00  0.00000000e+00  0.00000000e+00
  0.00000000e+00  0.00000000e+00  0.00000000e+00  0.00000000e+00
  0.00000000e+00  0.00000000e+00  0.00000000e+00  0.00000000e+00
  0.00000000e+00  0.00000000e+00  0.00000000e+00  0.00000000e+00
  0.00000000e+00  0.00000000e+00 -2.04914983e-06 -9.34986018e-07
  0.00000000e+00  0.00000000e+00  0.00000000e+00  3.39989424e-06]","[[-0.00014315  0.03748301]
 [-0.00115834  0.00237687]]",[],0.0,0.0
1787581803.5043192,1.0182876660062765,-0.42854317512588863,1.9474152059099454,"[ 5.03902448e-05  3.38074392e-06  0.00000000e+00  0.00000000e+00
  0.00000000e+00 -2.04914983e-06  3.38074392e-06  4.62261157e-05
  0.00000000e+00  0.00000000e+00  0.00000000e+00 -9.34986018e-07
  0.00000000e+00  0.00000000e+00  0.00000000e+00  0.00000000e+00
  0.00000000e+00  0.00000000e+00  0.00000000e+00  0.00000000e+00
  0.00000000e+00  0.00000000e+00  0.00000000e+00  0.00000000e+00
  0.00000000e+00  0.00000000e+00  0.00000000e+00  0.00000000e+00
  0.00000000e+00  0.00000000e+00 -2.04914983e-06 -9.34986018e-07
  0.00000000e+00  0.00000000e+00  0.00000000e+00  3.39989424e-06]","[[-0.00014315  0.03748301]
 [-0.00115834  0.00237687]]",[],0.0,0.0
1787581803.5536363,1.0182876660062765,-0.42854317512588863,1.9474152059099454,"[ 5.03902448e-05  3.38074392e-06  0.00000000e+00  0.00000000e+00
  0.00000000e+00 -2.04914983e-06  3.38074392e-06  4.62261157e-05
  0.00000000e+00  0.00000000e+00  0.00000000e+00 -9.34986018e-07
  0.00000000e+00  0.00000000e+00  0.00000000e+00  0.00000000e+00
  0.00000000e+00  0.00000000e+00  0.00000000e+00  0.00000000e+00
  0.00000000e+00  0.00000000e+00  0.00000000e+00  0.00000000e+00
  0.00000000e+00  0.00000000e+00  0.00000000e+00  0.00000000e+00
  0.00000000e+00  0.00000000e+00 -2.04914983e-06 -9.34986018e-07
  0.00000000e+00  0.00000000e+00  0.00000000e+00  3.39989424e-06]","[[-0.00014315  0.03748301]
 [-0.00115834  0.00237687]]",[],0.0,0.0
1787581803.6030405,1.0182876660062765,-0.42854317512588863,1.9474152059099454,"[ 5.03902448e-05  3.38074392e-06  0.00000000e+00  0.00000000e+00
  0.00000000e+00 -2.04914983e-06  3.38074392e-06  4.62261157e-05
  0.00000000e+00  0.00000000e+00  0.00000000e+00 -9.34986018e-07
  0.00000000e+00  0.00000000e+00  0.00000000e+00  0.00000000e+00
  0.00000000e+00  0.00000000e+00  0.00000000e+00  0.00000000e+00
  0.00000000e+00  0.00000000e+00  0.00000000e+00  0.00000000e+00
  0.00000000e+00  0.00000000e+00  0.00000000e+00  0.00000000e+00
  0.00000000e+00  0.00000000e+00 -2.04914983e-06 -9.34986018e-07
  0.00000000e+00  0.00000000e+00  0.00000000e+00  3.39989424e-06]","[[-0.00014315  0.03748301]
 [-0.00115834  0.00237687]]",[],0.0,0.0
1787581803.6725183,1.0182876660062765,-0.42854317512588863,1.9474152059099454,"[ 5.03902448e-05  3.38074392e-06  0.00000000e+00  0.00000000e+00
  0.00000000e+00 -2.04914983e-06  3.38074392e-06  4.62261157e-05
  0.00000000e+00  0.00000000e+00  0.00000000e+00 -9.34986018e-07
  0.00000000e+00  0.00000000e+00  0.00000000e+00  0.00000000e+00
  0.00000000e+00  0.00000000e+00  0.00000000e+00  0.00000000e+00
  0.00000000e+00  0.00000000e+00  0.00000000e+00  0.00000000e+00
  0.00000000e+00  0.00000000e+00  0.00000000e+00  0.00000000e+00
  0.00000000e+00  0.00000000e+00 -2.04914983e-06 -9.34986018e-07
  0.00000000e+00  0.00000000e+00  0.00000000e+00  3.39989424e-06]","[[-0.00014315  0.03748301]
 [-0.00115834  0.00237687]]",[],0.0,0.0
1787581803.7025082,1.0182876660062765,-0.42854317512588863,1.9474152059099454,"[ 5.03902448e-05  3.38074392e-06  0.00000000e+00  0.00000000e+00
  0.00000000e+00 -2.04914983e-06  3.38074392e-06  4.62261157e-05
  0.00000000e+00  0.00000000e+00  0.00000000e+00 -9.34986018e-07
  0.00000000e+00  0.00000000e+00  0.00000000e+00  0.00000000e+00
  0.00000000e+00  0.00000000e+00  0.00000000e+00  0.00000000e+00
  0.00000000e+00  0.00000000e+00  0.00000000e+00  0.00000000e+00
  0.00000000e+00  0.00000000e+00  0.00000000e+00  0.00000000e+00
  0.00000000e+00  0.00000000e+00 -2.04914983e-06 -9.34986018e-07
  0.00000000e+00  0.00000000e+00  0.00000000e+00  3.39989424e-06]","[[-0.00014315  0.03748301]
 [-0.00115834  0.00237687]]",[],0.0,0.0
1787581803.7627678,1.0182876660062765,-0.42854317512588863,1.9474152059099454,"[ 5.03902448e-05  3.38074392e-06  0.00000000e+00  0.00000000e+00
  0.00000000e+00 -2.04914983e-06  3.38074392e-06  4.62261157e-05
  0.00000000e+00  0.00000000e+00  0.00000000e+00 -9.34986018e-07
  0.00000000e+00  0.00000000e+00  0.00000000e+00  0.00000000e+00
  0.00000000e+00  0.00000000e+00  0.00000000e+00  0.00000000e+00
  0.00000000e+00  0.00000000e+00  0.00000000e+00  0.00000000e+00
  0.00000000e+00  0.00000000e+00  0.00000000e+00  0.00000000e+00
  0.00000000e+00  0.00000000e+00 -2.04914983e-06 -9.34986018e-07
  0.00000000e+00  0.00000000e+00  0.00000000e+00  3.39989424e-06]","[[-0.00014315  0.03748301]
 [-0.00115834  0.00237687]]",[],0.0,0.0
1787581803.8153129,1.0182876660062765,-0.42854317512588863,1.9474152059099454,"[ 5.03902448e-05  3.38074392e-06  0.00000000e+00  0.00000000e+00
  0.00000000e+00 -2.04914983e-06  3.38074392e-06  4.62261157e-05
  0.00000000e+00  0.00000000e+00  0.00000000e+00 -9.34986018e-07
  0.00000000e+00  0.00000000e+00  0.00000000e+00  0.00000000e+00
  0.00000000e+00  0.00000000e+00  0.00000000e+00  0.00000000e+00
  0.00000000e+00  0.00000000e+00  0.00000000e+00  0.00000000e+00
  0.00000000e+00  0.00000000e+00  0.00000000e+00  0.00000000e+00
  0.00000000e+00  0.00000000e+00 -2.04914983e-06 -9.34986018e-07
  0.00000000e+00  0.00000000e+00  0.00000000e+00  3.39989424e-06]","[[-0.00014315  0.03748301]
 [-0.00115834  0.00237687]]",[],0.0,0.0
1787581803.8556154,1.0182876660062765,-0.42854317512588863,1.9474152059099454,"[ 5.03902448e-05  3.38074392e-06  0.00000000e+00  0.00000000e+00
  0.00000000e+00 -2.04914983e-06  3.38074392e-06  4.62261157e-05
  0.00000000e+00  0.00000000e+00  0.00000000e+00 -9.34986018e-07
  0.00000000e+00  0.00000000e+00  0.00000000e+00  0.00000000e+00
  0.00000000e+00  0.00000000e+00  0.00000000e+00  0.00000000e+00
  0.00000000e+00  0.00000000e+00  0.00000000e+00  0.00000000e+00
  0.00000000e+00  0.00000000e+00  0.00000000e+00  0.00000000e+00
  0.00000000e+00  0.00000000e+00 -2.04914983e-06 -9.34986018e-07
  0.00000000e+00  0.00000000e+00  0.00000000e+00  3.39989424e-06]","[[-0.00014315  0.03748301]
 [-0.00115834  0.00237687]]",[],0.0,0.0
1787581803.9095218,1.0182876660062765,-0.42854317512588863,1.9474152059099454,"[ 5.03902448e-05  3.38074392e-06  0.00000000e+00  0.00000000e+00
  0.00000000e+00 -2.04914983e-06  3.38074392e-06  4.62261157e-05
  0.00000000e+00  0.00000000e+00  0.00000000e+00 -9.34986018e-07
  0.00000000e+00  0.00000000e+00  0.00000000e+00  0.00000000e+00
  0.00000000e+00  0.00000000e+00  0.00000000e+00  0.00000000e+00
  0.00000000e+00  0.00000000e+00  0.00000000e+00  0.00000000e+00
  0.00000000e+00  0.00000000e+00  0.00000000e+00  0.00000000e+00
  0.00000000e+00  0.00000000e+00 -2.04914983e-06 -9.34986018e-07
  0.00000000e+00  0.00000000e+00  0.00000000e+00  3.39989424e-06]","[[-0.00014315  0.03748301]
 [-0.00115834  0.00237687]]",[],0.0,0.0
1787581803.9531446,1.0182876660062765,-0.42854317512588863,1.9474152059099454,"[ 5.03902448e-05  3.38074392e-06  0.00000000e+00  0.00000000e+00
  0.00000000e+00 -2.04914983e-06  3.38074392e-06  4.62261157e-05
  0.00000000e+00  0.00000000e+00  0.00000000e+00 -9.34986018e-07
  0.00000000e+00  0.00000000e+00  0.00000000e+00  0.00000000e+00
  0.00000000e+00  0.00000000e+00  0.00000000e+00  0.00000000e+00
  0.00000000e+00  0.00000000e+00  0.00000000e+00  0.00000000e+00
  0.00000000e+00  0.00000000e+00  0.00000000e+00  0.00000000e+00
  0.00000000e+00  0.00000000e+00 -2.04914983e-06 -9.34986018e-07
  0.00000000e+00  0.00000000e+00  0.00000000e+00  3.39989424e-06]","[[-0.00014315  0.03748301]
 [-0.00115834  0.00237687]]",[],0.0,0.0
1787581804.0025814,1.0182876660062765,-0.42854317512588863,1.9474152059099454,"[ 5.03902448e-05  3.38074392e-06  0.00000000e+00  0.00000000e+00
  0.00000000e+00 -2.04914983e-06  3.38074392e-06  4.62261157e-05
  0.00000000e+00  0.00000000e+00  0.00000000e+00 -9.34986018e-07
  0.00000000e+00  0.00000000e+00  0.00000000e+00  0.00000000e+00
  0.00000000e+00  0.00000000e+00  0.00000000e+00  0.00000000e+00
  0.00000000e+00  0.00000000e+00  0.00000000e+00  0.00000000e+00
  0.00000000e+00  0.00000000e+00  0.00000000e+00  0.00000000e+00
  0.00000000e+00  0.00000000e+00 -2.04914983e-06 -9.34986018e-07
  0.00000000e+00  0.00000000e+00  0.00000000e+00  3.39989424e-06]","[[-0.00014315  0.03748301]
 [-0.00115834  0.00237687]]",[],0.0,0.0
1787581804.0527732,1.0182876660062765,-0.42854317512588863,1.9474152059099454,"[ 5.03902448e-05  3.38074392e-06  0.00000000e+00  0.00000000e+00
  0.00000000e+00 -2.04914983e-06  3.38074392e-06  4.62261157e-05
  0.00000000e+00  0.00000000e+00  0.00000000e+00 -9.34986018e-07
  0.00000000e+00  0.00000000e+00  0.00000000e+00  0.00000000e+00
  0.00000000e+00  0.00000000e+00  0.00000000e+00  0.00000000e+00
  0.00000000e+00  0.00000000e+00  0.00000000e+00  0.00000000e+00
  0.00000000e+00  0.00000000e+00  0.00000000e+00  0.00000000e+00
  0.00000000e+00  0.00000000e+00 -2.04914983e-06 -9.34986018e-07
  0.00000000e+00  0.00000000e+00  0.00000000e+00  3.39989424e-06]","[[-0.00014315  0.03748301]
 [-0.00115834  0.00237687]]",[],0.0,0.0
1787581804.105354,1.0182876660062765,-0.42854317512588863,1.9474152059099454,"[ 5.03902448e-05  3.38074392e-06  0.00000000e+00  0.00000000e+00
  0.00000000e+00 -2.04914983e-06  3.38074392e-06  4.62261157e-05
  0.00000000e+00  0.00000000e+00  0.00000000e+00 -9.34986018e-07
  0.00000000e+00  0.00000000e+00  0.00000000e+00  0.00000000e+00
  0.00000000e+00  0.00000000e+00  0.00000000e+00  0.00000000e+00
  0.00000000e+00  0.00000000e+00  0.00000000e+00  0.00000000e+00
  0.00000000e+00  0.00000000e+00  0.00000000e+00  0.00000000e+00
  0.00000000e+00  0.00000000e+00 -2.04914983e-06 -9.34986018e-07
  0.00000000e+00  0.00000000e+00  0.00000000e+00  3.39989424e-06]","[[-0.00014315  0.03748301]
 [-0.00115834  0.00237687]]",[],0.0,0.0
1787581804.157565,1.0182876660062765,-0.42854317512588863,1.9474152059099454,"[ 5.03902448e-05  3.38074392e-06  0.00000000e+00  0.00000000e+00
  0.00000000e+00 -2.04914983e-06  3.38074392e-06  4.62261157e-05
  0.00000000e+00  0.00000000e+00  0.00000000e+00 -9.34986018e-07
  0.00000000e+00  0.00000000e+00  0.00000000e+00  0.00000000e+00
  0.00000000e+00  0.00000000e+00  0.00000000e+00  0.00000000e+00
  0.00000000e+00  0.00000000e+00  0.00000000e+00  0.00000000e+00
  0.00000000e+00  0.00000000e+00  0.00000000e+00  0.00000000e+00
  0.00000000e+00  0.00000000e+00 -2.04914983e-06 -9.34986018e-07
  0.00000000e+00  0.00000000e+00  0.00000000e+00  3.39989424e-06]","[[-0.00014315  0.03748301]
 [-0.00115834  0.00237687]]",[],0.0,0.0
1787581804.2056494,1.0182876660062765,-0.42854317512588863,1.9474152059099454,"[ 5.03902448e-05  3.38074392e-06  0.00000000e+00  0.00000000e+00
  0.00000000e+00 -2.04914983e-06  3.38074392e-06  4.62261157e-05
  0.00000000e+00  0.00000000e+00  0.00000000e+00 -9.34986018e-07
  0.00000000e+00  0.00000000e+00  0.00000000e+00  0.00000000e+00
  0.00000000e+00  0.00000000e+00  0.00000000e+00  0.00000000e+00
  0.00000000e+00  0.00000000e+00  0.00000000e+00  0.00000000e+00
  0.00000000e+00  0.00000000e+00  0.00000000e+00  0.00000000e+00
  0.00000000e+00  0.00000000e+00 -2.04914983e-06 -9.34986018e-07
  0.00000000e+00  0.00000000e+00  0.00000000e+00  3.39989424e-06]","[[-0.00014315  0.03748301]
 [-0.00115834  0.00237687]]",[],0.0,0.0
1787581804.2523835,1.024593830994396,-0.41567412515298874,1.9409725494829608,"[ 2.45990010e-05  1.32970535e-06  0.00000000e+00  0.00000000e+00
  0.00000000e+00 -6.91857764e-07  1.32970535e-06  2.40352399e-05
  0.00000000e+00  0.00000000e+00  0.00000000e+00 -6.16332398e-07
  0.00000000e+00  0.00000000e+00  0.00000000e+00  0.00000000e+00
  0.00000000e+00  0.00000000e+00  0.00000000e+00  0.00000000e+00
  0.00000000e+00  0.00000000e+00  0.00000000e+00  0.00000000e+00
  0.00000000e+00  0.00000000e+00  0.00000000e+00  0.00000000e+00
  0.00000000e+00  0.00000000e+00 -6.91857764e-07 -6.16332398e-07
  0.00000000e+00  0.00000000e+00  0.00000000e+00  3.02388516e-06]","[[ 0.000154   0.0142476]
 [-0.0005628  0.0057027]]",[],0.0,0.0
1787581804.3035684,1.024593830994396,-0.41567412515298874,1.9409725494829608,"[ 2.45990010e-05  1.32970535e-06  0.00000000e+00  0.00000000e+00
  0.00000000e+00 -6.91857764e-07  1.32970535e-06  2.40352399e-05
  0.00000000e+00  0.00000000e+00  0.00000000e+00 -6.16332398e-07
  0.00000000e+00  0.00000000e+00  0.00000000e+00  0.00000000e+00
  0.00000000e+00  0.00000000e+00  0.00000000e+00  0.00000000e+00
  0.00000000e+00  0.00000000e+00  0.00000000e+00  0.00000000e+00
  0.00000000e+00  0.00000000e+00  0.00000000e+00  0.00000000e+00
  0.00000000e+00  0.00000000e+00 -6.91857764e-07 -6.16332398e-07
  0.00000000e+00  0.00000000e+00  0.00000000e+00  3.02388516e-06]","[[ 0.000154   0.0142476]
 [-0.0005628  0.0057027]]",[],0.0,0.0
1787581804.3550565,1.024593830994396,-0.41567412515298874,1.9409725494829608,"[ 2.45990010e-05  1.32970535e-06  0.00000000e+00  0.00000000e+00
  0.00000000e+00 -6.91857764e-07  1.32970535e-06  2.40352399e-05
  0.00000000e+00  0.00000000e+00  0.00000000e+00 -6.16332398e-07
  0.00000000e+00  0.00000000e+00  0.00000000e+00  0.00000000e+00
  0.00000000e+00  0.00000000e+00  0.00000000e+00  0.00000000e+00
  0.00000000e+00  0.00000000e+00  0.00000000e+00  0.00000000e+00
  0.00000000e+00  0.00000000e+00  0.00000000e+00  0.00000000e+00
  0.00000000e+00  0.00000000e+00 -6.91857764e-07 -6.16332398e-07
  0.00000000e+00  0.00000000e+00  0.00000000e+00  3.02388516e-06]","[[ 0.000154   0.0142476]
 [-0.0005628  0.0057027]]",[],0.0,0.0
1787581804.403214,1.024593830994396,-0.41567412515298874,1.9409725494829608,"[ 2.45990010e-05  1.32970535e-06  0.00000000e+00  0.00000000e+00
  0.00000000e+00 -6.91857764e-07  1.32970535e-06  2.40352399e-05
  0.00000000e+00  0.00000000e+00  0.00000000e+00 -6.16332398e-07
  0.00000000e+00  0.00000000e+00  0.00000000e+00  0.00000000e+00
  0.00000000e+00  0.00000000e+00  0.00000000e+00  0.00000000e+00
  0.00000000e+00  0.00000000e+00  0.00000000e+00  0.00000000e+00
  0.00000000e+00  0.00000000e+00  0.00000000e+00  0.00000000e+00
  0.00000000e+00  0.00000000e+00 -6.91857764e-07 -6.16332398e-07
  0.00000000e+00  0.00000000e+00  0.00000000e+00  3.02388516e-06]","[[ 0.000154   0.0142476]
 [-0.0005628  0.0057027]]",[],0.0,0.0
1787581804.4618728,1.024593830994396,-0.41567412515298874,1.9409725494829608,"[ 2.45990010e-05  1.32970535e-06  0.00000000e+00  0.00000000e+00
  0.00000000e+00 -6.91857764e-07  1.32970535e-06  2.40352399e-05
  0.00000000e+00  0.00000000e+00  0.00000000e+00 -6.16332398e-07
  0.00000000e+00  0.00000000e+00  0.00000000e+00  0.00000000e+00
  0.00000000e+00  0.00000000e+00  0.00000000e+00  0.00000000e+00
  0.00000000e+00  0.00000000e+00  0.00000000e+00  0.00000000e+00
  0.00000000e+00  0.00000000e+00  0.00000000e+00  0.00000000e+00
  0.00000000e+00  0.00000000e+00 -6.91857764e-07 -6.16332398e-07
  0.00000000e+00  0.00000000e+00  0.00000000e+00  3.02388516e-06]","[[ 0.000154   0.0142476]
 [-0.0005628  0.0057027]]",[],0.0,0.0
1787581804.508261,1.024593830994396,-0.41567412515298874,1.9409725494829608,"[ 2.45990010e-05  1.32970535e-06  0.00000000e+00  0.00000000e+00
  0.00000000e+00 -6.91857764e-07  1.32970535e-06  2.40352399e-05
  0.00000000e+00  0.00000000e+00  0.00000000e+00 -6.16332398e-07
  0.00000000e+00  0.00000000e+00  0.00000000e+00  0.00000000e+00
  0.00000000e+00  0.00000000e+00  0.00000000e+00  0.00000000e+00
  0.00000000e+00  0.00000000e+00  0.00000000e+00  0.00000000e+00
  0.00000000e+00  0.00000000e+00  0.00000000e+00  0.00000000e+00
  0.00000000e+00  0.00000000e+00 -6.91857764e-07 -6.16332398e-07
  0.00000000e+00  0.00000000e+00  0.00000000e+00  3.02388516e-06]","[[ 0.000154   0.0142476]
 [-0.0005628  0.0057027]]",[],0.0,0.0
1787581804.5559475,1.024593830994396,-0.41567412515298874,1.9409725494829608,"[ 2.45990010e-05  1.32970535e-06  0.00000000e+00  0.00000000e+00
  0.00000000e+00 -6.91857764e-07  1.32970535e-06  2.40352399e-05
  0.00000000e+00  0.00000000e+00  0.00000000e+00 -6.16332398e-07
  0.00000000e+00  0.00000000e+00  0.00000000e+00  0.00000000e+00
  0.00000000e+00  0.00000000e+00  0.00000000e+00  0.00000000e+00
  0.00000000e+00  0.00000000e+00  0.00000000e+00  0.00000000e+00
  0.00000000e+00  0.00000000e+00  0.00000000e+00  0.00000000e+00
  0.00000000e+00  0.00000000e+00 -6.91857764e-07 -6.16332398e-07
  0.00000000e+00  0.00000000e+00  0.00000000e+00  3.02388516e-06]","[[ 0.000154   0.0142476]
 [-0.0005628  0.0057027]]",[],0.0,0.0
1787581804.6025598,1.024593830994396,-0.41567412515298874,1.9409725494829608,"[ 2.45990010e-05  1.32970535e-06  0.00000000e+00  0.00000000e+00
  0.00000000e+00 -6.91857764e-07  1.32970535e-06  2.40352399e-05
  0.00000000e+00  0.00000000e+00  0.00000000e+00 -6.16332398e-07
  0.00000000e+00  0.00000000e+00  0.00000000e+00  0.00000000e+00
  0.00000000e+00  0.00000000e+00  0.00000000e+00  0.00000000e+00
  0.00000000e+00  0.00000000e+00  0.00000000e+00  0.00000000e+00
  0.00000000e+00  0.00000000e+00  0.00000000e+00  0.00000000e+00
  0.00000000e+00  0.00000000e+00 -6.91857764e-07 -6.16332398e-07
  0.00000000e+00  0.00000000e+00  0.00000000e+00  3.02388516e-06]","[[ 0.000154   0.0142476]
 [-0.0005628  0.0057027]]",[],0.0,0.0
1787581804.6546228,1.024593830994396,-0.41567412515298874,1.9409725494829608,"[ 2.45990010e-05  1.32970535e-06  0.00000000e+00  0.00000000e+00
  0.00000000e+00 -6.91857764e-07  1.32970535e-06  2.40352399e-05
  0.00000000e+00  0.00000000e+00  0.00000000e+00 -6.16332398e-07
  0.00000000e+00  0.00000000e+00  0.00000000e+00  0.00000000e+00
  0.00000000e+00  0.00000000e+00  0.00000000e+00  0.00000000e+00
  0.00000000e+00  0.00000000e+00  0.00000000e+00  0.00000000e+00
  0.00000000e+00  0.00000000e+00  0.00000000e+00  0.00000000e+00
  0.00000000e+00  0.00000000e+00 -6.91857764e-07 -6.16332398e-07
  0.00000000e+00  0.00000000e+00  0.00000000e+00  3.02388516e-06]","[[ 0.000154   0.0142476]
 [-0.0005628  0.0057027]]",[],0.0,0.0
1787581804.7027612,1.024593830994396,-0.41567412515298874,1.9409725494829608,"[ 2.45990010e-05  1.32970535e-06  0.00000000e+00  0.00000000e+00
  0.00000000e+00 -6.91857764e-07  1.32970535e-06  2.40352399e-05
  0.00000000e+00  0.00000000e+00  0.00000000e+00 -6.16332398e-07
  0.00000000e+00  0.00000000e+00  0.00000000e+00  0.00000000e+00
  0.00000000e+00  0.00000000e+00  0.00000000e+00  0.00000000e+00
  0.00000000e+00  0.00000000e+00  0.00000000e+00  0.00000000e+00
  0.00000000e+00  0.00000000e+00  0.00000000e+00  0.00000000e+00
  0.00000000e+00  0.00000000e+00 -6.91857764e-07 -6.16332398e-07
  0.00000000e+00  0.00000000e+00  0.00000000e+00  3.02388516e-06]","[[ 0.000154   0.0142476]
 [-0.0005628  0.0057027]]",[],0.0,0.0
1787581804.7522416,1.024593830994396,-0.41567412515298874,1.9409725494829608,"[ 2.45990010e-05  1.32970535e-06  0.00000000e+00  0.00000000e+00
  0.00000000e+00 -6.91857764e-07  1.32970535e-06  2.40352399e-05
  0.00000000e+00  0.00000000e+00  0.00000000e+00 -6.16332398e-07
  0.00000000e+00  0.00000000e+00  0.00000000e+00  0.00000000e+00
  0.00000000e+00  0.00000000e+00  0.00000000e+00  0.00000000e+00
  0.00000000e+00  0.00000000e+00  0.00000000e+00  0.00000000e+00
  0.00000000e+00  0.00000000e+00  0.00000000e+00  0.00000000e+00
  0.00000000e+00  0.00000000e+00 -6.91857764e-07 -6.16332398e-07
  0.00000000e+00  0.00000000e+00  0.00000000e+00  3.02388516e-06]","[[ 0.000154   0.0142476]
 [-0.0005628  0.0057027]]",[],0.0,0.0
1787581804.8028836,1.024593830994396,-0.41567412515298874,1.9409725494829608,"[ 2.45990010e-05  1.32970535e-06  0.00000000e+00  0.00000000e+00
  0.00000000e+00 -6.91857764e-07  1.32970535e-06  2.40352399e-05
  0.00000000e+00  0.00000000e+00  0.00000000e+00 -6.16332398e-07
  0.00000000e+00  0.00000000e+00  0.00000000e+00  0.00000000e+00
  0.00000000e+00  0.00000000e+00  0.00000000e+00  0.00000000e+00
  0.00000000e+00  0.00000000e+00  0.00000000e+00  0.00000000e+00
  0.00000000e+00  0.00000000e+00  0.00000000e+00  0.00000000e+00
  0.00000000e+00  0.00000000e+00 -6.91857764e-07 -6.16332398e-07
  0.00000000e+00  0.00000000e+00  0.00000000e+00  3.02388516e-06]","[[ 0.000154   0.0142476]
 [-0.0005628  0.0057027]]",[],0.0,0.0
1787581804.8545723,1.024593830994396,-0.41567412515298874,1.9409725494829608,"[ 2.45990010e-05  1.32970535e-06  0.00000000e+00  0.00000000e+00
  0.00000000e+00 -6.91857764e-07  1.32970535e-06  2.40352399e-05
  0.00000000e+00  0.00000000e+00  0.00000000e+00 -6.16332398e-07
  0.00000000e+00  0.00000000e+00  0.00000000e+00  0.00000000e+00
  0.00000000e+00  0.00000000e+00  0.00000000e+00  0.00000000e+00
  0.00000000e+00  0.00000000e+00  0.00000000e+00  0.00000000e+00
  0.00000000e+00  0.00000000e+00  0.00000000e+00  0.00000000e+00
  0.00000000e+00  0.00000000e+00 -6.91857764e-07 -6.16332398e-07
  0.00000000e+00  0.00000000e+00  0.00000000e+00  3.02388516e-06]","[[ 0.000154   0.0142476]
 [-0.0005628  0.0057027]]",[],0.0,0.0
1787581804.9036024,1.024593830994396,-0.41567412515298874,1.9409725494829608,"[ 2.45990010e-05  1.32970535e-06  0.00000000e+00  0.00000000e+00
  0.00000000e+00 -6.91857764e-07  1.32970535e-06  2.40352399e-05
  0.00000000e+00  0.00000000e+00  0.00000000e+00 -6.16332398e-07
  0.00000000e+00  0.00000000e+00  0.00000000e+00  0.00000000e+00
  0.00000000e+00  0.00000000e+00  0.00000000e+00  0.00000000e+00
  0.00000000e+00  0.00000000e+00  0.00000000e+00  0.00000000e+00
  0.00000000e+00  0.00000000e+00  0.00000000e+00  0.00000000e+00
  0.00000000e+00  0.00000000e+00 -6.91857764e-07 -6.16332398e-07
  0.00000000e+00  0.00000000e+00  0.00000000e+00  3.02388516e-06]","[[ 0.000154   0.0142476]
 [-0.0005628  0.0057027]]",[],0.0,0.0
1787581804.9524834,1.024593830994396,-0.41567412515298874,1.9409725494829608,"[ 2.45990010e-05  1.32970535e-06  0.00000000e+00  0.00000000e+00
  0.00000000e+00 -6.91857764e-07  1.32970535e-06  2.40352399e-05
  0.00000000e+00  0.00000000e+00  0.00000000e+00 -6.16332398e-07
  0.00000000e+00  0.00000000e+00  0.00000000e+00  0.00000000e+00
  0.00000000e+00  0.00000000e+00  0.00000000e+00  0.00000000e+00
  0.00000000e+00  0.00000000e+00  0.00000000e+00  0.00000000e+00
  0.00000000e+00  0.00000000e+00  0.00000000e+00  0.00000000e+00
  0.00000000e+00  0.00000000e+00 -6.91857764e-07 -6.16332398e-07
  0.00000000e+00  0.00000000e+00  0.00000000e+00  3.02388516e-06]","[[ 0.000154   0.0142476]
 [-0.0005628  0.0057027]]",[],0.0,0.0
1787581805.0090508,1.024593830994396,-0.41567412515298874,1.9409725494829608,"[ 2.45990010e-05  1.32970535e-06  0.00000000e+00  0.00000000e+00
  0.00000000e+00 -6.91857764e-07  1.32970535e-06  2.40352399e-05
  0.00000000e+00  0.00000000e+00  0.00000000e+00 -6.16332398e-07
  0.00000000e+00  0.00000000e+00  0.00000000e+00  0.00000000e+00
  0.00000000e+00  0.00000000e+00  0.00000000e+00  0.00000000e+00
  0.00000000e+00  0.00000000e+00  0.00000000e+00  0.00000000e+00
  0.00000000e+00  0.00000000e+00  0.00000000e+00  0.00000000e+00
  0.00000000e+00  0.00000000e+00 -6.91857764e-07 -6.16332398e-07
  0.00000000e+00  0.00000000e+00  0.00000000e+00  3.02388516e-06]","[[ 0.000154   0.0142476]
 [-0.0005628  0.0057027]]",[],0.0,0.0
1787581805.0576377,1.024593830994396,-0.41567412515298874,1.9409725494829608,"[ 2.45990010e-05  1.32970535e-06  0.00000000e+00  0.00000000e+00
  0.00000000e+00 -6.91857764e-07  1.32970535e-06  2.40352399e-05
  0.00000000e+00  0.00000000e+00  0.00000000e+00 -6.16332398e-07
  0.00000000e+00  0.00000000e+00  0.00000000e+00  0.00000000e+00
  0.00000000e+00  0.00000000e+00  0.00000000e+00  0.00000000e+00
  0.00000000e+00  0.00000000e+00  0.00000000e+00  0.00000000e+00
  0.00000000e+00  0.00000000e+00  0.00000000e+00  0.00000000e+00
  0.00000000e+00  0.00000000e+00 -6.91857764e-07 -6.16332398e-07
  0.00000000e+00  0.00000000e+00  0.00000000e+00  3.02388516e-06]","[[ 0.000154   0.0142476]
 [-0.0005628  0.0057027]]",[],0.0,0.0
1787581805.1035738,1.024593830994396,-0.41567412515298874,1.9409725494829608,"[ 2.45990010e-05  1.32970535e-06  0.00000000e+00  0.00000000e+00
  0.00000000e+00 -6.91857764e-07  1.32970535e-06  2.40352399e-05
  0.00000000e+00  0.00000000e+00  0.00000000e+00 -6.16332398e-07
  0.00000000e+00  0.00000000e+00  0.00000000e+00  0.00000000e+00
  0.00000000e+00  0.00000000e+00  0.00000000e+00  0.00000000e+00
  0.00000000e+00  0.00000000e+00  0.00000000e+00  0.00000000e+00
  0.00000000e+00  0.00000000e+00  0.00000000e+00  0.00000000e+00
  0.00000000e+00  0.00000000e+00 -6.91857764e-07 -6.16332398e-07
  0.00000000e+00  0.00000000e+00  0.00000000e+00  3.02388516e-06]","[[ 0.000154   0.0142476]
 [-0.0005628  0.0057027]]",[],0.0,0.0
1787581805.1544538,1.024593830994396,-0.41567412515298874,1.9409725494829608,"[ 2.45990010e-05  1.32970535e-06  0.00000000e+00  0.00000000e+00
  0.00000000e+00 -6.91857764e-07  1.32970535e-06  2.40352399e-05
  0.00000000e+00  0.00000000e+00  0.00000000e+00 -6.16332398e-07
  0.00000000e+00  0.00000000e+00  0.00000000e+00  0.00000000e+00
  0.00000000e+00  0.00000000e+00  0.00000000e+00  0.00000000e+00
  0.00000000e+00  0.00000000e+00  0.00000000e+00  0.00000000e+00
  0.00000000e+00  0.00000000e+00  0.00000000e+00  0.00000000e+00
  0.00000000e+00  0.00000000e+00 -6.91857764e-07 -6.16332398e-07
  0.00000000e+00  0.00000000e+00  0.00000000e+00  3.02388516e-06]","[[ 0.000154   0.0142476]
 [-0.0005628  0.0057027]]",[],0.0,0.0
1787581805.2017703,1.024593830994396,-0.41567412515298874,1.9409725494829608,"[ 2.45990010e-05  1.32970535e-06  0.00000000e+00  0.00000000e+00
  0.00000000e+00 -6.91857764e-07  1.32970535e-06  2.40352399e-05
  0.00000000e+00  0.00000000e+00  0.00000000e+00 -6.16332398e-07
  0.00000000e+00  0.00000000e+00  0.00000000e+00  0.00000000e+00
  0.00000000e+00  0.00000000e+00  0.00000000e+00  0.00000000e+00
  0.00000000e+00  0.00000000e+00  0.00000000e+00  0.00000000e+00
  0.00000000e+00  0.00000000e+00  0.00000000e+00  0.00000000e+00
  0.00000000e+00  0.00000000e+00 -6.91857764e-07 -6.16332398e-07
  0.00000000e+00  0.00000000e+00  0.00000000e+00  3.02388516e-06]","[[ 0.000154   0.0142476]
 [-0.0005628  0.0057027]]",[],0.0,0.0
1787581805.261733,1.024593830994396,-0.41567412515298874,1.9409725494829608,"[ 2.45990010e-05  1.32970535e-06  0.00000000e+00  0.00000000e+00
  0.00000000e+00 -6.91857764e-07  1.32970535e-06  2.40352399e-05
  0.00000000e+00  0.00000000e+00  0.00000000e+00 -6.16332398e-07
  0.00000000e+00  0.00000000e+00  0.00000000e+00  0.00000000e+00
  0.00000000e+00  0.00000000e+00  0.00000000e+00  0.00000000e+00
  0.00000000e+00  0.00000000e+00  0.00000000e+00  0.00000000e+00
  0.00000000e+00  0.00000000e+00  0.00000000e+00  0.00000000e+00
  0.00000000e+00  0.00000000e+00 -6.91857764e-07 -6.16332398e-07
  0.00000000e+00  0.00000000e+00  0.00000000e+00  3.02388516e-06]","[[ 0.000154   0.0142476]
 [-0.0005628  0.0057027]]",[],0.0,0.0
1787581805.301986,1.024593830994396,-0.41567412515298874,1.9409725494829608,"[ 2.45990010e-05  1.32970535e-06  0.00000000e+00  0.00000000e+00
  0.00000000e+00 -6.91857764e-07  1.32970535e-06  2.40352399e-05
  0.00000000e+00  0.00000000e+00  0.00000000e+00 -6.16332398e-07
  0.00000000e+00  0.00000000e+00  0.00000000e+00  0.00000000e+00
  0.00000000e+00  0.00000000e+00  0.00000000e+00  0.00000000e+00
  0.00000000e+00  0.00000000e+00  0.00000000e+00  0.00000000e+00
  0.00000000e+00  0.00000000e+00  0.00000000e+00  0.00000000e+00
  0.00000000e+00  0.00000000e+00 -6.91857764e-07 -6.16332398e-07
  0.00000000e+00  0.00000000e+00  0.00000000e+00  3.02388516e-06]","[[ 0.000154   0.0142476]
 [-0.0005628  0.0057027]]",[],0.0,0.0
1787581805.3537848,1.0287205840546327,-0.41144187312483427,1.9445264792906614,"[ 1.63584628e-05  7.57424255e-07  0.00000000e+00  0.00000000e+00
  0.00000000e+00 -5.16851661e-07  7.57424255e-07  1.62653403e-05
  0.00000000e+00  0.00000000e+00  0.00000000e+00 -2.99169539e-07
  0.00000000e+00  0.00000000e+00  0.00000000e+00  0.00000000e+00
  0.00000000e+00  0.00000000e+00  0.00000000e+00  0.00000000e+00
  0.00000000e+00  0.00000000e+00  0.00000000e+00  0.00000000e+00
  0.00000000e+00  0.00000000e+00  0.00000000e+00  0.00000000e+00
  0.00000000e+00  0.00000000e+00 -5.16851661e-07 -2.99169539e-07
  0.00000000e+00  0.00000000e+00  0.00000000e+00  2.98827197e-06]","[[ 0.00010674  0.00956983]
 [-0.00038147  0.00362799]]",[],0.0,0.0
1787581805.4042633,1.0287205840546327,-0.41144187312483427,1.9445264792906614,"[ 1.63584628e-05  7.57424255e-07  0.00000000e+00  0.00000000e+00
  0.00000000e+00 -5.16851661e-07  7.57424255e-07  1.62653403e-05
  0.00000000e+00  0.00000000e+00  0.00000000e+00 -2.99169539e-07
  0.00000000e+00  0.00000000e+00  0.00000000e+00  0.00000000e+00
  0.00000000e+00  0.00000000e+00  0.00000000e+00  0.00000000e+00
  0.00000000e+00  0.00000000e+00  0.00000000e+00  0.00000000e+00
  0.00000000e+00  0.00000000e+00  0.00000000e+00  0.00000000e+00
  0.00000000e+00  0.00000000e+00 -5.16851661e-07 -2.99169539e-07
  0.00000000e+00  0.00000000e+00  0.00000000e+00  2.98827197e-06]","[[ 0.00010674  0.00956983]
 [-0.00038147  0.00362799]]",[],0.0,0.0
1787581805.459418,1.0287205840546327,-0.41144187312483427,1.9445264792906614,"[ 1.63584628e-05  7.57424255e-07  0.00000000e+00  0.00000000e+00
  0.00000000e+00 -5.16851661e-07  7.57424255e-07  1.62653403e-05
  0.00000000e+00  0.00000000e+00  0.00000000e+00 -2.99169539e-07
  0.00000000e+00  0.00000000e+00  0.00000000e+00  0.00000000e+00
  0.00000000e+00  0.00000000e+00  0.00000000e+00  0.00000000e+00
  0.00000000e+00  0.00000000e+00  0.00000000e+00  0.00000000e+00
  0.00000000e+00  0.00000000e+00  0.00000000e+00  0.00000000e+00
  0.00000000e+00  0.00000000e+00 -5.16851661e-07 -2.99169539e-07
  0.00000000e+00  0.00000000e+00  0.00000000e+00  2.98827197e-06]","[[ 0.00010674  0.00956983]
 [-0.00038147  0.00362799]]",[],0.0,0.0
1787581805.507775,1.0287205840546327,-0.41144187312483427,1.9445264792906614,"[ 1.63584628e-05  7.57424255e-07  0.00000000e+00  0.00000000e+00
  0.00000000e+00 -5.16851661e-07  7.57424255e-07  1.62653403e-05
  0.00000000e+00  0.00000000e+00  0.00000000e+00 -2.99169539e-07
  0.00000000e+00  0.00000000e+00  0.00000000e+00  0.00000000e+00
  0.00000000e+00  0.00000000e+00  0.00000000e+00  0.00000000e+00
  0.00000000e+00  0.00000000e+00  0.00000000e+00  0.00000000e+00
  0.00000000e+00  0.00000000e+00  0.00000000e+00  0.00000000e+00
  0.00000000e+00  0.00000000e+00 -5.16851661e-07 -2.99169539e-07
  0.00000000e+00  0.00000000e+00  0.00000000e+00  2.98827197e-06]","[[ 0.00010674  0.00956983]
 [-0.00038147  0.00362799]]",[],0.0,0.0
1787581805.5631604,1.0287205840546327,-0.41144187312483427,1.9445264792906614,"[ 1.63584628e-05  7.57424255e-07  0.00000000e+00  0.00000000e+00
  0.00000000e+00 -5.16851661e-07  7.57424255e-07  1.62653403e-05
  0.00000000e+00  0.00000000e+00  0.00000000e+00 -2.99169539e-07
  0.00000000e+00  0.00000000e+00  0.00000000e+00  0.00000000e+00
  0.00000000e+00  0.00000000e+00  0.00000000e+00  0.00000000e+00
  0.00000000e+00  0.00000000e+00  0.00000000e+00  0.00000000e+00
  0.00000000e+00  0.00000000e+00  0.00000000e+00  0.00000000e+00
  0.00000000e+00  0.00000000e+00 -5.16851661e-07 -2.99169539e-07
  0.00000000e+00  0.00000000e+00  0.00000000e+00  2.98827197e-06]","[[ 0.00010674  0.00956983]
 [-0.00038147  0.00362799]]",[],0.0,0.0
1787581805.6029117,1.0287205840546327,-0.41144187312483427,1.9445264792906614,"[ 1.63584628e-05  7.57424255e-07  0.00000000e+00  0.00000000e+00
  0.00000000e+00 -5.16851661e-07  7.57424255e-07  1.62653403e-05
  0.00000000e+00  0.00000000e+00  0.00000000e+00 -2.99169539e-07
  0.00000000e+00  0.00000000e+00  0.00000000e+00  0.00000000e+00
  0.00000000e+00  0.00000000e+00  0.00000000e+00  0.00000000e+00
  0.00000000e+00  0.00000000e+00  0.00000000e+00  0.00000000e+00
  0.00000000e+00  0.00000000e+00  0.00000000e+00  0.00000000e+00
  0.00000000e+00  0.00000000e+00 -5.16851661e-07 -2.99169539e-07
  0.00000000e+00  0.00000000e+00  0.00000000e+00  2.98827197e-06]","[[ 0.00010674  0.00956983]
 [-0.00038147  0.00362799]]",[],0.0,0.0
1787581805.6527507,1.0287205840546327,-0.41144187312483427,1.9445264792906614,"[ 1.63584628e-05  7.57424255e-07  0.00000000e+00  0.00000000e+00
  0.00000000e+00 -5.16851661e-07  7.57424255e-07  1.62653403e-05
  0.00000000e+00  0.00000000e+00  0.00000000e+00 -2.99169539e-07
  0.00000000e+00  0.00000000e+00  0.00000000e+00  0.00000000e+00
  0.00000000e+00  0.00000000e+00  0.00000000e+00  0.00000000e+00
  0.00000000e+00  0.00000000e+00  0.00000000e+00  0.00000000e+00
  0.00000000e+00  0.00000000e+00  0.00000000e+00  0.00000000e+00
  0.00000000e+00  0.00000000e+00 -5.16851661e-07 -2.99169539e-07
  0.00000000e+00  0.00000000e+00  0.00000000e+00  2.98827197e-06]","[[ 0.00010674  0.00956983]
 [-0.00038147  0.00362799]]",[],0.0,0.0
1787581805.7070785,1.0287205840546327,-0.41144187312483427,1.9445264792906614,"[ 1.63584628e-05  7.57424255e-07  0.00000000e+00  0.00000000e+00
  0.00000000e+00 -5.16851661e-07  7.57424255e-07  1.62653403e-05
  0.00000000e+00  0.00000000e+00  0.00000000e+00 -2.99169539e-07
  0.00000000e+00  0.00000000e+00  0.00000000e+00  0.00000000e+00
  0.00000000e+00  0.00000000e+00  0.00000000e+00  0.00000000e+00
  0.00000000e+00  0.00000000e+00  0.00000000e+00  0.00000000e+00
  0.00000000e+00  0.00000000e+00  0.00000000e+00  0.00000000e+00
  0.00000000e+00  0.00000000e+00 -5.16851661e-07 -2.99169539e-07
  0.00000000e+00  0.00000000e+00  0.00000000e+00  2.98827197e-06]","[[ 0.00010674  0.00956983]
 [-0.00038147  0.00362799]]",[],0.0,0.0
1787581805.7534575,1.0287205840546327,-0.41144187312483427,1.9445264792906614,"[ 1.63584628e-05  7.57424255e-07  0.00000000e+00  0.00000000e+00
  0.00000000e+00 -5.16851661e-07  7.57424255e-07  1.62653403e-05
  0.00000000e+00  0.00000000e+00  0.00000000e+00 -2.99169539e-07
  0.00000000e+00  0.00000000e+00  0.00000000e+00  0.00000000e+00
  0.00000000e+00  0.00000000e+00  0.00000000e+00  0.00000000e+00
  0.00000000e+00  0.00000000e+00  0.00000000e+00  0.00000000e+00
  0.00000000e+00  0.00000000e+00  0.00000000e+00  0.00000000e+00
  0.00000000e+00  0.00000000e+00 -5.16851661e-07 -2.99169539e-07
  0.00000000e+00  0.00000000e+00  0.00000000e+00  2.98827197e-06]","[[ 0.00010674  0.00956983]
 [-0.00038147  0.00362799]]",[],0.0,0.0
1787581805.815155,1.0287205840546327,-0.41144187312483427,1.9445264792906614,"[ 1.63584628e-05  7.57424255e-07  0.00000000e+00  0.00000000e+00
  0.00000000e+00 -5.16851661e-07  7.57424255e-07  1.62653403e-05
  0.00000000e+00  0.00000000e+00  0.00000000e+00 -2.99169539e-07
  0.00000000e+00  0.00000000e+00  0.00000000e+00  0.00000000e+00
  0.00000000e+00  0.00000000e+00  0.00000000e+00  0.00000000e+00
  0.00000000e+00  0.00000000e+00  0.00000000e+00  0.00000000e+00
  0.00000000e+00  0.00000000e+00  0.00000000e+00  0.00000000e+00
  0.00000000e+00  0.00000000e+00 -5.16851661e-07 -2.99169539e-07
  0.00000000e+00  0.00000000e+00  0.00000000e+00  2.98827197e-06]","[[ 0.00010674  0.00956983]
 [-0.00038147  0.00362799]]",[],0.0,0.0
1787581805.8521755,1.0287205840546327,-0.41144187312483427,1.9445264792906614,"[ 1.63584628e-05  7.57424255e-07  0.00000000e+00  0.00000000e+00
  0.00000000e+00 -5.16851661e-07  7.57424255e-07  1.62653403e-05
  0.00000000e+00  0.00000000e+00  0.00000000e+00 -2.99169539e-07
  0.00000000e+00  0.00000000e+00  0.00000000e+00  0.00000000e+00
  0.00000000e+00  0.00000000e+00  0.00000000e+00  0.00000000e+00
  0.00000000e+00  0.00000000e+00  0.00000000e+00  0.00000000e+00
  0.00000000e+00  0.00000000e+00  0.00000000e+00  0.00000000e+00
  0.00000000e+00  0.00000000e+00 -5.16851661e-07 -2.99169539e-07
  0.00000000e+00  0.00000000e+00  0.00000000e+00  2.98827197e-06]","[[ 0.00010674  0.00956983]
 [-0.00038147  0.00362799]]",[],0.0,0.0
1787581805.9040482,1.0287205840546327,-0.41144187312483427,1.9445264792906614,"[ 1.63584628e-05  7.57424255e-07  0.00000000e+00  0.00000000e+00
  0.00000000e+00 -5.16851661e-07  7.57424255e-07  1.62653403e-05
  0.00000000e+00  0.00000000e+00  0.00000000e+00 -2.99169539e-07
  0.00000000e+00  0.00000000e+00  0.00000000e+00  0.00000000e+00
  0.00000000e+00  0.00000000e+00  0.00000000e+00  0.00000000e+00
  0.00000000e+00  0.00000000e+00  0.00000000e+00  0.00000000e+00
  0.00000000e+00  0.00000000e+00  0.00000000e+00  0.00000000e+00
  0.00000000e+00  0.00000000e+00 -5.16851661e-07 -2.99169539e-07
  0.00000000e+00  0.00000000e+00  0.00000000e+00  2.98827197e-06]","[[ 0.00010674  0.00956983]
 [-0.00038147  0.00362799]]",[],0.0,0.0
1787581805.952675,1.0287205840546327,-0.41144187312483427,1.9445264792906614,"[ 1.63584628e-05  7.57424255e-07  0.00000000e+00  0.00000000e+00
  0.00000000e+00 -5.16851661e-07  7.57424255e-07  1.62653403e-05
  0.00000000e+00  0.00000000e+00  0.00000000e+00 -2.99169539e-07
  0.00000000e+00  0.00000000e+00  0.00000000e+00  0.00000000e+00
  0.00000000e+00  0.00000000e+00  0.00000000e+00  0.00000000e+00
  0.00000000e+00  0.00000000e+00  0.00000000e+00  0.00000000e+00
  0.00000000e+00  0.00000000e+00  0.00000000e+00  0.00000000e+00
  0.00000000e+00  0.00000000e+00 -5.16851661e-07 -2.99169539e-07
  0.00000000e+00  0.00000000e+00  0.00000000e+00  2.98827197e-06]","[[ 0.00010674  0.00956983]
 [-0.00038147  0.00362799]]",[],0.0,0.0
1787581806.0035968,1.0287205840546327,-0.41144187312483427,1.9445264792906614,"[ 1.63584628e-05  7.57424255e-07  0.00000000e+00  0.00000000e+00
  0.00000000e+00 -5.16851661e-07  7.57424255e-07  1.62653403e-05
  0.00000000e+00  0.00000000e+00  0.00000000e+00 -2.99169539e-07
  0.00000000e+00  0.00000000e+00  0.00000000e+00  0.00000000e+00
  0.00000000e+00  0.00000000e+00  0.00000000e+00  0.00000000e+00
  0.00000000e+00  0.00000000e+00  0.00000000e+00  0.00000000e+00
  0.00000000e+00  0.00000000e+00  0.00000000e+00  0.00000000e+00
  0.00000000e+00  0.00000000e+00 -5.16851661e-07 -2.99169539e-07
  0.00000000e+00  0.00000000e+00  0.00000000e+00  2.98827197e-06]","[[ 0.00010674  0.00956983]
 [-0.00038147  0.00362799]]",[],0.0,0.0
1787581806.0578012,1.0287205840546327,-0.41144187312483427,1.9445264792906614,"[ 1.63584628e-05  7.57424255e-07  0.00000000e+00  0.00000000e+00
  0.00000000e+00 -5.16851661e-07  7.57424255e-07  1.62653403e-05
  0.00000000e+00  0.00000000e+00  0.00000000e+00 -2.99169539e-07
  0.00000000e+00  0.00000000e+00  0.00000000e+00  0.00000000e+00
  0.00000000e+00  0.00000000e+00  0.00000000e+00  0.00000000e+00
  0.00000000e+00  0.00000000e+00  0.00000000e+00  0.00000000e+00
  0.00000000e+00  0.00000000e+00  0.00000000e+00  0.00000000e+00
  0.00000000e+00  0.00000000e+00 -5.16851661e-07 -2.99169539e-07
  0.00000000e+00  0.00000000e+00  0.00000000e+00  2.98827197e-06]","[[ 0.00010674  0.00956983]
 [-0.00038147  0.00362799]]",[],0.0,0.0
1787581806.1024232,1.0287205840546327,-0.41144187312483427,1.9445264792906614,"[ 1.63584628e-05  7.57424255e-07  0.00000000e+00  0.00000000e+00
  0.00000000e+00 -5.16851661e-07  7.57424255e-07  1.62653403e-05
  0.00000000e+00  0.00000000e+00  0.00000000e+00 -2.99169539e-07
  0.00000000e+00  0.00000000e+00  0.00000000e+00  0.00000000e+00
  0.00000000e+00  0.00000000e+00  0.00000000e+00  0.00000000e+00
  0.00000000e+00  0.00000000e+00  0.00000000e+00  0.00000000e+00
  0.00000000e+00  0.00000000e+00  0.00000000e+00  0.00000000e+00
  0.00000000e+00  0.00000000e+00 -5.16851661e-07 -2.99169539e-07
  0.00000000e+00  0.00000000e+00  0.00000000e+00  2.98827197e-06]","[[ 0.00010674  0.00956983]
 [-0.00038147  0.00362799]]",[],0.0,0.0
1787581806.1525953,1.0287205840546327,-0.41144187312483427,1.9445264792906614,"[ 1.63584628e-05  7.57424255e-07  0.00000000e+00  0.00000000e+00
  0.00000000e+00 -5.16851661e-07  7.57424255e-07  1.62653403e-05
  0.00000000e+00  0.00000000e+00  0.00000000e+00 -2.99169539e-07
  0.00000000e+00  0.00000000e+00  0.00000000e+00  0.00000000e+00
  0.00000000e+00  0.00000000e+00  0.00000000e+00  0.00000000e+00
  0.00000000e+00  0.00000000e+00  0.00000000e+00  0.00000000e+00
  0.00000000e+00  0.00000000e+00  0.00000000e+00  0.00000000e+00
  0.00000000e+00  0.00000000e+00 -5.16851661e-07 -2.99169539e-07
  0.00000000e+00  0.00000000e+00  0.00000000e+00  2.98827197e-06]","[[ 0.00010674  0.00956983]
 [-0.00038147  0.00362799]]",[],0.0,0.0
1787581806.2025,1.0287205840546327,-0.41144187312483427,1.9445264792906614,"[ 1.63584628e-05  7.57424255e-07  0.00000000e+00  0.00000000e+00
  0.00000000e+00 -5.16851661e-07  7.57424255e-07  1.62653403e-05
  0.00000000e+00  0.00000000e+00  0.00000000e+00 -2.99169539e-07
  0.00000000e+00  0.00000000e+00  0.00000000e+00  0.00000000e+00
  0.00000000e+00  0.00000000e+00  0.00000000e+00  0.00000000e+00
  0.00000000e+00  0.00000000e+00  0.00000000e+00  0.00000000e+00
  0.00000000e+00  0.00000000e+00  0.00000000e+00  0.00000000e+00
  0.00000000e+00  0.00000000e+00 -5.16851661e-07 -2.99169539e-07
  0.00000000e+00  0.00000000e+00  0.00000000e+00  2.98827197e-06]","[[ 0.00010674  0.00956983]
 [-0.00038147  0.00362799]]",[],0.0,0.0
1787581806.2523081,1.0287205840546327,-0.41144187312483427,1.9445264792906614,"[ 1.63584628e-05  7.57424255e-07  0.00000000e+00  0.00000000e+00
  0.00000000e+00 -5.16851661e-07  7.57424255e-07  1.62653403e-05
  0.00000000e+00  0.00000000e+00  0.00000000e+00 -2.99169539e-07
  0.00000000e+00  0.00000000e+00  0.00000000e+00  0.00000000e+00
  0.00000000e+00  0.00000000e+00  0.00000000e+00  0.00000000e+00
  0.00000000e+00  0.00000000e+00  0.00000000e+00  0.00000000e+00
  0.00000000e+00  0.00000000e+00  0.00000000e+00  0.00000000e+00
  0.00000000e+00  0.00000000e+00 -5.16851661e-07 -2.99169539e-07
  0.00000000e+00  0.00000000e+00  0.00000000e+00  2.98827197e-06]","[[ 0.00010674  0.00956983]
 [-0.00038147  0.00362799]]",[],0.0,0.0
1787581806.302305,1.0287205840546327,-0.41144187312483427,1.9445264792906614,"[ 1.63584628e-05  7.57424255e-07  0.00000000e+00  0.00000000e+00
  0.00000000e+00 -5.16851661e-07  7.57424255e-07  1.62653403e-05
  0.00000000e+00  0.00000000e+00  0.00000000e+00 -2.99169539e-07
  0.00000000e+00  0.00000000e+00  0.00000000e+00  0.00000000e+00
  0.00000000e+00  0.00000000e+00  0.00000000e+00  0.00000000e+00
  0.00000000e+00  0.00000000e+00  0.00000000e+00  0.00000000e+00
  0.00000000e+00  0.00000000e+00  0.00000000e+00  0.00000000e+00
  0.00000000e+00  0.00000000e+00 -5.16851661e-07 -2.99169539e-07
  0.00000000e+00  0.00000000e+00  0.00000000e+00  2.98827197e-06]","[[ 0.00010674  0.00956983]
 [-0.00038147  0.00362799]]",[],0.0,0.0
1787581806.3535244,1.0287205840546327,-0.41144187312483427,1.9445264792906614,"[ 1.63584628e-05  7.57424255e-07  0.00000000e+00  0.00000000e+00
  0.00000000e+00 -5.16851661e-07  7.57424255e-07  1.62653403e-05
  0.00000000e+00  0.00000000e+00  0.00000000e+00 -2.99169539e-07
  0.00000000e+00  0.00000000e+00  0.00000000e+00  0.00000000e+00
  0.00000000e+00  0.00000000e+00  0.00000000e+00  0.00000000e+00
  0.00000000e+00  0.00000000e+00  0.00000000e+00  0.00000000e+00
  0.00000000e+00  0.00000000e+00  0.00000000e+00  0.00000000e+00
  0.00000000e+00  0.00000000e+00 -5.16851661e-07 -2.99169539e-07
  0.00000000e+00  0.00000000e+00  0.00000000e+00  2.98827197e-06]","[[ 0.00010674  0.00956983]
 [-0.00038147  0.00362799]]",[],0.0,0.0
1787581806.4066243,1.0287205840546327,-0.41144187312483427,1.9445264792906614,"[ 1.63584628e-05  7.57424255e-07  0.00000000e+00  0.00000000e+00
  0.00000000e+00 -5.16851661e-07  7.57424255e-07  1.62653403e-05
  0.00000000e+00  0.00000000e+00  0.00000000e+00 -2.99169539e-07
  0.00000000e+00  0.00000000e+00  0.00000000e+00  0.00000000e+00
  0.00000000e+00  0.00000000e+00  0.00000000e+00  0.00000000e+00
  0.00000000e+00  0.00000000e+00  0.00000000e+00  0.00000000e+00
  0.00000000e+00  0.00000000e+00  0.00000000e+00  0.00000000e+00
  0.00000000e+00  0.00000000e+00 -5.16851661e-07 -2.99169539e-07
  0.00000000e+00  0.00000000e+00  0.00000000e+00  2.98827197e-06]","[[ 0.00010674  0.00956983]
 [-0.00038147  0.00362799]]",[],0.0,0.0
1787581806.4535255,1.0287205840546327,-0.41144187312483427,1.9445264792906614,"[ 1.63584628e-05  7.57424255e-07  0.00000000e+00  0.00000000e+00
  0.00000000e+00 -5.16851661e-07  7.57424255e-07  1.62653403e-05
  0.00000000e+00  0.00000000e+00  0.00000000e+00 -2.99169539e-07
  0.00000000e+00  0.00000000e+00  0.00000000e+00  0.00000000e+00
  0.00000000e+00  0.00000000e+00  0.00000000e+00  0.00000000e+00
  0.00000000e+00  0.00000000e+00  0.00000000e+00  0.00000000e+00
  0.00000000e+00  0.00000000e+00  0.00000000e+00  0.00000000e+00
  0.00000000e+00  0.00000000e+00 -5.16851661e-07 -2.99169539e-07
  0.00000000e+00  0.00000000e+00  0.00000000e+00  2.98827197e-06]","[[ 0.00010674  0.00956983]
 [-0.00038147  0.00362799]]",[],0.0,0.0
1787581806.503259,1.0287205840546327,-0.41144187312483427,1.9445264792906614,"[ 1.63584628e-05  7.57424255e-07  0.00000000e+00  0.00000000e+00
  0.00000000e+00 -5.16851661e-07  7.57424255e-07  1.62653403e-05
  0.00000000e+00  0.00000000e+00  0.00000000e+00 -2.99169539e-07
  0.00000000e+00  0.00000000e+00  0.00000000e+00  0.00000000e+00
  0.00000000e+00  0.00000000e+00  0.00000000e+00  0.00000000e+00
  0.00000000e+00  0.00000000e+00  0.00000000e+00  0.00000000e+00
  0.00000000e+00  0.00000000e+00  0.00000000e+00  0.00000000e+00
  0.00000000e+00  0.00000000e+00 -5.16851661e-07 -2.99169539e-07
  0.00000000e+00  0.00000000e+00  0.00000000e+00  2.98827197e-06]","[[ 0.00010674  0.00956983]
 [-0.00038147  0.00362799]]",[],0.0,0.0
1787581806.552847,1.0392626011933421,-0.4080859711247171,1.9473551849966464,"[ 1.22379959e-05  4.21852495e-07  0.00000000e+00  0.00000000e+00
  0.00000000e+00 -3.21416869e-07  4.21852495e-07  1.24060792e-05
  0.00000000e+00  0.00000000e+00  0.00000000e+00 -2.19235771e-07
  0.00000000e+00  0.00000000e+00  0.00000000e+00  0.00000000e+00
  0.00000000e+00  0.00000000e+00  0.00000000e+00  0.00000000e+00
  0.00000000e+00  0.00000000e+00  0.00000000e+00  0.00000000e+00
  0.00000000e+00  0.00000000e+00  0.00000000e+00  0.00000000e+00
  0.00000000e+00  0.00000000e+00 -3.21416869e-07 -2.19235771e-07
  0.00000000e+00  0.00000000e+00  0.00000000e+00  3.01985513e-06]","[[ 8.38135696e-05  7.02984094e-03]
 [-2.91964039e-04  2.68391440e-03]]",[],0.0,0.0
1787581806.6073976,1.0392626011933421,-0.4080859711247171,1.9473551849966464,"[ 1.22379959e-05  4.21852495e-07  0.00000000e+00  0.00000000e+00
  0.00000000e+00 -3.21416869e-07  4.21852495e-07  1.24060792e-05
  0.00000000e+00  0.00000000e+00  0.00000000e+00 -2.19235771e-07
  0.00000000e+00  0.00000000e+00  0.00000000e+00  0.00000000e+00
  0.00000000e+00  0.00000000e+00  0.00000000e+00  0.00000000e+00
  0.00000000e+00  0.00000000e+00  0.00000000e+00  0.00000000e+00
  0.00000000e+00  0.00000000e+00  0.00000000e+00  0.00000000e+00
  0.00000000e+00  0.00000000e+00 -3.21416869e-07 -2.19235771e-07
  0.00000000e+00  0.00000000e+00  0.00000000e+00  3.01985513e-06]","[[ 8.38135696e-05  7.02984094e-03]
 [-2.91964039e-04  2.68391440e-03]]",[],0.0,0.0
1787581806.6546721,1.0392626011933421,-0.4080859711247171,1.9473551849966464,"[ 1.22379959e-05  4.21852495e-07  0.00000000e+00  0.00000000e+00
  0.00000000e+00 -3.21416869e-07  4.21852495e-07  1.24060792e-05
  0.00000000e+00  0.00000000e+00  0.00000000e+00 -2.19235771e-07
  0.00000000e+00  0.00000000e+00  0.00000000e+00  0.00000000e+00
  0.00000000e+00  0.00000000e+00  0.00000000e+00  0.00000000e+00
  0.00000000e+00  0.00000000e+00  0.00000000e+00  0.00000000e+00
  0.00000000e+00  0.00000000e+00  0.00000000e+00  0.00000000e+00
  0.00000000e+00  0.00000000e+00 -3.21416869e-07 -2.19235771e-07
  0.00000000e+00  0.00000000e+00  0.00000000e+00  3.01985513e-06]","[[ 8.38135696e-05  7.02984094e-03]
 [-2.91964039e-04  2.68391440e-03]]",[],0.0,0.0
1787581806.716477,1.0392626011933421,-0.4080859711247171,1.9473551849966464,"[ 1.22379959e-05  4.21852495e-07  0.00000000e+00  0.00000000e+00
  0.00000000e+00 -3.21416869e-07  4.21852495e-07  1.24060792e-05
  0.00000000e+00  0.00000000e+00  0.00000000e+00 -2.19235771e-07
  0.00000000e+00  0.00000000e+00  0.00000000e+00  0.00000000e+00
  0.00000000e+00  0.00000000e+00  0.00000000e+00  0.00000000e+00
  0.00000000e+00  0.00000000e+00  0.00000000e+00  0.00000000e+00
  0.00000000e+00  0.00000000e+00  0.00000000e+00  0.00000000e+00
  0.00000000e+00  0.00000000e+00 -3.21416869e-07 -2.19235771e-07
  0.00000000e+00  0.00000000e+00  0.00000000e+00  3.01985513e-06]","[[ 8.38135696e-05  7.02984094e-03]
 [-2.91964039e-04  2.68391440e-03]]",[],0.0,0.0
1787581806.7534535,1.0392626011933421,-0.4080859711247171,1.9473551849966464,"[ 1.22379959e-05  4.21852495e-07  0.00000000e+00  0.00000000e+00
  0.00000000e+00 -3.21416869e-07  4.21852495e-07  1.24060792e-05
  0.00000000e+00  0.00000000e+00  0.00000000e+00 -2.19235771e-07
  0.00000000e+00  0.00000000e+00  0.00000000e+00  0.00000000e+00
  0.00000000e+00  0.00000000e+00  0.00000000e+00  0.00000000e+00
  0.00000000e+00  0.00000000e+00  0.00000000e+00  0.00000000e+00
  0.00000000e+00  0.00000000e+00  0.00000000e+00  0.00000000e+00
  0.00000000e+00  0.00000000e+00 -3.21416869e-07 -2.19235771e-07
  0.00000000e+00  0.00000000e+00  0.00000000e+00  3.01985513e-06]","[[ 8.38135696e-05  7.02984094e-03]
 [-2.91964039e-04  2.68391440e-03]]",[],0.0,0.0
1787581806.8025324,1.0392626011933421,-0.4080859711247171,1.9473551849966464,"[ 1.22379959e-05  4.21852495e-07  0.00000000e+00  0.00000000e+00
  0.00000000e+00 -3.21416869e-07  4.21852495e-07  1.24060792e-05
  0.00000000e+00  0.00000000e+00  0.00000000e+00 -2.19235771e-07
  0.00000000e+00  0.00000000e+00  0.00000000e+00  0.00000000e+00
  0.00000000e+00  0.00000000e+00  0.00000000e+00  0.00000000e+00
  0.00000000e+00  0.00000000e+00  0.00000000e+00  0.00000000e+00
  0.00000000e+00  0.00000000e+00  0.00000000e+00  0.00000000e+00
  0.00000000e+00  0.00000000e+00 -3.21416869e-07 -2.19235771e-07
  0.00000000e+00  0.00000000e+00  0.00000000e+00  3.01985513e-06]","[[ 8.38135696e-05  7.02984094e-03]
 [-2.91964039e-04  2.68391440e-03]]",[],0.0,0.0
1787581806.8523307,1.0392626011933421,-0.4080859711247171,1.9473551849966464,"[ 1.22379959e-05  4.21852495e-07  0.00000000e+00  0.00000000e+00
  0.00000000e+00 -3.21416869e-07  4.21852495e-07  1.24060792e-05
  0.00000000e+00  0.00000000e+00  0.00000000e+00 -2.19235771e-07
  0.00000000e+00  0.00000000e+00  0.00000000e+00  0.00000000e+00
  0.00000000e+00  0.00000000e+00  0.00000000e+00  0.00000000e+00
  0.00000000e+00  0.00000000e+00  0.00000000e+00  0.00000000e+00
  0.00000000e+00  0.00000000e+00  0.00000000e+00  0.00000000e+00
  0.00000000e+00  0.00000000e+00 -3.21416869e-07 -2.19235771e-07
  0.00000000e+00  0.00000000e+00  0.00000000e+00  3.01985513e-06]","[[ 8.38135696e-05  7.02984094e-03]
 [-2.91964039e-04  2.68391440e-03]]",[],0.0,0.0
1787581806.906881,1.0392626011933421,-0.4080859711247171,1.9473551849966464,"[ 1.22379959e-05  4.21852495e-07  0.00000000e+00  0.00000000e+00
  0.00000000e+00 -3.21416869e-07  4.21852495e-07  1.24060792e-05
  0.00000000e+00  0.00000000e+00  0.00000000e+00 -2.19235771e-07
  0.00000000e+00  0.00000000e+00  0.00000000e+00  0.00000000e+00
  0.00000000e+00  0.00000000e+00  0.00000000e+00  0.00000000e+00
  0.00000000e+00  0.00000000e+00  0.00000000e+00  0.00000000e+00
  0.00000000e+00  0.00000000e+00  0.00000000e+00  0.00000000e+00
  0.00000000e+00  0.00000000e+00 -3.21416869e-07 -2.19235771e-07
  0.00000000e+00  0.00000000e+00  0.00000000e+00  3.01985513e-06]","[[ 8.38135696e-05  7.02984094e-03]
 [-2.91964039e-04  2.68391440e-03]]",[],0.0,0.0
1787581806.9661114,1.0392626011933421,-0.4080859711247171,1.9473551849966464,"[ 1.22379959e-05  4.21852495e-07  0.00000000e+00  0.00000000e+00
  0.00000000e+00 -3.21416869e-07  4.21852495e-07  1.24060792e-05
  0.00000000e+00  0.00000000e+00  0.00000000e+00 -2.19235771e-07
  0.00000000e+00  0.00000000e+00  0.00000000e+00  0.00000000e+00
  0.00000000e+00  0.00000000e+00  0.00000000e+00  0.00000000e+00
  0.00000000e+00  0.00000000e+00  0.00000000e+00  0.00000000e+00
  0.00000000e+00  0.00000000e+00  0.00000000e+00  0.00000000e+00
  0.00000000e+00  0.00000000e+00 -3.21416869e-07 -2.19235771e-07
  0.00000000e+00  0.00000000e+00  0.00000000e+00  3.01985513e-06]","[[ 8.38135696e-05  7.02984094e-03]
 [-2.91964039e-04  2.68391440e-03]]",[],0.0,0.0
1787581807.0052388,1.0392626011933421,-0.4080859711247171,1.9473551849966464,"[ 1.22379959e-05  4.21852495e-07  0.00000000e+00  0.00000000e+00
  0.00000000e+00 -3.21416869e-07  4.21852495e-07  1.24060792e-05
  0.00000000e+00  0.00000000e+00  0.00000000e+00 -2.19235771e-07
  0.00000000e+00  0.00000000e+00  0.00000000e+00  0.00000000e+00
  0.00000000e+00  0.00000000e+00  0.00000000e+00  0.00000000e+00
  0.00000000e+00  0.00000000e+00  0.00000000e+00  0.00000000e+00
  0.00000000e+00  0.00000000e+00  0.00000000e+00  0.00000000e+00
  0.00000000e+00  0.00000000e+00 -3.21416869e-07 -2.19235771e-07
  0.00000000e+00  0.00000000e+00  0.00000000e+00  3.01985513e-06]","[[ 8.38135696e-05  7.02984094e-03]
 [-2.91964039e-04  2.68391440e-03]]",[],0.0,0.0
1787581807.05314,1.0392626011933421,-0.4080859711247171,1.9473551849966464,"[ 1.22379959e-05  4.21852495e-07  0.00000000e+00  0.00000000e+00
  0.00000000e+00 -3.21416869e-07  4.21852495e-07  1.24060792e-05
  0.00000000e+00  0.00000000e+00  0.00000000e+00 -2.19235771e-07
  0.00000000e+00  0.00000000e+00  0.00000000e+00  0.00000000e+00
  0.00000000e+00  0.00000000e+00  0.00000000e+00  0.00000000e+00
  0.00000000e+00  0.00000000e+00  0.00000000e+00  0.00000000e+00
  0.00000000e+00  0.00000000e+00  0.00000000e+00  0.00000000e+00
  0.00000000e+00  0.00000000e+00 -3.21416869e-07 -2.19235771e-07
  0.00000000e+00  0.00000000e+00  0.00000000e+00  3.01985513e-06]","[[ 8.38135696e-05  7.02984094e-03]
 [-2.91964039e-04  2.68391440e-03]]",[],0.0,0.0
1787581807.1029103,1.0392626011933421,-0.4080859711247171,1.9473551849966464,"[ 1.22379959e-05  4.21852495e-07  0.00000000e+00  0.00000000e+00
  0.00000000e+00 -3.21416869e-07  4.21852495e-07  1.24060792e-05
  0.00000000e+00  0.00000000e+00  0.00000000e+00 -2.19235771e-07
  0.00000000e+00  0.00000000e+00  0.00000000e+00  0.00000000e+00
  0.00000000e+00  0.00000000e+00  0.00000000e+00  0.00000000e+00
  0.00000000e+00  0.00000000e+00  0.00000000e+00  0.00000000e+00
  0.00000000e+00  0.00000000e+00  0.00000000e+00  0.00000000e+00
  0.00000000e+00  0.00000000e+00 -3.21416869e-07 -2.19235771e-07
  0.00000000e+00  0.00000000e+00  0.00000000e+00  3.01985513e-06]","[[ 8.38135696e-05  7.02984094e-03]
 [-2.91964039e-04  2.68391440e-03]]",[],0.0,0.0
1787581807.1642814,1.0392626011933421,-0.4080859711247171,1.9473551849966464,"[ 1.22379959e-05  4.21852495e-07  0.00000000e+00  0.00000000e+00
  0.00000000e+00 -3.21416869e-07  4.21852495e-07  1.24060792e-05
  0.00000000e+00  0.00000000e+00  0.00000000e+00 -2.19235771e-07
  0.00000000e+00  0.00000000e+00  0.00000000e+00  0.00000000e+00
  0.00000000e+00  0.00000000e+00  0.00000000e+00  0.00000000e+00
  0.00000000e+00  0.00000000e+00  0.00000000e+00  0.00000000e+00
  0.00000000e+00  0.00000000e+00  0.00000000e+00  0.00000000e+00
  0.00000000e+00  0.00000000e+00 -3.21416869e-07 -2.19235771e-07
  0.00000000e+00  0.00000000e+00  0.00000000e+00  3.01985513e-06]","[[ 8.38135696e-05  7.02984094e-03]
 [-2.91964039e-04  2.68391440e-03]]",[],0.0,0.0
1787581807.202204,1.0392626011933421,-0.4080859711247171,1.9473551849966464,"[ 1.22379959e-05  4.21852495e-07  0.00000000e+00  0.00000000e+00
  0.00000000e+00 -3.21416869e-07  4.21852495e-07  1.24060792e-05
  0.00000000e+00  0.00000000e+00  0.00000000e+00 -2.19235771e-07
  0.00000000e+00  0.00000000e+00  0.00000000e+00  0.00000000e+00
  0.00000000e+00  0.00000000e+00  0.00000000e+00  0.00000000e+00
  0.00000000e+00  0.00000000e+00  0.00000000e+00  0.00000000e+00
  0.00000000e+00  0.00000000e+00  0.00000000e+00  0.00000000e+00
  0.00000000e+00  0.00000000e+00 -3.21416869e-07 -2.19235771e-07
  0.00000000e+00  0.00000000e+00  0.00000000e+00  3.01985513e-06]","[[ 8.38135696e-05  7.02984094e-03]
 [-2.91964039e-04  2.68391440e-03]]",[],0.0,0.0
1787581807.252494,1.0392626011933421,-0.4080859711247171,1.9473551849966464,"[ 1.22379959e-05  4.21852495e-07  0.00000000e+00  0.00000000e+00
  0.00000000e+00 -3.21416869e-07  4.21852495e-07  1.24060792e-05
  0.00000000e+00  0.00000000e+00  0.00000000e+00 -2.19235771e-07
  0.00000000e+00  0.00000000e+00  0.00000000e+00  0.00000000e+00
  0.00000000e+00  0.00000000e+00  0.00000000e+00  0.00000000e+00
  0.00000000e+00  0.00000000e+00  0.00000000e+00  0.00000000e+00
  0.00000000e+00  0.00000000e+00  0.00000000e+00  0.00000000e+00
  0.00000000e+00  0.00000000e+00 -3.21416869e-07 -2.19235771e-07
  0.00000000e+00  0.00000000e+00  0.00000000e+00  3.01985513e-06]","[[ 8.38135696e-05  7.02984094e-03]
 [-2.91964039e-04  2.68391440e-03]]",[],0.0,0.0
1787581807.3045177,1.0392626011933421,-0.4080859711247171,1.9473551849966464,"[ 1.22379959e-05  4.21852495e-07  0.00000000e+00  0.00000000e+00
  0.00000000e+00 -3.21416869e-07  4.21852495e-07  1.24060792e-05
  0.00000000e+00  0.00000000e+00  0.00000000e+00 -2.19235771e-07
  0.00000000e+00  0.00000000e+00  0.00000000e+00  0.00000000e+00
  0.00000000e+00  0.00000000e+00  0.00000000e+00  0.00000000e+00
  0.00000000e+00  0.00000000e+00  0.00000000e+00  0.00000000e+00
  0.00000000e+00  0.00000000e+00  0.00000000e+00  0.00000000e+00
  0.00000000e+00  0.00000000e+00 -3.21416869e-07 -2.19235771e-07
  0.00000000e+00  0.00000000e+00  0.00000000e+00  3.01985513e-06]","[[ 8.38135696e-05  7.02984094e-03]
 [-2.91964039e-04  2.68391440e-03]]",[],0.0,0.0
1787581807.355086,1.0392626011933421,-0.4080859711247171,1.9473551849966464,"[ 1.22379959e-05  4.21852495e-07  0.00000000e+00  0.00000000e+00
  0.00000000e+00 -3.21416869e-07  4.21852495e-07  1.24060792e-05
  0.00000000e+00  0.00000000e+00  0.00000000e+00 -2.19235771e-07
  0.00000000e+00  0.00000000e+00  0.00000000e+00  0.00000000e+00
  0.00000000e+00  0.00000000e+00  0.00000000e+00  0.00000000e+00
  0.00000000e+00  0.00000000e+00  0.00000000e+00  0.00000000e+00
  0.00000000e+00  0.00000000e+00  0.00000000e+00  0.00000000e+00
  0.00000000e+00  0.00000000e+00 -3.21416869e-07 -2.19235771e-07
  0.00000000e+00  0.00000000e+00  0.00000000e+00  3.01985513e-06]","[[ 8.38135696e-05  7.02984094e-03]
 [-2.91964039e-04  2.68391440e-03]]",[],0.0,0.0
1787581807.411312,1.0392626011933421,-0.4080859711247171,1.9473551849966464,"[ 1.22379959e-05  4.21852495e-07  0.00000000e+00  0.00000000e+00
  0.00000000e+00 -3.21416869e-07  4.21852495e-07  1.24060792e-05
  0.00000000e+00  0.00000000e+00  0.00000000e+00 -2.19235771e-07
  0.00000000e+00  0.00000000e+00  0.00000000e+00  0.00000000e+00
  0.00000000e+00  0.00000000e+00  0.00000000e+00  0.00000000e+00
  0.00000000e+00  0.00000000e+00  0.00000000e+00  0.00000000e+00
  0.00000000e+00  0.00000000e+00  0.00000000e+00  0.00000000e+00
  0.00000000e+00  0.00000000e+00 -3.21416869e-07 -2.19235771e-07
  0.00000000e+00  0.00000000e+00  0.00000000e+00  3.01985513e-06]","[[ 8.38135696e-05  7.02984094e-03]
 [-2.91964039e-04  2.68391440e-03]]",[],0.0,0.0
1787581807.452929,1.0392626011933421,-0.4080859711247171,1.9473551849966464,"[ 1.22379959e-05  4.21852495e-07  0.00000000e+00  0.00000000e+00
  0.00000000e+00 -3.21416869e-07  4.21852495e-07  1.24060792e-05
  0.00000000e+00  0.00000000e+00  0.00000000e+00 -2.19235771e-07
  0.00000000e+00  0.00000000e+00  0.00000000e+00  0.00000000e+00
  0.00000000e+00  0.00000000e+00  0.00000000e+00  0.00000000e+00
  0.00000000e+00  0.00000000e+00  0.00000000e+00  0.00000000e+00
  0.00000000e+00  0.00000000e+00  0.00000000e+00  0.00000000e+00
  0.00000000e+00  0.00000000e+00 -3.21416869e-07 -2.19235771e-07
  0.00000000e+00  0.00000000e+00  0.00000000e+00  3.01985513e-06]","[[ 8.38135696e-05  7.02984094e-03]
 [-2.91964039e-04  2.68391440e-03]]",[],0.0,0.0
1787581807.508911,1.0392626011933421,-0.4080859711247171,1.9473551849966464,"[ 1.22379959e-05  4.21852495e-07  0.00000000e+00  0.00000000e+00
  0.00000000e+00 -3.21416869e-07  4.21852495e-07  1.24060792e-05
  0.00000000e+00  0.00000000e+00  0.00000000e+00 -2.19235771e-07
  0.00000000e+00  0.00000000e+00  0.00000000e+00  0.00000000e+00
  0.00000000e+00  0.00000000e+00  0.00000000e+00  0.00000000e+00
  0.00000000e+00  0.00000000e+00  0.00000000e+00  0.00000000e+00
  0.00000000e+00  0.00000000e+00  0.00000000e+00  0.00000000e+00
  0.00000000e+00  0.00000000e+00 -3.21416869e-07 -2.19235771e-07
  0.00000000e+00  0.00000000e+00  0.00000000e+00  3.01985513e-06]","[[ 8.38135696e-05  7.02984094e-03]
 [-2.91964039e-04  2.68391440e-03]]",[],0.0,0.0
1787581807.5550041,1.0455670671873483,-0.4030293324829665,1.9500135118548503,"[ 9.84003296e-06  2.64592770e-07  0.00000000e+00  0.00000000e+00
  0.00000000e+00 -2.87141381e-07  2.64592770e-07  1.00287845e-05
  0.00000000e+00  0.00000000e+00  0.00000000e+00 -2.65242063e-07
  0.00000000e+00  0.00000000e+00  0.00000000e+00  0.00000000e+00
  0.00000000e+00  0.00000000e+00  0.00000000e+00  0.00000000e+00
  0.00000000e+00  0.00000000e+00  0.00000000e+00  0.00000000e+00
  0.00000000e+00  0.00000000e+00  0.00000000e+00  0.00000000e+00
  0.00000000e+00  0.00000000e+00 -2.87141381e-07 -2.65242063e-07
  0.00000000e+00  0.00000000e+00  0.00000000e+00  2.99576640e-06]","[[ 7.00370035e-05  5.68146184e-03]
 [-2.36294302e-04  2.29428042e-03]]",[],0.0,0.0
1787581807.6070871,1.0455670671873483,-0.4030293324829665,1.9500135118548503,"[ 9.84003296e-06  2.64592770e-07  0.00000000e+00  0.00000000e+00
  0.00000000e+00 -2.87141381e-07  2.64592770e-07  1.00287845e-05
  0.00000000e+00  0.00000000e+00  0.00000000e+00 -2.65242063e-07
  0.00000000e+00  0.00000000e+00  0.00000000e+00  0.00000000e+00
  0.00000000e+00  0.00000000e+00  0.00000000e+00  0.00000000e+00
  0.00000000e+00  0.00000000e+00  0.00000000e+00  0.00000000e+00
  0.00000000e+00  0.00000000e+00  0.00000000e+00  0.00000000e+00
  0.00000000e+00  0.00000000e+00 -2.87141381e-07 -2.65242063e-07
  0.00000000e+00  0.00000000e+00  0.00000000e+00  2.99576640e-06]","[[ 7.00370035e-05  5.68146184e-03]
 [-2.36294302e-04  2.29428042e-03]]",[],0.0,0.0
1787581807.6526356,1.0455670671873483,-0.4030293324829665,1.9500135118548503,"[ 9.84003296e-06  2.64592770e-07  0.00000000e+00  0.00000000e+00
  0.00000000e+00 -2.87141381e-07  2.64592770e-07  1.00287845e-05
  0.00000000e+00  0.00000000e+00  0.00000000e+00 -2.65242063e-07
  0.00000000e+00  0.00000000e+00  0.00000000e+00  0.00000000e+00
  0.00000000e+00  0.00000000e+00  0.00000000e+00  0.00000000e+00
  0.00000000e+00  0.00000000e+00  0.00000000e+00  0.00000000e+00
  0.00000000e+00  0.00000000e+00  0.00000000e+00  0.00000000e+00
  0.00000000e+00  0.00000000e+00 -2.87141381e-07 -2.65242063e-07
  0.00000000e+00  0.00000000e+00  0.00000000e+00  2.99576640e-06]","[[ 7.00370035e-05  5.68146184e-03]
 [-2.36294302e-04  2.29428042e-03]]",[],0.0,0.0
1787581807.7070515,1.0455670671873483,-0.4030293324829665,1.9500135118548503,"[ 9.84003296e-06  2.64592770e-07  0.00000000e+00  0.00000000e+00
  0.00000000e+00 -2.87141381e-07  2.64592770e-07  1.00287845e-05
  0.00000000e+00  0.00000000e+00  0.00000000e+00 -2.65242063e-07
  0.00000000e+00  0.00000000e+00  0.00000000e+00  0.00000000e+00
  0.00000000e+00  0.00000000e+00  0.00000000e+00  0.00000000e+00
  0.00000000e+00  0.00000000e+00  0.00000000e+00  0.00000000e+00
  0.00000000e+00  0.00000000e+00  0.00000000e+00  0.00000000e+00
  0.00000000e+00  0.00000000e+00 -2.87141381e-07 -2.65242063e-07
  0.00000000e+00  0.00000000e+00  0.00000000e+00  2.99576640e-06]","[[ 7.00370035e-05  5.68146184e-03]
 [-2.36294302e-04  2.29428042e-03]]",[],0.0,0.0
1787581807.7541153,1.0455670671873483,-0.4030293324829665,1.9500135118548503,"[ 9.84003296e-06  2.64592770e-07  0.00000000e+00  0.00000000e+00
  0.00000000e+00 -2.87141381e-07  2.64592770e-07  1.00287845e-05
  0.00000000e+00  0.00000000e+00  0.00000000e+00 -2.65242063e-07
  0.00000000e+00  0.00000000e+00  0.00000000e+00  0.00000000e+00
  0.00000000e+00  0.00000000e+00  0.00000000e+00  0.00000000e+00
  0.00000000e+00  0.00000000e+00  0.00000000e+00  0.00000000e+00
  0.00000000e+00  0.00000000e+00  0.00000000e+00  0.00000000e+00
  0.00000000e+00  0.00000000e+00 -2.87141381e-07 -2.65242063e-07
  0.00000000e+00  0.00000000e+00  0.00000000e+00  2.99576640e-06]","[[ 7.00370035e-05  5.68146184e-03]
 [-2.36294302e-04  2.29428042e-03]]",[],0.0,0.0
1787581807.802639,1.0455670671873483,-0.4030293324829665,1.9500135118548503,"[ 9.84003296e-06  2.64592770e-07  0.00000000e+00  0.00000000e+00
  0.00000000e+00 -2.87141381e-07  2.64592770e-07  1.00287845e-05
  0.00000000e+00  0.00000000e+00  0.00000000e+00 -2.65242063e-07
  0.00000000e+00  0.00000000e+00  0.00000000e+00  0.00000000e+00
  0.00000000e+00  0.00000000e+00  0.00000000e+00  0.00000000e+00
  0.00000000e+00  0.00000000e+00  0.00000000e+00  0.00000000e+00
  0.00000000e+00  0.00000000e+00  0.00000000e+00  0.00000000e+00
  0.00000000e+00  0.00000000e+00 -2.87141381e-07 -2.65242063e-07
  0.00000000e+00  0.00000000e+00  0.00000000e+00  2.99576640e-06]","[[ 7.00370035e-05  5.68146184e-03]
 [-2.36294302e-04  2.29428042e-03]]",[],0.0,0.0
1787581807.8522534,1.0455670671873483,-0.4030293324829665,1.9500135118548503,"[ 9.84003296e-06  2.64592770e-07  0.00000000e+00  0.00000000e+00
  0.00000000e+00 -2.87141381e-07  2.64592770e-07  1.00287845e-05
  0.00000000e+00  0.00000000e+00  0.00000000e+00 -2.65242063e-07
  0.00000000e+00  0.00000000e+00  0.00000000e+00  0.00000000e+00
  0.00000000e+00  0.00000000e+00  0.00000000e+00  0.00000000e+00
  0.00000000e+00  0.00000000e+00  0.00000000e+00  0.00000000e+00
  0.00000000e+00  0.00000000e+00  0.00000000e+00  0.00000000e+00
  0.00000000e+00  0.00000000e+00 -2.87141381e-07 -2.65242063e-07
  0.00000000e+00  0.00000000e+00  0.00000000e+00  2.99576640e-06]","[[ 7.00370035e-05  5.68146184e-03]
 [-2.36294302e-04  2.29428042e-03]]",[],0.0,0.0
1787581807.9075868,1.0455670671873483,-0.4030293324829665,1.9500135118548503,"[ 9.84003296e-06  2.64592770e-07  0.00000000e+00  0.00000000e+00
  0.00000000e+00 -2.87141381e-07  2.64592770e-07  1.00287845e-05
  0.00000000e+00  0.00000000e+00  0.00000000e+00 -2.65242063e-07
  0.00000000e+00  0.00000000e+00  0.00000000e+00  0.00000000e+00
  0.00000000e+00  0.00000000e+00  0.00000000e+00  0.00000000e+00
  0.00000000e+00  0.00000000e+00  0.00000000e+00  0.00000000e+00
  0.00000000e+00  0.00000000e+00  0.00000000e+00  0.00000000e+00
  0.00000000e+00  0.00000000e+00 -2.87141381e-07 -2.65242063e-07
  0.00000000e+00  0.00000000e+00  0.00000000e+00  2.99576640e-06]","[[ 7.00370035e-05  5.68146184e-03]
 [-2.36294302e-04  2.29428042e-03]]",[],0.0,0.0
1787581807.952438,1.0455670671873483,-0.4030293324829665,1.9500135118548503,"[ 9.84003296e-06  2.64592770e-07  0.00000000e+00  0.00000000e+00
  0.00000000e+00 -2.87141381e-07  2.64592770e-07  1.00287845e-05
  0.00000000e+00  0.00000000e+00  0.00000000e+00 -2.65242063e-07
  0.00000000e+00  0.00000000e+00  0.00000000e+00  0.00000000e+00
  0.00000000e+00  0.00000000e+00  0.00000000e+00  0.00000000e+00
  0.00000000e+00  0.00000000e+00  0.00000000e+00  0.00000000e+00
  0.00000000e+00  0.00000000e+00  0.00000000e+00  0.00000000e+00
  0.00000000e+00  0.00000000e+00 -2.87141381e-07 -2.65242063e-07
  0.00000000e+00  0.00000000e+00  0.00000000e+00  2.99576640e-06]","[[ 7.00370035e-05  5.68146184e-03]
 [-2.36294302e-04  2.29428042e-03]]",[],0.0,0.0
1787581808.0021007,1.0455670671873483,-0.4030293324829665,1.9500135118548503,"[ 9.84003296e-06  2.64592770e-07  0.00000000e+00  0.00000000e+00
  0.00000000e+00 -2.87141381e-07  2.64592770e-07  1.00287845e-05
  0.00000000e+00  0.00000000e+00  0.00000000e+00 -2.65242063e-07
  0.00000000e+00  0.00000000e+00  0.00000000e+00  0.00000000e+00
  0.00000000e+00  0.00000000e+00  0.00000000e+00  0.00000000e+00
  0.00000000e+00  0.00000000e+00  0.00000000e+00  0.00000000e+00
  0.00000000e+00  0.00000000e+00  0.00000000e+00  0.00000000e+00
  0.00000000e+00  0.00000000e+00 -2.87141381e-07 -2.65242063e-07
  0.00000000e+00  0.00000000e+00  0.00000000e+00  2.99576640e-06]","[[ 7.00370035e-05  5.68146184e-03]
 [-2.36294302e-04  2.29428042e-03]]",[],0.0,0.0
1787581808.059777,1.0455670671873483,-0.4030293324829665,1.9500135118548503,"[ 9.84003296e-06  2.64592770e-07  0.00000000e+00  0.00000000e+00
  0.00000000e+00 -2.87141381e-07  2.64592770e-07  1.00287845e-05
  0.00000000e+00  0.00000000e+00  0.00000000e+00 -2.65242063e-07
  0.00000000e+00  0.00000000e+00  0.00000000e+00  0.00000000e+00
  0.00000000e+00  0.00000000e+00  0.00000000e+00  0.00000000e+00
  0.00000000e+00  0.00000000e+00  0.00000000e+00  0.00000000e+00
  0.00000000e+00  0.00000000e+00  0.00000000e+00  0.00000000e+00
  0.00000000e+00  0.00000000e+00 -2.87141381e-07 -2.65242063e-07
  0.00000000e+00  0.00000000e+00  0.00000000e+00  2.99576640e-06]","[[ 7.00370035e-05  5.68146184e-03]
 [-2.36294302e-04  2.29428042e-03]]",[],0.0,0.0
1787581808.1046543,1.0455670671873483,-0.4030293324829665,1.9500135118548503,"[ 9.84003296e-06  2.64592770e-07  0.00000000e+00  0.00000000e+00
  0.00000000e+00 -2.87141381e-07  2.64592770e-07  1.00287845e-05
  0.00000000e+00  0.00000000e+00  0.00000000e+00 -2.65242063e-07
  0.00000000e+00  0.00000000e+00  0.00000000e+00  0.00000000e+00
  0.00000000e+00  0.00000000e+00  0.00000000e+00  0.00000000e+00
  0.00000000e+00  0.00000000e+00  0.00000000e+00  0.00000000e+00
  0.00000000e+00  0.00000000e+00  0.00000000e+00  0.00000000e+00
  0.00000000e+00  0.00000000e+00 -2.87141381e-07 -2.65242063e-07
  0.00000000e+00  0.00000000e+00  0.00000000e+00  2.99576640e-06]","[[ 7.00370035e-05  5.68146184e-03]
 [-2.36294302e-04  2.29428042e-03]]",[],0.0,0.0
1787581808.153036,1.0455670671873483,-0.4030293324829665,1.9500135118548503,"[ 9.84003296e-06  2.64592770e-07  0.00000000e+00  0.00000000e+00
  0.00000000e+00 -2.87141381e-07  2.64592770e-07  1.00287845e-05
  0.00000000e+00  0.00000000e+00  0.00000000e+00 -2.65242063e-07
  0.00000000e+00  0.00000000e+00  0.00000000e+00  0.00000000e+00
  0.00000000e+00  0.00000000e+00  0.00000000e+00  0.00000000e+00
  0.00000000e+00  0.00000000e+00  0.00000000e+00  0.00000000e+00
  0.00000000e+00  0.00000000e+00  0.00000000e+00  0.00000000e+00
  0.00000000e+00  0.00000000e+00 -2.87141381e-07 -2.65242063e-07
  0.00000000e+00  0.00000000e+00  0.00000000e+00  2.99576640e-06]","[[ 7.00370035e-05  5.68146184e-03]
 [-2.36294302e-04  2.29428042e-03]]",[],0.0,0.0
1787581808.2035818,1.0455670671873483,-0.4030293324829665,1.9500135118548503,"[ 9.84003296e-06  2.64592770e-07  0.00000000e+00  0.00000000e+00
  0.00000000e+00 -2.87141381e-07  2.64592770e-07  1.00287845e-05
  0.00000000e+00  0.00000000e+00  0.00000000e+00 -2.65242063e-07
  0.00000000e+00  0.00000000e+00  0.00000000e+00  0.00000000e+00
  0.00000000e+00  0.00000000e+00  0.00000000e+00  0.00000000e+00
  0.00000000e+00  0.00000000e+00  0.00000000e+00  0.00000000e+00
  0.00000000e+00  0.00000000e+00  0.00000000e+00  0.00000000e+00
  0.00000000e+00  0.00000000e+00 -2.87141381e-07 -2.65242063e-07
  0.00000000e+00  0.00000000e+00  0.00000000e+00  2.99576640e-06]","[[ 7.00370035e-05  5.68146184e-03]
 [-2.36294302e-04  2.29428042e-03]]",[],0.0,0.0
1787581808.2523658,1.0455670671873483,-0.4030293324829665,1.9500135118548503,"[ 9.84003296e-06  2.64592770e-07  0.00000000e+00  0.00000000e+00
  0.00000000e+00 -2.87141381e-07  2.64592770e-07  1.00287845e-05
  0.00000000e+00  0.00000000e+00  0.00000000e+00 -2.65242063e-07
  0.00000000e+00  0.00000000e+00  0.00000000e+00  0.00000000e+00
  0.00000000e+00  0.00000000e+00  0.00000000e+00  0.00000000e+00
  0.00000000e+00  0.00000000e+00  0.00000000e+00  0.00000000e+00
  0.00000000e+00  0.00000000e+00  0.00000000e+00  0.00000000e+00
  0.00000000e+00  0.00000000e+00 -2.87141381e-07 -2.65242063e-07
  0.00000000e+00  0.00000000e+00  0.00000000e+00  2.99576640e-06]","[[ 7.00370035e-05  5.68146184e-03]
 [-2.36294302e-04  2.29428042e-03]]",[],0.0,0.0
1787581808.3024893,1.0455670671873483,-0.4030293324829665,1.9500135118548503,"[ 9.84003296e-06  2.64592770e-07  0.00000000e+00  0.00000000e+00
  0.00000000e+00 -2.87141381e-07  2.64592770e-07  1.00287845e-05
  0.00000000e+00  0.00000000e+00  0.00000000e+00 -2.65242063e-07
  0.00000000e+00  0.00000000e+00  0.00000000e+00  0.00000000e+00
  0.00000000e+00  0.00000000e+00  0.00000000e+00  0.00000000e+00
  0.00000000e+00  0.00000000e+00  0.00000000e+00  0.00000000e+00
  0.00000000e+00  0.00000000e+00  0.00000000e+00  0.00000000e+00
  0.00000000e+00  0.00000000e+00 -2.87141381e-07 -2.65242063e-07
  0.00000000e+00  0.00000000e+00  0.00000000e+00  2.99576640e-06]","[[ 7.00370035e-05  5.68146184e-03]
 [-2.36294302e-04  2.29428042e-03]]",[],0.0,0.0
1787581808.3523254,1.0455670671873483,-0.4030293324829665,1.9500135118548503,"[ 9.84003296e-06  2.64592770e-07  0.00000000e+00  0.00000000e+00
  0.00000000e+00 -2.87141381e-07  2.64592770e-07  1.00287845e-05
  0.00000000e+00  0.00000000e+00  0.00000000e+00 -2.65242063e-07
  0.00000000e+00  0.00000000e+00  0.00000000e+00  0.00000000e+00
  0.00000000e+00  0.00000000e+00  0.00000000e+00  0.00000000e+00
  0.00000000e+00  0.00000000e+00  0.00000000e+00  0.00000000e+00
  0.00000000e+00  0.00000000e+00  0.00000000e+00  0.00000000e+00
  0.00000000e+00  0.00000000e+00 -2.87141381e-07 -2.65242063e-07
  0.00000000e+00  0.00000000e+00  0.00000000e+00  2.99576640e-06]","[[ 7.00370035e-05  5.68146184e-03]
 [-2.36294302e-04  2.29428042e-03]]",[],0.0,0.0
1787581808.407777,1.0455670671873483,-0.4030293324829665,1.9500135118548503,"[ 9.84003296e-06  2.64592770e-07  0.00000000e+00  0.00000000e+00
  0.00000000e+00 -2.87141381e-07  2.64592770e-07  1.00287845e-05
  0.00000000e+00  0.00000000e+00  0.00000000e+00 -2.65242063e-07
  0.00000000e+00  0.00000000e+00  0.00000000e+00  0.00000000e+00
  0.00000000e+00  0.00000000e+00  0.00000000e+00  0.00000000e+00
  0.00000000e+00  0.00000000e+00  0.00000000e+00  0.00000000e+00
  0.00000000e+00  0.00000000e+00  0.00000000e+00  0.00000000e+00
  0.00000000e+00  0.00000000e+00 -2.87141381e-07 -2.65242063e-07
  0.00000000e+00  0.00000000e+00  0.00000000e+00  2.99576640e-06]","[[ 7.00370035e-05  5.68146184e-03]
 [-2.36294302e-04  2.29428042e-03]]",[],0.0,0.0
1787581808.4562614,1.0455670671873483,-0.4030293324829665,1.9500135118548503,"[ 9.84003296e-06  2.64592770e-07  0.00000000e+00  0.00000000e+00
  0.00000000e+00 -2.87141381e-07  2.64592770e-07  1.00287845e-05
  0.00000000e+00  0.00000000e+00  0.00000000e+00 -2.65242063e-07
  0.00000000e+00  0.00000000e+00  0.00000000e+00  0.00000000e+00
  0.00000000e+00  0.00000000e+00  0.00000000e+00  0.00000000e+00
  0.00000000e+00  0.00000000e+00  0.00000000e+00  0.00000000e+00
  0.00000000e+00  0.00000000e+00  0.00000000e+00  0.00000000e+00
  0.00000000e+00  0.00000000e+00 -2.87141381e-07 -2.65242063e-07
  0.00000000e+00  0.00000000e+00  0.00000000e+00  2.99576640e-06]","[[ 7.00370035e-05  5.68146184e-03]
 [-2.36294302e-04  2.29428042e-03]]",[],0.0,0.0
1787581808.5023115,1.049494036100184,-0.4037662589518307,1.9543655285398707,"[ 8.22065426e-06  1.56981959e-07  0.00000000e+00  0.00000000e+00
  0.00000000e+00 -2.89196933e-07  1.56981959e-07  8.49725478e-06
  0.00000000e+00  0.00000000e+00  0.00000000e+00 -1.10546348e-07
  0.00000000e+00  0.00000000e+00  0.00000000e+00  0.00000000e+00
  0.00000000e+00  0.00000000e+00  0.00000000e+00  0.00000000e+00
  0.00000000e+00  0.00000000e+00  0.00000000e+00  0.00000000e+00
  0.00000000e+00  0.00000000e+00  0.00000000e+00  0.00000000e+00
  0.00000000e+00  0.00000000e+00 -2.89196933e-07 -1.10546348e-07
  0.00000000e+00  0.00000000e+00  0.00000000e+00  2.91129530e-06]","[[ 6.05298159e-05  4.81780667e-03]
 [-2.00553788e-04  1.73244544e-03]]",[],0.0,0.0
1787581808.5533178,1.049494036100184,-0.4037662589518307,1.9543655285398707,"[ 8.22065426e-06  1.56981959e-07  0.00000000e+00  0.00000000e+00
  0.00000000e+00 -2.89196933e-07  1.56981959e-07  8.49725478e-06
  0.00000000e+00  0.00000000e+00  0.00000000e+00 -1.10546348e-07
  0.00000000e+00  0.00000000e+00  0.00000000e+00  0.00000000e+00
  0.00000000e+00  0.00000000e+00  0.00000000e+00  0.00000000e+00
  0.00000000e+00  0.00000000e+00  0.00000000e+00  0.00000000e+00
  0.00000000e+00  0.00000000e+00  0.00000000e+00  0.00000000e+00
  0.00000000e+00  0.00000000e+00 -2.89196933e-07 -1.10546348e-07
  0.00000000e+00  0.00000000e+00  0.00000000e+00  2.91129530e-06]","[[ 6.05298159e-05  4.81780667e-03]
 [-2.00553788e-04  1.73244544e-03]]",[],0.0,0.0
1787581808.6046681,1.049494036100184,-0.4037662589518307,1.9543655285398707,"[ 8.22065426e-06  1.56981959e-07  0.00000000e+00  0.00000000e+00
  0.00000000e+00 -2.89196933e-07  1.56981959e-07  8.49725478e-06
  0.00000000e+00  0.00000000e+00  0.00000000e+00 -1.10546348e-07
  0.00000000e+00  0.00000000e+00  0.00000000e+00  0.00000000e+00
  0.00000000e+00  0.00000000e+00  0.00000000e+00  0.00000000e+00
  0.00000000e+00  0.00000000e+00  0.00000000e+00  0.00000000e+00
  0.00000000e+00  0.00000000e+00  0.00000000e+00  0.00000000e+00
  0.00000000e+00  0.00000000e+00 -2.89196933e-07 -1.10546348e-07
  0.00000000e+00  0.00000000e+00  0.00000000e+00  2.91129530e-06]","[[ 6.05298159e-05  4.81780667e-03]
 [-2.00553788e-04  1.73244544e-03]]",[],0.0,0.0
1787581808.6538818,1.049494036100184,-0.4037662589518307,1.9543655285398707,"[ 8.22065426e-06  1.56981959e-07  0.00000000e+00  0.00000000e+00
  0.00000000e+00 -2.89196933e-07  1.56981959e-07  8.49725478e-06
  0.00000000e+00  0.00000000e+00  0.00000000e+00 -1.10546348e-07
  0.00000000e+00  0.00000000e+00  0.00000000e+00  0.00000000e+00
  0.00000000e+00  0.00000000e+00  0.00000000e+00  0.00000000e+00
  0.00000000e+00  0.00000000e+00  0.00000000e+00  0.00000000e+00
  0.00000000e+00  0.00000000e+00  0.00000000e+00  0.00000000e+00
  0.00000000e+00  0.00000000e+00 -2.89196933e-07 -1.10546348e-07
  0.00000000e+00  0.00000000e+00  0.00000000e+00  2.91129530e-06]","[[ 6.05298159e-05  4.81780667e-03]
 [-2.00553788e-04  1.73244544e-03]]",[],0.0,0.0
1787581808.7030952,1.049494036100184,-0.4037662589518307,1.9543655285398707,"[ 8.22065426e-06  1.56981959e-07  0.00000000e+00  0.00000000e+00
  0.00000000e+00 -2.89196933e-07  1.56981959e-07  8.49725478e-06
  0.00000000e+00  0.00000000e+00  0.00000000e+00 -1.10546348e-07
  0.00000000e+00  0.00000000e+00  0.00000000e+00  0.00000000e+00
  0.00000000e+00  0.00000000e+00  0.00000000e+00  0.00000000e+00
  0.00000000e+00  0.00000000e+00  0.00000000e+00  0.00000000e+00
  0.00000000e+00  0.00000000e+00  0.00000000e+00  0.00000000e+00
  0.00000000e+00  0.00000000e+00 -2.89196933e-07 -1.10546348e-07
  0.00000000e+00  0.00000000e+00  0.00000000e+00  2.91129530e-06]","[[ 6.05298159e-05  4.81780667e-03]
 [-2.00553788e-04  1.73244544e-03]]",[],0.0,0.0
1787581808.7570422,1.049494036100184,-0.4037662589518307,1.9543655285398707,"[ 8.22065426e-06  1.56981959e-07  0.00000000e+00  0.00000000e+00
  0.00000000e+00 -2.89196933e-07  1.56981959e-07  8.49725478e-06
  0.00000000e+00  0.00000000e+00  0.00000000e+00 -1.10546348e-07
  0.00000000e+00  0.00000000e+00  0.00000000e+00  0.00000000e+00
  0.00000000e+00  0.00000000e+00  0.00000000e+00  0.00000000e+00
  0.00000000e+00  0.00000000e+00  0.00000000e+00  0.00000000e+00
  0.00000000e+00  0.00000000e+00  0.00000000e+00  0.00000000e+00
  0.00000000e+00  0.00000000e+00 -2.89196933e-07 -1.10546348e-07
  0.00000000e+00  0.00000000e+00  0.00000000e+00  2.91129530e-06]","[[ 6.05298159e-05  4.81780667e-03]
 [-2.00553788e-04  1.73244544e-03]]",[],0.0,0.0
1787581808.804392,1.049494036100184,-0.4037662589518307,1.9543655285398707,"[ 8.22065426e-06  1.56981959e-07  0.00000000e+00  0.00000000e+00
  0.00000000e+00 -2.89196933e-07  1.56981959e-07  8.49725478e-06
  0.00000000e+00  0.00000000e+00  0.00000000e+00 -1.10546348e-07
  0.00000000e+00  0.00000000e+00  0.00000000e+00  0.00000000e+00
  0.00000000e+00  0.00000000e+00  0.00000000e+00  0.00000000e+00
  0.00000000e+00  0.00000000e+00  0.00000000e+00  0.00000000e+00
  0.00000000e+00  0.00000000e+00  0.00000000e+00  0.00000000e+00
  0.00000000e+00  0.00000000e+00 -2.89196933e-07 -1.10546348e-07
  0.00000000e+00  0.00000000e+00  0.00000000e+00  2.91129530e-06]","[[ 6.05298159e-05  4.81780667e-03]
 [-2.00553788e-04  1.73244544e-03]]",[],0.0,0.0
1787581808.8630276,1.049494036100184,-0.4037662589518307,1.9543655285398707,"[ 8.22065426e-06  1.56981959e-07  0.00000000e+00  0.00000000e+00
  0.00000000e+00 -2.89196933e-07  1.56981959e-07  8.49725478e-06
  0.00000000e+00  0.00000000e+00  0.00000000e+00 -1.10546348e-07
  0.00000000e+00  0.00000000e+00  0.00000000e+00  0.00000000e+00
  0.00000000e+00  0.00000000e+00  0.00000000e+00  0.00000000e+00
  0.00000000e+00  0.00000000e+00  0.00000000e+00  0.00000000e+00
  0.00000000e+00  0.00000000e+00  0.00000000e+00  0.00000000e+00
  0.00000000e+00  0.00000000e+00 -2.89196933e-07 -1.10546348e-07
  0.00000000e+00  0.00000000e+00  0.00000000e+00  2.91129530e-06]","[[ 6.05298159e-05  4.81780667e-03]
 [-2.00553788e-04  1.73244544e-03]]",[],0.0,0.0
1787581808.902368,1.049494036100184,-0.4037662589518307,1.9543655285398707,"[ 8.22065426e-06  1.56981959e-07  0.00000000e+00  0.00000000e+00
  0.00000000e+00 -2.89196933e-07  1.56981959e-07  8.49725478e-06
  0.00000000e+00  0.00000000e+00  0.00000000e+00 -1.10546348e-07
  0.00000000e+00  0.00000000e+00  0.00000000e+00  0.00000000e+00
  0.00000000e+00  0.00000000e+00  0.00000000e+00  0.00000000e+00
  0.00000000e+00  0.00000000e+00  0.00000000e+00  0.00000000e+00
  0.00000000e+00  0.00000000e+00  0.00000000e+00  0.00000000e+00
  0.00000000e+00  0.00000000e+00 -2.89196933e-07 -1.10546348e-07
  0.00000000e+00  0.00000000e+00  0.00000000e+00  2.91129530e-06]","[[ 6.05298159e-05  4.81780667e-03]
 [-2.00553788e-04  1.73244544e-03]]",[],0.0,0.0
1787581808.9585047,1.049494036100184,-0.4037662589518307,1.9543655285398707,"[ 8.22065426e-06  1.56981959e-07  0.00000000e+00  0.00000000e+00
  0.00000000e+00 -2.89196933e-07  1.56981959e-07  8.49725478e-06
  0.00000000e+00  0.00000000e+00  0.00000000e+00 -1.10546348e-07
  0.00000000e+00  0.00000000e+00  0.00000000e+00  0.00000000e+00
  0.00000000e+00  0.00000000e+00  0.00000000e+00  0.00000000e+00
  0.00000000e+00  0.00000000e+00  0.00000000e+00  0.00000000e+00
  0.00000000e+00  0.00000000e+00  0.00000000e+00  0.00000000e+00
  0.00000000e+00  0.00000000e+00 -2.89196933e-07 -1.10546348e-07
  0.00000000e+00  0.00000000e+00  0.00000000e+00  2.91129530e-06]","[[ 6.05298159e-05  4.81780667e-03]
 [-2.00553788e-04  1.73244544e-03]]",[],0.0,0.0
1787581809.002176,1.049494036100184,-0.4037662589518307,1.9543655285398707,"[ 8.22065426e-06  1.56981959e-07  0.00000000e+00  0.00000000e+00
  0.00000000e+00 -2.89196933e-07  1.56981959e-07  8.49725478e-06
  0.00000000e+00  0.00000000e+00  0.00000000e+00 -1.10546348e-07
  0.00000000e+00  0.00000000e+00  0.00000000e+00  0.00000000e+00
  0.00000000e+00  0.00000000e+00  0.00000000e+00  0.00000000e+00
  0.00000000e+00  0.00000000e+00  0.00000000e+00  0.00000000e+00
  0.00000000e+00  0.00000000e+00  0.00000000e+00  0.00000000e+00
  0.00000000e+00  0.00000000e+00 -2.89196933e-07 -1.10546348e-07
  0.00000000e+00  0.00000000e+00  0.00000000e+00  2.91129530e-06]","[[ 6.05298159e-05  4.81780667e-03]
 [-2.00553788e-04  1.73244544e-03]]",[],0.0,0.0
1787581809.0535495,1.049494036100184,-0.4037662589518307,1.9543655285398707,"[ 8.22065426e-06  1.56981959e-07  0.00000000e+00  0.00000000e+00
  0.00000000e+00 -2.89196933e-07  1.56981959e-07  8.49725478e-06
  0.00000000e+00  0.00000000e+00  0.00000000e+00 -1.10546348e-07
  0.00000000e+00  0.00000000e+00  0.00000000e+00  0.00000000e+00
  0.00000000e+00  0.00000000e+00  0.00000000e+00  0.00000000e+00
  0.00000000e+00  0.00000000e+00  0.00000000e+00  0.00000000e+00
  0.00000000e+00  0.00000000e+00  0.00000000e+00  0.00000000e+00
  0.00000000e+00  0.00000000e+00 -2.89196933e-07 -1.10546348e-07
  0.00000000e+00  0.00000000e+00  0.00000000e+00  2.91129530e-06]","[[ 6.05298159e-05  4.81780667e-03]
 [-2.00553788e-04  1.73244544e-03]]",[],0.0,0.0
1787581809.1032336,1.049494036100184,-0.4037662589518307,1.9543655285398707,"[ 8.22065426e-06  1.56981959e-07  0.00000000e+00  0.00000000e+00
  0.00000000e+00 -2.89196933e-07  1.56981959e-07  8.49725478e-06
  0.00000000e+00  0.00000000e+00  0.00000000e+00 -1.10546348e-07
  0.00000000e+00  0.00000000e+00  0.00000000e+00  0.00000000e+00
  0.00000000e+00  0.00000000e+00  0.00000000e+00  0.00000000e+00
  0.00000000e+00  0.00000000e+00  0.00000000e+00  0.00000000e+00
  0.00000000e+00  0.00000000e+00  0.00000000e+00  0.00000000e+00
  0.00000000e+00  0.00000000e+00 -2.89196933e-07 -1.10546348e-07
  0.00000000e+00  0.00000000e+00  0.00000000e+00  2.91129530e-06]","[[ 6.05298159e-05  4.81780667e-03]
 [-2.00553788e-04  1.73244544e-03]]",[],0.0,0.0
1787581809.1523347,1.049494036100184,-0.4037662589518307,1.9543655285398707,"[ 8.22065426e-06  1.56981959e-07  0.00000000e+00  0.00000000e+00
  0.00000000e+00 -2.89196933e-07  1.56981959e-07  8.49725478e-06
  0.00000000e+00  0.00000000e+00  0.00000000e+00 -1.10546348e-07
  0.00000000e+00  0.00000000e+00  0.00000000e+00  0.00000000e+00
  0.00000000e+00  0.00000000e+00  0.00000000e+00  0.00000000e+00
  0.00000000e+00  0.00000000e+00  0.00000000e+00  0.00000000e+00
  0.00000000e+00  0.00000000e+00  0.00000000e+00  0.00000000e+00
  0.00000000e+00  0.00000000e+00 -2.89196933e-07 -1.10546348e-07
  0.00000000e+00  0.00000000e+00  0.00000000e+00  2.91129530e-06]","[[ 6.05298159e-05  4.81780667e-03]
 [-2.00553788e-04  1.73244544e-03]]",[],0.0,0.0
1787581809.2024806,1.049494036100184,-0.4037662589518307,1.9543655285398707,"[ 8.22065426e-06  1.56981959e-07  0.00000000e+00  0.00000000e+00
  0.00000000e+00 -2.89196933e-07  1.56981959e-07  8.49725478e-06
  0.00000000e+00  0.00000000e+00  0.00000000e+00 -1.10546348e-07
  0.00000000e+00  0.00000000e+00  0.00000000e+00  0.00000000e+00
  0.00000000e+00  0.00000000e+00  0.00000000e+00  0.00000000e+00
  0.00000000e+00  0.00000000e+00  0.00000000e+00  0.00000000e+00
  0.00000000e+00  0.00000000e+00  0.00000000e+00  0.00000000e+00
  0.00000000e+00  0.00000000e+00 -2.89196933e-07 -1.10546348e-07
  0.00000000e+00  0.00000000e+00  0.00000000e+00  2.91129530e-06]","[[ 6.05298159e-05  4.81780667e-03]
 [-2.00553788e-04  1.73244544e-03]]",[],0.0,0.0
1787581809.252755,1.049494036100184,-0.4037662589518307,1.9543655285398707,"[ 8.22065426e-06  1.56981959e-07  0.00000000e+00  0.00000000e+00
  0.00000000e+00 -2.89196933e-07  1.56981959e-07  8.49725478e-06
  0.00000000e+00  0.00000000e+00  0.00000000e+00 -1.10546348e-07
  0.00000000e+00  0.00000000e+00  0.00000000e+00  0.00000000e+00
  0.00000000e+00  0.00000000e+00  0.00000000e+00  0.00000000e+00
  0.00000000e+00  0.00000000e+00  0.00000000e+00  0.00000000e+00
  0.00000000e+00  0.00000000e+00  0.00000000e+00  0.00000000e+00
  0.00000000e+00  0.00000000e+00 -2.89196933e-07 -1.10546348e-07
  0.00000000e+00  0.00000000e+00  0.00000000e+00  2.91129530e-06]","[[ 6.05298159e-05  4.81780667e-03]
 [-2.00553788e-04  1.73244544e-03]]",[],0.0,0.0
1787581809.3024328,1.049494036100184,-0.4037662589518307,1.9543655285398707,"[ 8.22065426e-06  1.56981959e-07  0.00000000e+00  0.00000000e+00
  0.00000000e+00 -2.89196933e-07  1.56981959e-07  8.49725478e-06
  0.00000000e+00  0.00000000e+00  0.00000000e+00 -1.10546348e-07
  0.00000000e+00  0.00000000e+00  0.00000000e+00  0.00000000e+00
  0.00000000e+00  0.00000000e+00  0.00000000e+00  0.00000000e+00
  0.00000000e+00  0.00000000e+00  0.00000000e+00  0.00000000e+00
  0.00000000e+00  0.00000000e+00  0.00000000e+00  0.00000000e+00
  0.00000000e+00  0.00000000e+00 -2.89196933e-07 -1.10546348e-07
  0.00000000e+00  0.00000000e+00  0.00000000e+00  2.91129530e-06]","[[ 6.05298159e-05  4.81780667e-03]
 [-2.00553788e-04  1.73244544e-03]]",[],0.0,0.0
1787581809.3524153,1.049494036100184,-0.4037662589518307,1.9543655285398707,"[ 8.22065426e-06  1.56981959e-07  0.00000000e+00  0.00000000e+00
  0.00000000e+00 -2.89196933e-07  1.56981959e-07  8.49725478e-06
  0.00000000e+00  0.00000000e+00  0.00000000e+00 -1.10546348e-07
  0.00000000e+00  0.00000000e+00  0.00000000e+00  0.00000000e+00
  0.00000000e+00  0.00000000e+00  0.00000000e+00  0.00000000e+00
  0.00000000e+00  0.00000000e+00  0.00000000e+00  0.00000000e+00
  0.00000000e+00  0.00000000e+00  0.00000000e+00  0.00000000e+00
  0.00000000e+00  0.00000000e+00 -2.89196933e-07 -1.10546348e-07
  0.00000000e+00  0.00000000e+00  0.00000000e+00  2.91129530e-06]","[[ 6.05298159e-05  4.81780667e-03]
 [-2.00553788e-04  1.73244544e-03]]",[],0.0,0.0
1787581809.40969,1.049494036100184,-0.4037662589518307,1.9543655285398707,"[ 8.22065426e-06  1.56981959e-07  0.00000000e+00  0.00000000e+00
  0.00000000e+00 -2.89196933e-07  1.56981959e-07  8.49725478e-06
  0.00000000e+00  0.00000000e+00  0.00000000e+00 -1.10546348e-07
  0.00000000e+00  0.00000000e+00  0.00000000e+00  0.00000000e+00
  0.00000000e+00  0.00000000e+00  0.00000000e+00  0.00000000e+00
  0.00000000e+00  0.00000000e+00  0.00000000e+00  0.00000000e+00
  0.00000000e+00  0.00000000e+00  0.00000000e+00  0.00000000e+00
  0.00000000e+00  0.00000000e+00 -2.89196933e-07 -1.10546348e-07
  0.00000000e+00  0.00000000e+00  0.00000000e+00  2.91129530e-06]","[[ 6.05298159e-05  4.81780667e-03]
 [-2.00553788e-04  1.73244544e-03]]",[],0.0,0.0
1787581809.4523242,1.049494036100184,-0.4037662589518307,1.9543655285398707,"[ 8.22065426e-06  1.56981959e-07  0.00000000e+00  0.00000000e+00
  0.00000000e+00 -2.89196933e-07  1.56981959e-07  8.49725478e-06
  0.00000000e+00  0.00000000e+00  0.00000000e+00 -1.10546348e-07
  0.00000000e+00  0.00000000e+00  0.00000000e+00  0.00000000e+00
  0.00000000e+00  0.00000000e+00  0.00000000e+00  0.00000000e+00
  0.00000000e+00  0.00000000e+00  0.00000000e+00  0.00000000e+00
  0.00000000e+00  0.00000000e+00  0.00000000e+00  0.00000000e+00
  0.00000000e+00  0.00000000e+00 -2.89196933e-07 -1.10546348e-07
  0.00000000e+00  0.00000000e+00  0.00000000e+00  2.91129530e-06]","[[ 6.05298159e-05  4.81780667e-03]
 [-2.00553788e-04  1.73244544e-03]]",[],0.0,0.0
1787581809.5045116,1.0539805032383212,-0.4016949956707326,1.9663107347174362,"[ 7.07037454e-06  3.99727037e-08  0.00000000e+00  0.00000000e+00
  0.00000000e+00 -2.48417300e-07  3.99727037e-08  7.43078839e-06
  0.00000000e+00  0.00000000e+00  0.00000000e+00 -1.59481945e-07
  0.00000000e+00  0.00000000e+00  0.00000000e+00  0.00000000e+00
  0.00000000e+00  0.00000000e+00  0.00000000e+00  0.00000000e+00
  0.00000000e+00  0.00000000e+00  0.00000000e+00  0.00000000e+00
  0.00000000e+00  0.00000000e+00  0.00000000e+00  0.00000000e+00
  0.00000000e+00  0.00000000e+00 -2.48417300e-07 -1.59481945e-07
  0.00000000e+00  0.00000000e+00  0.00000000e+00  2.99934755e-06]","[[ 5.45135022e-05  4.12294641e-03]
 [-1.76074401e-04  1.57155331e-03]]",[],0.0,0.0
1787581809.562547,1.0539805032383212,-0.4016949956707326,1.9663107347174362,"[ 7.07037454e-06  3.99727037e-08  0.00000000e+00  0.00000000e+00
  0.00000000e+00 -2.48417300e-07  3.99727037e-08  7.43078839e-06
  0.00000000e+00  0.00000000e+00  0.00000000e+00 -1.59481945e-07
  0.00000000e+00  0.00000000e+00  0.00000000e+00  0.00000000e+00
  0.00000000e+00  0.00000000e+00  0.00000000e+00  0.00000000e+00
  0.00000000e+00  0.00000000e+00  0.00000000e+00  0.00000000e+00
  0.00000000e+00  0.00000000e+00  0.00000000e+00  0.00000000e+00
  0.00000000e+00  0.00000000e+00 -2.48417300e-07 -1.59481945e-07
  0.00000000e+00  0.00000000e+00  0.00000000e+00  2.99934755e-06]","[[ 5.45135022e-05  4.12294641e-03]
 [-1.76074401e-04  1.57155331e-03]]",[],0.0,0.0
1787581809.6051636,1.0539805032383212,-0.4016949956707326,1.9663107347174362,"[ 7.07037454e-06  3.99727037e-08  0.00000000e+00  0.00000000e+00
  0.00000000e+00 -2.48417300e-07  3.99727037e-08  7.43078839e-06
  0.00000000e+00  0.00000000e+00  0.00000000e+00 -1.59481945e-07
  0.00000000e+00  0.00000000e+00  0.00000000e+00  0.00000000e+00
  0.00000000e+00  0.00000000e+00  0.00000000e+00  0.00000000e+00
  0.00000000e+00  0.00000000e+00  0.00000000e+00  0.00000000e+00
  0.00000000e+00  0.00000000e+00  0.00000000e+00  0.00000000e+00
  0.00000000e+00  0.00000000e+00 -2.48417300e-07 -1.59481945e-07
  0.00000000e+00  0.00000000e+00  0.00000000e+00  2.99934755e-06]","[[ 5.45135022e-05  4.12294641e-03]
 [-1.76074401e-04  1.57155331e-03]]",[],0.0,0.0
1787581809.655278,1.0539805032383212,-0.4016949956707326,1.9663107347174362,"[ 7.07037454e-06  3.99727037e-08  0.00000000e+00  0.00000000e+00
  0.00000000e+00 -2.48417300e-07  3.99727037e-08  7.43078839e-06
  0.00000000e+00  0.00000000e+00  0.00000000e+00 -1.59481945e-07
  0.00000000e+00  0.00000000e+00  0.00000000e+00  0.00000000e+00
  0.00000000e+00  0.00000000e+00  0.00000000e+00  0.00000000e+00
  0.00000000e+00  0.00000000e+00  0.00000000e+00  0.00000000e+00
  0.00000000e+00  0.00000000e+00  0.00000000e+00  0.00000000e+00
  0.00000000e+00  0.00000000e+00 -2.48417300e-07 -1.59481945e-07
  0.00000000e+00  0.00000000e+00  0.00000000e+00  2.99934755e-06]","[[ 5.45135022e-05  4.12294641e-03]
 [-1.76074401e-04  1.57155331e-03]]",[],0.0,0.0
1787581809.7082362,1.0539805032383212,-0.4016949956707326,1.9663107347174362,"[ 7.07037454e-06  3.99727037e-08  0.00000000e+00  0.00000000e+00
  0.00000000e+00 -2.48417300e-07  3.99727037e-08  7.43078839e-06
  0.00000000e+00  0.00000000e+00  0.00000000e+00 -1.59481945e-07
  0.00000000e+00  0.00000000e+00  0.00000000e+00  0.00000000e+00
  0.00000000e+00  0.00000000e+00  0.00000000e+00  0.00000000e+00
  0.00000000e+00  0.00000000e+00  0.00000000e+00  0.00000000e+00
  0.00000000e+00  0.00000000e+00  0.00000000e+00  0.00000000e+00
  0.00000000e+00  0.00000000e+00 -2.48417300e-07 -1.59481945e-07
  0.00000000e+00  0.00000000e+00  0.00000000e+00  2.99934755e-06]","[[ 5.45135022e-05  4.12294641e-03]
 [-1.76074401e-04  1.57155331e-03]]",[],0.0,0.0
1787581809.7597704,1.0539805032383212,-0.4016949956707326,1.9663107347174362,"[ 7.07037454e-06  3.99727037e-08  0.00000000e+00  0.00000000e+00
  0.00000000e+00 -2.48417300e-07  3.99727037e-08  7.43078839e-06
  0.00000000e+00  0.00000000e+00  0.00000000e+00 -1.59481945e-07
  0.00000000e+00  0.00000000e+00  0.00000000e+00  0.00000000e+00
  0.00000000e+00  0.00000000e+00  0.00000000e+00  0.00000000e+00
  0.00000000e+00  0.00000000e+00  0.00000000e+00  0.00000000e+00
  0.00000000e+00  0.00000000e+00  0.00000000e+00  0.00000000e+00
  0.00000000e+00  0.00000000e+00 -2.48417300e-07 -1.59481945e-07
  0.00000000e+00  0.00000000e+00  0.00000000e+00  2.99934755e-06]","[[ 5.45135022e-05  4.12294641e-03]
 [-1.76074401e-04  1.57155331e-03]]",[],0.0,0.0
1787581809.8042188,1.0539805032383212,-0.4016949956707326,1.9663107347174362,"[ 7.07037454e-06  3.99727037e-08  0.00000000e+00  0.00000000e+00
  0.00000000e+00 -2.48417300e-07  3.99727037e-08  7.43078839e-06
  0.00000000e+00  0.00000000e+00  0.00000000e+00 -1.59481945e-07
  0.00000000e+00  0.00000000e+00  0.00000000e+00  0.00000000e+00
  0.00000000e+00  0.00000000e+00  0.00000000e+00  0.00000000e+00
  0.00000000e+00  0.00000000e+00  0.00000000e+00  0.00000000e+00
  0.00000000e+00  0.00000000e+00  0.00000000e+00  0.00000000e+00
  0.00000000e+00  0.00000000e+00 -2.48417300e-07 -1.59481945e-07
  0.00000000e+00  0.00000000e+00  0.00000000e+00  2.99934755e-06]","[[ 5.45135022e-05  4.12294641e-03]
 [-1.76074401e-04  1.57155331e-03]]",[],0.0,0.0
1787581809.852659,1.0539805032383212,-0.4016949956707326,1.9663107347174362,"[ 7.07037454e-06  3.99727037e-08  0.00000000e+00  0.00000000e+00
  0.00000000e+00 -2.48417300e-07  3.99727037e-08  7.43078839e-06
  0.00000000e+00  0.00000000e+00  0.00000000e+00 -1.59481945e-07
  0.00000000e+00  0.00000000e+00  0.00000000e+00  0.00000000e+00
  0.00000000e+00  0.00000000e+00  0.00000000e+00  0.00000000e+00
  0.00000000e+00  0.00000000e+00  0.00000000e+00  0.00000000e+00
  0.00000000e+00  0.00000000e+00  0.00000000e+00  0.00000000e+00
  0.00000000e+00  0.00000000e+00 -2.48417300e-07 -1.59481945e-07
  0.00000000e+00  0.00000000e+00  0.00000000e+00  2.99934755e-06]","[[ 5.45135022e-05  4.12294641e-03]
 [-1.76074401e-04  1.57155331e-03]]",[],0.0,0.0
1787581809.9021332,1.0539805032383212,-0.4016949956707326,1.9663107347174362,"[ 7.07037454e-06  3.99727037e-08  0.00000000e+00  0.00000000e+00
  0.00000000e+00 -2.48417300e-07  3.99727037e-08  7.43078839e-06
  0.00000000e+00  0.00000000e+00  0.00000000e+00 -1.59481945e-07
  0.00000000e+00  0.00000000e+00  0.00000000e+00  0.00000000e+00
  0.00000000e+00  0.00000000e+00  0.00000000e+00  0.00000000e+00
  0.00000000e+00  0.00000000e+00  0.00000000e+00  0.00000000e+00
  0.00000000e+00  0.00000000e+00  0.00000000e+00  0.00000000e+00
  0.00000000e+00  0.00000000e+00 -2.48417300e-07 -1.59481945e-07
  0.00000000e+00  0.00000000e+00  0.00000000e+00  2.99934755e-06]","[[ 5.45135022e-05  4.12294641e-03]
 [-1.76074401e-04  1.57155331e-03]]",[],0.0,0.0
1787581809.9532187,1.0539805032383212,-0.4016949956707326,1.9663107347174362,"[ 7.07037454e-06  3.99727037e-08  0.00000000e+00  0.00000000e+00
  0.00000000e+00 -2.48417300e-07  3.99727037e-08  7.43078839e-06
  0.00000000e+00  0.00000000e+00  0.00000000e+00 -1.59481945e-07
  0.00000000e+00  0.00000000e+00  0.00000000e+00  0.00000000e+00
  0.00000000e+00  0.00000000e+00  0.00000000e+00  0.00000000e+00
  0.00000000e+00  0.00000000e+00  0.00000000e+00  0.00000000e+00
  0.00000000e+00  0.00000000e+00  0.00000000e+00  0.00000000e+00
  0.00000000e+00  0.00000000e+00 -2.48417300e-07 -1.59481945e-07
  0.00000000e+00  0.00000000e+00  0.00000000e+00  2.99934755e-06]","[[ 5.45135022e-05  4.12294641e-03]
 [-1.76074401e-04  1.57155331e-03]]",[],0.0,0.0
1787581810.0027435,1.0539805032383212,-0.4016949956707326,1.9663107347174362,"[ 7.07037454e-06  3.99727037e-08  0.00000000e+00  0.00000000e+00
  0.00000000e+00 -2.48417300e-07  3.99727037e-08  7.43078839e-06
  0.00000000e+00  0.00000000e+00  0.00000000e+00 -1.59481945e-07
  0.00000000e+00  0.00000000e+00  0.00000000e+00  0.00000000e+00
  0.00000000e+00  0.00000000e+00  0.00000000e+00  0.00000000e+00
  0.00000000e+00  0.00000000e+00  0.00000000e+00  0.00000000e+00
  0.00000000e+00  0.00000000e+00  0.00000000e+00  0.00000000e+00
  0.00000000e+00  0.00000000e+00 -2.48417300e-07 -1.59481945e-07
  0.00000000e+00  0.00000000e+00  0.00000000e+00  2.99934755e-06]","[[ 5.45135022e-05  4.12294641e-03]
 [-1.76074401e-04  1.57155331e-03]]",[],0.0,0.0
1787581810.053481,1.0539805032383212,-0.4016949956707326,1.9663107347174362,"[ 7.07037454e-06  3.99727037e-08  0.00000000e+00  0.00000000e+00
  0.00000000e+00 -2.48417300e-07  3.99727037e-08  7.43078839e-06
  0.00000000e+00  0.00000000e+00  0.00000000e+00 -1.59481945e-07
  0.00000000e+00  0.00000000e+00  0.00000000e+00  0.00000000e+00
  0.00000000e+00  0.00000000e+00  0.00000000e+00  0.00000000e+00
  0.00000000e+00  0.00000000e+00  0.00000000e+00  0.00000000e+00
  0.00000000e+00  0.00000000e+00  0.00000000e+00  0.00000000e+00
  0.00000000e+00  0.00000000e+00 -2.48417300e-07 -1.59481945e-07
  0.00000000e+00  0.00000000e+00  0.00000000e+00  2.99934755e-06]","[[ 5.45135022e-05  4.12294641e-03]
 [-1.76074401e-04  1.57155331e-03]]",[],0.0,0.0
1787581810.1041636,1.0539805032383212,-0.4016949956707326,1.9663107347174362,"[ 7.07037454e-06  3.99727037e-08  0.00000000e+00  0.00000000e+00
  0.00000000e+00 -2.48417300e-07  3.99727037e-08  7.43078839e-06
  0.00000000e+00  0.00000000e+00  0.00000000e+00 -1.59481945e-07
  0.00000000e+00  0.00000000e+00  0.00000000e+00  0.00000000e+00
  0.00000000e+00  0.00000000e+00  0.00000000e+00  0.00000000e+00
  0.00000000e+00  0.00000000e+00  0.00000000e+00  0.00000000e+00
  0.00000000e+00  0.00000000e+00  0.00000000e+00  0.00000000e+00
  0.00000000e+00  0.00000000e+00 -2.48417300e-07 -1.59481945e-07
  0.00000000e+00  0.00000000e+00  0.00000000e+00  2.99934755e-06]","[[ 5.45135022e-05  4.12294641e-03]
 [-1.76074401e-04  1.57155331e-03]]",[],0.0,0.0
1787581810.1524587,1.0539805032383212,-0.4016949956707326,1.9663107347174362,"[ 7.07037454e-06  3.99727037e-08  0.00000000e+00  0.00000000e+00
  0.00000000e+00 -2.48417300e-07  3.99727037e-08  7.43078839e-06
  0.00000000e+00  0.00000000e+00  0.00000000e+00 -1.59481945e-07
  0.00000000e+00  0.00000000e+00  0.00000000e+00  0.00000000e+00
  0.00000000e+00  0.00000000e+00  0.00000000e+00  0.00000000e+00
  0.00000000e+00  0.00000000e+00  0.00000000e+00  0.00000000e+00
  0.00000000e+00  0.00000000e+00  0.00000000e+00  0.00000000e+00
  0.00000000e+00  0.00000000e+00 -2.48417300e-07 -1.59481945e-07
  0.00000000e+00  0.00000000e+00  0.00000000e+00  2.99934755e-06]","[[ 5.45135022e-05  4.12294641e-03]
 [-1.76074401e-04  1.57155331e-03]]",[],0.0,0.0
1787581810.2059195,1.0539805032383212,-0.4016949956707326,1.9663107347174362,"[ 7.07037454e-06  3.99727037e-08  0.00000000e+00  0.00000000e+00
  0.00000000e+00 -2.48417300e-07  3.99727037e-08  7.43078839e-06
  0.00000000e+00  0.00000000e+00  0.00000000e+00 -1.59481945e-07
  0.00000000e+00  0.00000000e+00  0.00000000e+00  0.00000000e+00
  0.00000000e+00  0.00000000e+00  0.00000000e+00  0.00000000e+00
  0.00000000e+00  0.00000000e+00  0.00000000e+00  0.00000000e+00
  0.00000000e+00  0.00000000e+00  0.00000000e+00  0.00000000e+00
  0.00000000e+00  0.00000000e+00 -2.48417300e-07 -1.59481945e-07
  0.00000000e+00  0.00000000e+00  0.00000000e+00  2.99934755e-06]","[[ 5.45135022e-05  4.12294641e-03]
 [-1.76074401e-04  1.57155331e-03]]",[],0.0,0.0
1787581810.25414,1.0539805032383212,-0.4016949956707326,1.9663107347174362,"[ 7.07037454e-06  3.99727037e-08  0.00000000e+00  0.00000000e+00
  0.00000000e+00 -2.48417300e-07  3.99727037e-08  7.43078839e-06
  0.00000000e+00  0.00000000e+00  0.00000000e+00 -1.59481945e-07
  0.00000000e+00  0.00000000e+00  0.00000000e+00  0.00000000e+00
  0.00000000e+00  0.00000000e+00  0.00000000e+00  0.00000000e+00
  0.00000000e+00  0.00000000e+00  0.00000000e+00  0.00000000e+00
  0.00000000e+00  0.00000000e+00  0.00000000e+00  0.00000000e+00
  0.00000000e+00  0.00000000e+00 -2.48417300e-07 -1.59481945e-07
  0.00000000e+00  0.00000000e+00  0.00000000e+00  2.99934755e-06]","[[ 5.45135022e-05  4.12294641e-03]
 [-1.76074401e-04  1.57155331e-03]]",[],0.0,0.0
1787581810.3046231,1.0539805032383212,-0.4016949956707326,1.9663107347174362,"[ 7.07037454e-06  3.99727037e-08  0.00000000e+00  0.00000000e+00
  0.00000000e+00 -2.48417300e-07  3.99727037e-08  7.43078839e-06
  0.00000000e+00  0.00000000e+00  0.00000000e+00 -1.59481945e-07
  0.00000000e+00  0.00000000e+00  0.00000000e+00  0.00000000e+00
  0.00000000e+00  0.00000000e+00  0.00000000e+00  0.00000000e+00
  0.00000000e+00  0.00000000e+00  0.00000000e+00  0.00000000e+00
  0.00000000e+00  0.00000000e+00  0.00000000e+00  0.00000000e+00
  0.00000000e+00  0.00000000e+00 -2.48417300e-07 -1.59481945e-07
  0.00000000e+00  0.00000000e+00  0.00000000e+00  2.99934755e-06]","[[ 5.45135022e-05  4.12294641e-03]
 [-1.76074401e-04  1.57155331e-03]]",[],0.0,0.0
1787581810.3547492,1.0539805032383212,-0.4016949956707326,1.9663107347174362,"[ 7.07037454e-06  3.99727037e-08  0.00000000e+00  0.00000000e+00
  0.00000000e+00 -2.48417300e-07  3.99727037e-08  7.43078839e-06
  0.00000000e+00  0.00000000e+00  0.00000000e+00 -1.59481945e-07
  0.00000000e+00  0.00000000e+00  0.00000000e+00  0.00000000e+00
  0.00000000e+00  0.00000000e+00  0.00000000e+00  0.00000000e+00
  0.00000000e+00  0.00000000e+00  0.00000000e+00  0.00000000e+00
  0.00000000e+00  0.00000000e+00  0.00000000e+00  0.00000000e+00
  0.00000000e+00  0.00000000e+00 -2.48417300e-07 -1.59481945e-07
  0.00000000e+00  0.00000000e+00  0.00000000e+00  2.99934755e-06]","[[ 5.45135022e-05  4.12294641e-03]
 [-1.76074401e-04  1.57155331e-03]]",[],0.0,0.0
1787581810.4070833,1.0539805032383212,-0.4016949956707326,1.9663107347174362,"[ 7.07037454e-06  3.99727037e-08  0.00000000e+00  0.00000000e+00
  0.00000000e+00 -2.48417300e-07  3.99727037e-08  7.43078839e-06
  0.00000000e+00  0.00000000e+00  0.00000000e+00 -1.59481945e-07
  0.00000000e+00  0.00000000e+00  0.00000000e+00  0.00000000e+00
  0.00000000e+00  0.00000000e+00  0.00000000e+00  0.00000000e+00
  0.00000000e+00  0.00000000e+00  0.00000000e+00  0.00000000e+00
  0.00000000e+00  0.00000000e+00  0.00000000e+00  0.00000000e+00
  0.00000000e+00  0.00000000e+00 -2.48417300e-07 -1.59481945e-07
  0.00000000e+00  0.00000000e+00  0.00000000e+00  2.99934755e-06]","[[ 5.45135022e-05  4.12294641e-03]
 [-1.76074401e-04  1.57155331e-03]]",[],0.0,0.0
1787581810.452063,1.0538658442239308,-0.40106733612254386,1.9567417087442598,"[ 6.18646527e-06 -2.91557013e-08  0.00000000e+00  0.00000000e+00
  0.00000000e+00 -1.75178775e-07 -2.91557013e-08  6.68865650e-06
  0.00000000e+00  0.00000000e+00  0.00000000e+00 -8.86011849e-08
  0.00000000e+00  0.00000000e+00  0.00000000e+00  0.00000000e+00
  0.00000000e+00  0.00000000e+00  0.00000000e+00  0.00000000e+00
  0.00000000e+00  0.00000000e+00  0.00000000e+00  0.00000000e+00
  0.00000000e+00  0.00000000e+00  0.00000000e+00  0.00000000e+00
  0.00000000e+00  0.00000000e+00 -1.75178775e-07 -8.86011849e-08
  0.00000000e+00  0.00000000e+00  0.00000000e+00  2.95460950e-06]","[[ 4.94609515e-05  3.52545173e-03]
 [-1.58915294e-04  1.29553614e-03]]",[],0.0,0.0
1787581810.5118039,1.0538658442239308,-0.40106733612254386,1.9567417087442598,"[ 6.18646527e-06 -2.91557013e-08  0.00000000e+00  0.00000000e+00
  0.00000000e+00 -1.75178775e-07 -2.91557013e-08  6.68865650e-06
  0.00000000e+00  0.00000000e+00  0.00000000e+00 -8.86011849e-08
  0.00000000e+00  0.00000000e+00  0.00000000e+00  0.00000000e+00
  0.00000000e+00  0.00000000e+00  0.00000000e+00  0.00000000e+00
  0.00000000e+00  0.00000000e+00  0.00000000e+00  0.00000000e+00
  0.00000000e+00  0.00000000e+00  0.00000000e+00  0.00000000e+00
  0.00000000e+00  0.00000000e+00 -1.75178775e-07 -8.86011849e-08
  0.00000000e+00  0.00000000e+00  0.00000000e+00  2.95460950e-06]","[[ 4.94609515e-05  3.52545173e-03]
 [-1.58915294e-04  1.29553614e-03]]",[],0.0,0.0
1787581810.564188,1.0538658442239308,-0.40106733612254386,1.9567417087442598,"[ 6.18646527e-06 -2.91557013e-08  0.00000000e+00  0.00000000e+00
  0.00000000e+00 -1.75178775e-07 -2.91557013e-08  6.68865650e-06
  0.00000000e+00  0.00000000e+00  0.00000000e+00 -8.86011849e-08
  0.00000000e+00  0.00000000e+00  0.00000000e+00  0.00000000e+00
  0.00000000e+00  0.00000000e+00  0.00000000e+00  0.00000000e+00
  0.00000000e+00  0.00000000e+00  0.00000000e+00  0.00000000e+00
  0.00000000e+00  0.00000000e+00  0.00000000e+00  0.00000000e+00
  0.00000000e+00  0.00000000e+00 -1.75178775e-07 -8.86011849e-08
  0.00000000e+00  0.00000000e+00  0.00000000e+00  2.95460950e-06]","[[ 4.94609515e-05  3.52545173e-03]
 [-1.58915294e-04  1.29553614e-03]]",[],0.0,0.0
1787581810.6040716,1.0538658442239308,-0.40106733612254386,1.9567417087442598,"[ 6.18646527e-06 -2.91557013e-08  0.00000000e+00  0.00000000e+00
  0.00000000e+00 -1.75178775e-07 -2.91557013e-08  6.68865650e-06
  0.00000000e+00  0.00000000e+00  0.00000000e+00 -8.86011849e-08
  0.00000000e+00  0.00000000e+00  0.00000000e+00  0.00000000e+00
  0.00000000e+00  0.00000000e+00  0.00000000e+00  0.00000000e+00
  0.00000000e+00  0.00000000e+00  0.00000000e+00  0.00000000e+00
  0.00000000e+00  0.00000000e+00  0.00000000e+00  0.00000000e+00
  0.00000000e+00  0.00000000e+00 -1.75178775e-07 -8.86011849e-08
  0.00000000e+00  0.00000000e+00  0.00000000e+00  2.95460950e-06]","[[ 4.94609515e-05  3.52545173e-03]
 [-1.58915294e-04  1.29553614e-03]]",[],0.0,0.0
1787581810.6544611,1.0538658442239308,-0.40106733612254386,1.9567417087442598,"[ 6.18646527e-06 -2.91557013e-08  0.00000000e+00  0.00000000e+00
  0.00000000e+00 -1.75178775e-07 -2.91557013e-08  6.68865650e-06
  0.00000000e+00  0.00000000e+00  0.00000000e+00 -8.86011849e-08
  0.00000000e+00  0.00000000e+00  0.00000000e+00  0.00000000e+00
  0.00000000e+00  0.00000000e+00  0.00000000e+00  0.00000000e+00
  0.00000000e+00  0.00000000e+00  0.00000000e+00  0.00000000e+00
  0.00000000e+00  0.00000000e+00  0.00000000e+00  0.00000000e+00
  0.00000000e+00  0.00000000e+00 -1.75178775e-07 -8.86011849e-08
  0.00000000e+00  0.00000000e+00  0.00000000e+00  2.95460950e-06]","[[ 4.94609515e-05  3.52545173e-03]
 [-1.58915294e-04  1.29553614e-03]]",[],0.0,0.0
1787581810.7201543,1.0538658442239308,-0.40106733612254386,1.9567417087442598,"[ 6.18646527e-06 -2.91557013e-08  0.00000000e+00  0.00000000e+00
  0.00000000e+00 -1.75178775e-07 -2.91557013e-08  6.68865650e-06
  0.00000000e+00  0.00000000e+00  0.00000000e+00 -8.86011849e-08
  0.00000000e+00  0.00000000e+00  0.00000000e+00  0.00000000e+00
  0.00000000e+00  0.00000000e+00  0.00000000e+00  0.00000000e+00
  0.00000000e+00  0.00000000e+00  0.00000000e+00  0.00000000e+00
  0.00000000e+00  0.00000000e+00  0.00000000e+00  0.00000000e+00
  0.00000000e+00  0.00000000e+00 -1.75178775e-07 -8.86011849e-08
  0.00000000e+00  0.00000000e+00  0.00000000e+00  2.95460950e-06]","[[ 4.94609515e-05  3.52545173e-03]
 [-1.58915294e-04  1.29553614e-03]]",[],0.0,0.0
1787581810.7755587,1.0538658442239308,-0.40106733612254386,1.9567417087442598,"[ 6.18646527e-06 -2.91557013e-08  0.00000000e+00  0.00000000e+00
  0.00000000e+00 -1.75178775e-07 -2.91557013e-08  6.68865650e-06
  0.00000000e+00  0.00000000e+00  0.00000000e+00 -8.86011849e-08
  0.00000000e+00  0.00000000e+00  0.00000000e+00  0.00000000e+00
  0.00000000e+00  0.00000000e+00  0.00000000e+00  0.00000000e+00
  0.00000000e+00  0.00000000e+00  0.00000000e+00  0.00000000e+00
  0.00000000e+00  0.00000000e+00  0.00000000e+00  0.00000000e+00
  0.00000000e+00  0.00000000e+00 -1.75178775e-07 -8.86011849e-08
  0.00000000e+00  0.00000000e+00  0.00000000e+00  2.95460950e-06]","[[ 4.94609515e-05  3.52545173e-03]
 [-1.58915294e-04  1.29553614e-03]]",[],0.0,0.0
1787581810.8125918,1.0538658442239308,-0.40106733612254386,1.9567417087442598,"[ 6.18646527e-06 -2.91557013e-08  0.00000000e+00  0.00000000e+00
  0.00000000e+00 -1.75178775e-07 -2.91557013e-08  6.68865650e-06
  0.00000000e+00  0.00000000e+00  0.00000000e+00 -8.86011849e-08
  0.00000000e+00  0.00000000e+00  0.00000000e+00  0.00000000e+00
  0.00000000e+00  0.00000000e+00  0.00000000e+00  0.00000000e+00
  0.00000000e+00  0.00000000e+00  0.00000000e+00  0.00000000e+00
  0.00000000e+00  0.00000000e+00  0.00000000e+00  0.00000000e+00
  0.00000000e+00  0.00000000e+00 -1.75178775e-07 -8.86011849e-08
  0.00000000e+00  0.00000000e+00  0.00000000e+00  2.95460950e-06]","[[ 4.94609515e-05  3.52545173e-03]
 [-1.58915294e-04  1.29553614e-03]]",[],0.0,0.0
1787581810.86666,1.0538658442239308,-0.40106733612254386,1.9567417087442598,"[ 6.18646527e-06 -2.91557013e-08  0.00000000e+00  0.00000000e+00
  0.00000000e+00 -1.75178775e-07 -2.91557013e-08  6.68865650e-06
  0.00000000e+00  0.00000000e+00  0.00000000e+00 -8.86011849e-08
  0.00000000e+00  0.00000000e+00  0.00000000e+00  0.00000000e+00
  0.00000000e+00  0.00000000e+00  0.00000000e+00  0.00000000e+00
  0.00000000e+00  0.00000000e+00  0.00000000e+00  0.00000000e+00
  0.00000000e+00  0.00000000e+00  0.00000000e+00  0.00000000e+00
  0.00000000e+00  0.00000000e+00 -1.75178775e-07 -8.86011849e-08
  0.00000000e+00  0.00000000e+00  0.00000000e+00  2.95460950e-06]","[[ 4.94609515e-05  3.52545173e-03]
 [-1.58915294e-04  1.29553614e-03]]",[],0.0,0.0
1787581810.9090898,1.0538658442239308,-0.40106733612254386,1.9567417087442598,"[ 6.18646527e-06 -2.91557013e-08  0.00000000e+00  0.00000000e+00
  0.00000000e+00 -1.75178775e-07 -2.91557013e-08  6.68865650e-06
  0.00000000e+00  0.00000000e+00  0.00000000e+00 -8.86011849e-08
  0.00000000e+00  0.00000000e+00  0.00000000e+00  0.00000000e+00
  0.00000000e+00  0.00000000e+00  0.00000000e+00  0.00000000e+00
  0.00000000e+00  0.00000000e+00  0.00000000e+00  0.00000000e+00
  0.00000000e+00  0.00000000e+00  0.00000000e+00  0.00000000e+00
  0.00000000e+00  0.00000000e+00 -1.75178775e-07 -8.86011849e-08
  0.00000000e+00  0.00000000e+00  0.00000000e+00  2.95460950e-06]","[[ 4.94609515e-05  3.52545173e-03]
 [-1.58915294e-04  1.29553614e-03]]",[],0.0,0.0
1787581810.9593067,1.0538658442239308,-0.40106733612254386,1.9567417087442598,"[ 6.18646527e-06 -2.91557013e-08  0.00000000e+00  0.00000000e+00
  0.00000000e+00 -1.75178775e-07 -2.91557013e-08  6.68865650e-06
  0.00000000e+00  0.00000000e+00  0.00000000e+00 -8.86011849e-08
  0.00000000e+00  0.00000000e+00  0.00000000e+00  0.00000000e+00
  0.00000000e+00  0.00000000e+00  0.00000000e+00  0.00000000e+00
  0.00000000e+00  0.00000000e+00  0.00000000e+00  0.00000000e+00
  0.00000000e+00  0.00000000e+00  0.00000000e+00  0.00000000e+00
  0.00000000e+00  0.00000000e+00 -1.75178775e-07 -8.86011849e-08
  0.00000000e+00  0.00000000e+00  0.00000000e+00  2.95460950e-06]","[[ 4.94609515e-05  3.52545173e-03]
 [-1.58915294e-04  1.29553614e-03]]",[],0.0,0.0
1787581811.0037596,1.0538658442239308,-0.40106733612254386,1.9567417087442598,"[ 6.18646527e-06 -2.91557013e-08  0.00000000e+00  0.00000000e+00
  0.00000000e+00 -1.75178775e-07 -2.91557013e-08  6.68865650e-06
  0.00000000e+00  0.00000000e+00  0.00000000e+00 -8.86011849e-08
  0.00000000e+00  0.00000000e+00  0.00000000e+00  0.00000000e+00
  0.00000000e+00  0.00000000e+00  0.00000000e+00  0.00000000e+00
  0.00000000e+00  0.00000000e+00  0.00000000e+00  0.00000000e+00
  0.00000000e+00  0.00000000e+00  0.00000000e+00  0.00000000e+00
  0.00000000e+00  0.00000000e+00 -1.75178775e-07 -8.86011849e-08
  0.00000000e+00  0.00000000e+00  0.00000000e+00  2.95460950e-06]","[[ 4.94609515e-05  3.52545173e-03]
 [-1.58915294e-04  1.29553614e-03]]",[],0.0,0.0
1787581811.0667768,1.0538658442239308,-0.40106733612254386,1.9567417087442598,"[ 6.18646527e-06 -2.91557013e-08  0.00000000e+00  0.00000000e+00
  0.00000000e+00 -1.75178775e-07 -2.91557013e-08  6.68865650e-06
  0.00000000e+00  0.00000000e+00  0.00000000e+00 -8.86011849e-08
  0.00000000e+00  0.00000000e+00  0.00000000e+00  0.00000000e+00
  0.00000000e+00  0.00000000e+00  0.00000000e+00  0.00000000e+00
  0.00000000e+00  0.00000000e+00  0.00000000e+00  0.00000000e+00
  0.00000000e+00  0.00000000e+00  0.00000000e+00  0.00000000e+00
  0.00000000e+00  0.00000000e+00 -1.75178775e-07 -8.86011849e-08
  0.00000000e+00  0.00000000e+00  0.00000000e+00  2.95460950e-06]","[[ 4.94609515e-05  3.52545173e-03]
 [-1.58915294e-04  1.29553614e-03]]",[],0.0,0.0
1787581811.1022544,1.0538658442239308,-0.40106733612254386,1.9567417087442598,"[ 6.18646527e-06 -2.91557013e-08  0.00000000e+00  0.00000000e+00
  0.00000000e+00 -1.75178775e-07 -2.91557013e-08  6.68865650e-06
  0.00000000e+00  0.00000000e+00  0.00000000e+00 -8.86011849e-08
  0.00000000e+00  0.00000000e+00  0.00000000e+00  0.00000000e+00
  0.00000000e+00  0.00000000e+00  0.00000000e+00  0.00000000e+00
  0.00000000e+00  0.00000000e+00  0.00000000e+00  0.00000000e+00
  0.00000000e+00  0.00000000e+00  0.00000000e+00  0.00000000e+00
  0.00000000e+00  0.00000000e+00 -1.75178775e-07 -8.86011849e-08
  0.00000000e+00  0.00000000e+00  0.00000000e+00  2.95460950e-06]","[[ 4.94609515e-05  3.52545173e-03]
 [-1.58915294e-04  1.29553614e-03]]",[],0.0,0.0
1787581811.1612213,1.0538658442239308,-0.40106733612254386,1.9567417087442598,"[ 6.18646527e-06 -2.91557013e-08  0.00000000e+00  0.00000000e+00
  0.00000000e+00 -1.75178775e-07 -2.91557013e-08  6.68865650e-06
  0.00000000e+00  0.00000000e+00  0.00000000e+00 -8.86011849e-08
  0.00000000e+00  0.00000000e+00  0.00000000e+00  0.00000000e+00
  0.00000000e+00  0.00000000e+00  0.00000000e+00  0.00000000e+00
  0.00000000e+00  0.00000000e+00  0.00000000e+00  0.00000000e+00
  0.00000000e+00  0.00000000e+00  0.00000000e+00  0.00000000e+00
  0.00000000e+00  0.00000000e+00 -1.75178775e-07 -8.86011849e-08
  0.00000000e+00  0.00000000e+00  0.00000000e+00  2.95460950e-06]","[[ 4.94609515e-05  3.52545173e-03]
 [-1.58915294e-04  1.29553614e-03]]",[],0.0,0.0
1787581811.2289305,1.0538658442239308,-0.40106733612254386,1.9567417087442598,"[ 6.18646527e-06 -2.91557013e-08  0.00000000e+00  0.00000000e+00
  0.00000000e+00 -1.75178775e-07 -2.91557013e-08  6.68865650e-06
  0.00000000e+00  0.00000000e+00  0.00000000e+00 -8.86011849e-08
  0.00000000e+00  0.00000000e+00  0.00000000e+00  0.00000000e+00
