time,x,y,yaw,cov_prop,K_gain,innovation,v_ekf,omega_ekf
1787559122.3410997,1.6330381561203502,0.8758954538639849,1.9509941396721233,"[ 6.48420434e-05 -4.63196430e-06  0.00000000e+00  0.00000000e+00
  0.00000000e+00 -7.49853903e-06 -4.63196430e-06  5.29447148e-05
  0.00000000e+00  0.00000000e+00  0.00000000e+00 -1.08139701e-06
  0.00000000e+00  0.00000000e+00  0.00000000e+00  0.00000000e+00
  0.00000000e+00  0.00000000e+00  0.00000000e+00  0.00000000e+00
  0.00000000e+00  0.00000000e+00  0.00000000e+00  0.00000000e+00
  0.00000000e+00  0.00000000e+00  0.00000000e+00  0.00000000e+00
  0.00000000e+00  0.00000000e+00 -7.49853903e-06 -1.08139701e-06
  0.00000000e+00  0.00000000e+00  0.00000000e+00  5.14304279e-06]","[[-0.00101425  0.03238484]
 [-0.0008942  -0.01367591]]",[],0.0,0.0
1787559122.3855941,1.6330381561203502,0.8758954538639849,1.9509941396721233,"[ 6.48420434e-05 -4.63196430e-06  0.00000000e+00  0.00000000e+00
  0.00000000e+00 -7.49853903e-06 -4.63196430e-06  5.29447148e-05
  0.00000000e+00  0.00000000e+00  0.00000000e+00 -1.08139701e-06
  0.00000000e+00  0.00000000e+00  0.00000000e+00  0.00000000e+00
  0.00000000e+00  0.00000000e+00  0.00000000e+00  0.00000000e+00
  0.00000000e+00  0.00000000e+00  0.00000000e+00  0.00000000e+00
  0.00000000e+00  0.00000000e+00  0.00000000e+00  0.00000000e+00
  0.00000000e+00  0.00000000e+00 -7.49853903e-06 -1.08139701e-06
  0.00000000e+00  0.00000000e+00  0.00000000e+00  5.14304279e-06]","[[-0.00101425  0.03238484]
 [-0.0008942  -0.01367591]]",[],0.0,0.0
1787559122.440407,1.6330381561203502,0.8758954538639849,1.9509941396721233,"[ 6.48420434e-05 -4.63196430e-06  0.00000000e+00  0.00000000e+00
  0.00000000e+00 -7.49853903e-06 -4.63196430e-06  5.29447148e-05
  0.00000000e+00  0.00000000e+00  0.00000000e+00 -1.08139701e-06
  0.00000000e+00  0.00000000e+00  0.00000000e+00  0.00000000e+00
  0.00000000e+00  0.00000000e+00  0.00000000e+00  0.00000000e+00
  0.00000000e+00  0.00000000e+00  0.00000000e+00  0.00000000e+00
  0.00000000e+00  0.00000000e+00  0.00000000e+00  0.00000000e+00
  0.00000000e+00  0.00000000e+00 -7.49853903e-06 -1.08139701e-06
  0.00000000e+00  0.00000000e+00  0.00000000e+00  5.14304279e-06]","[[-0.00101425  0.03238484]
 [-0.0008942  -0.01367591]]",[],0.0,0.0
1787559122.485831,1.6330381561203502,0.8758954538639849,1.9509941396721233,"[ 6.48420434e-05 -4.63196430e-06  0.00000000e+00  0.00000000e+00
  0.00000000e+00 -7.49853903e-06 -4.63196430e-06  5.29447148e-05
  0.00000000e+00  0.00000000e+00  0.00000000e+00 -1.08139701e-06
  0.00000000e+00  0.00000000e+00  0.00000000e+00  0.00000000e+00
  0.00000000e+00  0.00000000e+00  0.00000000e+00  0.00000000e+00
  0.00000000e+00  0.00000000e+00  0.00000000e+00  0.00000000e+00
  0.00000000e+00  0.00000000e+00  0.00000000e+00  0.00000000e+00
  0.00000000e+00  0.00000000e+00 -7.49853903e-06 -1.08139701e-06
  0.00000000e+00  0.00000000e+00  0.00000000e+00  5.14304279e-06]","[[-0.00101425  0.03238484]
 [-0.0008942  -0.01367591]]",[],0.0,0.0
1787559122.5372772,1.6330381561203502,0.8758954538639849,1.9509941396721233,"[ 6.48420434e-05 -4.63196430e-06  0.00000000e+00  0.00000000e+00
  0.00000000e+00 -7.49853903e-06 -4.63196430e-06  5.29447148e-05
  0.00000000e+00  0.00000000e+00  0.00000000e+00 -1.08139701e-06
  0.00000000e+00  0.00000000e+00  0.00000000e+00  0.00000000e+00
  0.00000000e+00  0.00000000e+00  0.00000000e+00  0.00000000e+00
  0.00000000e+00  0.00000000e+00  0.00000000e+00  0.00000000e+00
  0.00000000e+00  0.00000000e+00  0.00000000e+00  0.00000000e+00
  0.00000000e+00  0.00000000e+00 -7.49853903e-06 -1.08139701e-06
  0.00000000e+00  0.00000000e+00  0.00000000e+00  5.14304279e-06]","[[-0.00101425  0.03238484]
 [-0.0008942  -0.01367591]]",[],0.0,0.0
1787559122.5886855,1.6330381561203502,0.8758954538639849,1.9509941396721233,"[ 6.48420434e-05 -4.63196430e-06  0.00000000e+00  0.00000000e+00
  0.00000000e+00 -7.49853903e-06 -4.63196430e-06  5.29447148e-05
  0.00000000e+00  0.00000000e+00  0.00000000e+00 -1.08139701e-06
  0.00000000e+00  0.00000000e+00  0.00000000e+00  0.00000000e+00
  0.00000000e+00  0.00000000e+00  0.00000000e+00  0.00000000e+00
  0.00000000e+00  0.00000000e+00  0.00000000e+00  0.00000000e+00
  0.00000000e+00  0.00000000e+00  0.00000000e+00  0.00000000e+00
  0.00000000e+00  0.00000000e+00 -7.49853903e-06 -1.08139701e-06
  0.00000000e+00  0.00000000e+00  0.00000000e+00  5.14304279e-06]","[[-0.00101425  0.03238484]
 [-0.0008942  -0.01367591]]",[],0.0,0.0
1787559122.639484,1.6330381561203502,0.8758954538639849,1.9509941396721233,"[ 6.48420434e-05 -4.63196430e-06  0.00000000e+00  0.00000000e+00
  0.00000000e+00 -7.49853903e-06 -4.63196430e-06  5.29447148e-05
  0.00000000e+00  0.00000000e+00  0.00000000e+00 -1.08139701e-06
  0.00000000e+00  0.00000000e+00  0.00000000e+00  0.00000000e+00
  0.00000000e+00  0.00000000e+00  0.00000000e+00  0.00000000e+00
  0.00000000e+00  0.00000000e+00  0.00000000e+00  0.00000000e+00
  0.00000000e+00  0.00000000e+00  0.00000000e+00  0.00000000e+00
  0.00000000e+00  0.00000000e+00 -7.49853903e-06 -1.08139701e-06
  0.00000000e+00  0.00000000e+00  0.00000000e+00  5.14304279e-06]","[[-0.00101425  0.03238484]
 [-0.0008942  -0.01367591]]",[],0.0,0.0
1787559122.6852791,1.6330381561203502,0.8758954538639849,1.9509941396721233,"[ 6.48420434e-05 -4.63196430e-06  0.00000000e+00  0.00000000e+00
  0.00000000e+00 -7.49853903e-06 -4.63196430e-06  5.29447148e-05
  0.00000000e+00  0.00000000e+00  0.00000000e+00 -1.08139701e-06
  0.00000000e+00  0.00000000e+00  0.00000000e+00  0.00000000e+00
  0.00000000e+00  0.00000000e+00  0.00000000e+00  0.00000000e+00
  0.00000000e+00  0.00000000e+00  0.00000000e+00  0.00000000e+00
  0.00000000e+00  0.00000000e+00  0.00000000e+00  0.00000000e+00
  0.00000000e+00  0.00000000e+00 -7.49853903e-06 -1.08139701e-06
  0.00000000e+00  0.00000000e+00  0.00000000e+00  5.14304279e-06]","[[-0.00101425  0.03238484]
 [-0.0008942  -0.01367591]]",[],0.0,0.0
1787559122.743314,1.6330381561203502,0.8758954538639849,1.9509941396721233,"[ 6.48420434e-05 -4.63196430e-06  0.00000000e+00  0.00000000e+00
  0.00000000e+00 -7.49853903e-06 -4.63196430e-06  5.29447148e-05
  0.00000000e+00  0.00000000e+00  0.00000000e+00 -1.08139701e-06
  0.00000000e+00  0.00000000e+00  0.00000000e+00  0.00000000e+00
  0.00000000e+00  0.00000000e+00  0.00000000e+00  0.00000000e+00
  0.00000000e+00  0.00000000e+00  0.00000000e+00  0.00000000e+00
  0.00000000e+00  0.00000000e+00  0.00000000e+00  0.00000000e+00
  0.00000000e+00  0.00000000e+00 -7.49853903e-06 -1.08139701e-06
  0.00000000e+00  0.00000000e+00  0.00000000e+00  5.14304279e-06]","[[-0.00101425  0.03238484]
 [-0.0008942  -0.01367591]]",[],0.0,0.0
1787559122.7857459,1.6330381561203502,0.8758954538639849,1.9509941396721233,"[ 6.48420434e-05 -4.63196430e-06  0.00000000e+00  0.00000000e+00
  0.00000000e+00 -7.49853903e-06 -4.63196430e-06  5.29447148e-05
  0.00000000e+00  0.00000000e+00  0.00000000e+00 -1.08139701e-06
  0.00000000e+00  0.00000000e+00  0.00000000e+00  0.00000000e+00
  0.00000000e+00  0.00000000e+00  0.00000000e+00  0.00000000e+00
  0.00000000e+00  0.00000000e+00  0.00000000e+00  0.00000000e+00
  0.00000000e+00  0.00000000e+00  0.00000000e+00  0.00000000e+00
  0.00000000e+00  0.00000000e+00 -7.49853903e-06 -1.08139701e-06
  0.00000000e+00  0.00000000e+00  0.00000000e+00  5.14304279e-06]","[[-0.00101425  0.03238484]
 [-0.0008942  -0.01367591]]",[],0.0,0.0
1787559122.836256,1.6330381561203502,0.8758954538639849,1.9509941396721233,"[ 6.48420434e-05 -4.63196430e-06  0.00000000e+00  0.00000000e+00
  0.00000000e+00 -7.49853903e-06 -4.63196430e-06  5.29447148e-05
  0.00000000e+00  0.00000000e+00  0.00000000e+00 -1.08139701e-06
  0.00000000e+00  0.00000000e+00  0.00000000e+00  0.00000000e+00
  0.00000000e+00  0.00000000e+00  0.00000000e+00  0.00000000e+00
  0.00000000e+00  0.00000000e+00  0.00000000e+00  0.00000000e+00
  0.00000000e+00  0.00000000e+00  0.00000000e+00  0.00000000e+00
  0.00000000e+00  0.00000000e+00 -7.49853903e-06 -1.08139701e-06
  0.00000000e+00  0.00000000e+00  0.00000000e+00  5.14304279e-06]","[[-0.00101425  0.03238484]
 [-0.0008942  -0.01367591]]",[],0.0,0.0
1787559122.8867257,1.6330381561203502,0.8758954538639849,1.9509941396721233,"[ 6.48420434e-05 -4.63196430e-06  0.00000000e+00  0.00000000e+00
  0.00000000e+00 -7.49853903e-06 -4.63196430e-06  5.29447148e-05
  0.00000000e+00  0.00000000e+00  0.00000000e+00 -1.08139701e-06
  0.00000000e+00  0.00000000e+00  0.00000000e+00  0.00000000e+00
  0.00000000e+00  0.00000000e+00  0.00000000e+00  0.00000000e+00
  0.00000000e+00  0.00000000e+00  0.00000000e+00  0.00000000e+00
  0.00000000e+00  0.00000000e+00  0.00000000e+00  0.00000000e+00
  0.00000000e+00  0.00000000e+00 -7.49853903e-06 -1.08139701e-06
  0.00000000e+00  0.00000000e+00  0.00000000e+00  5.14304279e-06]","[[-0.00101425  0.03238484]
 [-0.0008942  -0.01367591]]",[],0.0,0.0
1787559122.983027,1.6330381561203502,0.8758954538639849,1.9509941396721233,"[ 6.48420434e-05 -4.63196430e-06  0.00000000e+00  0.00000000e+00
  0.00000000e+00 -7.49853903e-06 -4.63196430e-06  5.29447148e-05
  0.00000000e+00  0.00000000e+00  0.00000000e+00 -1.08139701e-06
  0.00000000e+00  0.00000000e+00  0.00000000e+00  0.00000000e+00
  0.00000000e+00  0.00000000e+00  0.00000000e+00  0.00000000e+00
  0.00000000e+00  0.00000000e+00  0.00000000e+00  0.00000000e+00
  0.00000000e+00  0.00000000e+00  0.00000000e+00  0.00000000e+00
  0.00000000e+00  0.00000000e+00 -7.49853903e-06 -1.08139701e-06
  0.00000000e+00  0.00000000e+00  0.00000000e+00  5.14304279e-06]","[[-0.00101425  0.03238484]
 [-0.0008942  -0.01367591]]",[],0.0,0.0
1787559122.9929807,1.6330381561203502,0.8758954538639849,1.9509941396721233,"[ 6.48420434e-05 -4.63196430e-06  0.00000000e+00  0.00000000e+00
  0.00000000e+00 -7.49853903e-06 -4.63196430e-06  5.29447148e-05
  0.00000000e+00  0.00000000e+00  0.00000000e+00 -1.08139701e-06
  0.00000000e+00  0.00000000e+00  0.00000000e+00  0.00000000e+00
  0.00000000e+00  0.00000000e+00  0.00000000e+00  0.00000000e+00
  0.00000000e+00  0.00000000e+00  0.00000000e+00  0.00000000e+00
  0.00000000e+00  0.00000000e+00  0.00000000e+00  0.00000000e+00
  0.00000000e+00  0.00000000e+00 -7.49853903e-06 -1.08139701e-06
  0.00000000e+00  0.00000000e+00  0.00000000e+00  5.14304279e-06]","[[-0.00101425  0.03238484]
 [-0.0008942  -0.01367591]]",[],0.0,0.0
1787559123.0372047,1.6330381561203502,0.8758954538639849,1.9509941396721233,"[ 6.48420434e-05 -4.63196430e-06  0.00000000e+00  0.00000000e+00
  0.00000000e+00 -7.49853903e-06 -4.63196430e-06  5.29447148e-05
  0.00000000e+00  0.00000000e+00  0.00000000e+00 -1.08139701e-06
  0.00000000e+00  0.00000000e+00  0.00000000e+00  0.00000000e+00
  0.00000000e+00  0.00000000e+00  0.00000000e+00  0.00000000e+00
  0.00000000e+00  0.00000000e+00  0.00000000e+00  0.00000000e+00
  0.00000000e+00  0.00000000e+00  0.00000000e+00  0.00000000e+00
  0.00000000e+00  0.00000000e+00 -7.49853903e-06 -1.08139701e-06
  0.00000000e+00  0.00000000e+00  0.00000000e+00  5.14304279e-06]","[[-0.00101425  0.03238484]
 [-0.0008942  -0.01367591]]",[],0.0,0.0
1787559123.1108193,1.6631610160375045,0.9001920096293683,1.9741588160903607,"[ 3.26533530e-05 -1.18496657e-06  0.00000000e+00  0.00000000e+00
  0.00000000e+00 -3.64691936e-06 -1.18496657e-06  2.53506282e-05
  0.00000000e+00  0.00000000e+00  0.00000000e+00 -1.12153520e-06
  0.00000000e+00  0.00000000e+00  0.00000000e+00  0.00000000e+00
  0.00000000e+00  0.00000000e+00  0.00000000e+00  0.00000000e+00
  0.00000000e+00  0.00000000e+00  0.00000000e+00  0.00000000e+00
  0.00000000e+00  0.00000000e+00  0.00000000e+00  0.00000000e+00
  0.00000000e+00  0.00000000e+00 -3.64691936e-06 -1.12153520e-06
  0.00000000e+00  0.00000000e+00  0.00000000e+00  3.99101167e-06]","[[-0.00048536  0.01716876]
 [-0.00047732 -0.00522972]]",[],0.0,0.0
1787559123.1394298,1.6631610160375045,0.9001920096293683,1.9741588160903607,"[ 3.26533530e-05 -1.18496657e-06  0.00000000e+00  0.00000000e+00
  0.00000000e+00 -3.64691936e-06 -1.18496657e-06  2.53506282e-05
  0.00000000e+00  0.00000000e+00  0.00000000e+00 -1.12153520e-06
  0.00000000e+00  0.00000000e+00  0.00000000e+00  0.00000000e+00
  0.00000000e+00  0.00000000e+00  0.00000000e+00  0.00000000e+00
  0.00000000e+00  0.00000000e+00  0.00000000e+00  0.00000000e+00
  0.00000000e+00  0.00000000e+00  0.00000000e+00  0.00000000e+00
  0.00000000e+00  0.00000000e+00 -3.64691936e-06 -1.12153520e-06
  0.00000000e+00  0.00000000e+00  0.00000000e+00  3.99101167e-06]","[[-0.00048536  0.01716876]
 [-0.00047732 -0.00522972]]",[],0.0,0.0
1787559123.186242,1.6631610160375045,0.9001920096293683,1.9741588160903607,"[ 3.26533530e-05 -1.18496657e-06  0.00000000e+00  0.00000000e+00
  0.00000000e+00 -3.64691936e-06 -1.18496657e-06  2.53506282e-05
  0.00000000e+00  0.00000000e+00  0.00000000e+00 -1.12153520e-06
  0.00000000e+00  0.00000000e+00  0.00000000e+00  0.00000000e+00
  0.00000000e+00  0.00000000e+00  0.00000000e+00  0.00000000e+00
  0.00000000e+00  0.00000000e+00  0.00000000e+00  0.00000000e+00
  0.00000000e+00  0.00000000e+00  0.00000000e+00  0.00000000e+00
  0.00000000e+00  0.00000000e+00 -3.64691936e-06 -1.12153520e-06
  0.00000000e+00  0.00000000e+00  0.00000000e+00  3.99101167e-06]","[[-0.00048536  0.01716876]
 [-0.00047732 -0.00522972]]",[],0.0,0.0
1787559123.2353358,1.6631610160375045,0.9001920096293683,1.9741588160903607,"[ 3.26533530e-05 -1.18496657e-06  0.00000000e+00  0.00000000e+00
  0.00000000e+00 -3.64691936e-06 -1.18496657e-06  2.53506282e-05
  0.00000000e+00  0.00000000e+00  0.00000000e+00 -1.12153520e-06
  0.00000000e+00  0.00000000e+00  0.00000000e+00  0.00000000e+00
  0.00000000e+00  0.00000000e+00  0.00000000e+00  0.00000000e+00
  0.00000000e+00  0.00000000e+00  0.00000000e+00  0.00000000e+00
  0.00000000e+00  0.00000000e+00  0.00000000e+00  0.00000000e+00
  0.00000000e+00  0.00000000e+00 -3.64691936e-06 -1.12153520e-06
  0.00000000e+00  0.00000000e+00  0.00000000e+00  3.99101167e-06]","[[-0.00048536  0.01716876]
 [-0.00047732 -0.00522972]]",[],0.0,0.0
1787559123.2867627,1.6631610160375045,0.9001920096293683,1.9741588160903607,"[ 3.26533530e-05 -1.18496657e-06  0.00000000e+00  0.00000000e+00
  0.00000000e+00 -3.64691936e-06 -1.18496657e-06  2.53506282e-05
  0.00000000e+00  0.00000000e+00  0.00000000e+00 -1.12153520e-06
  0.00000000e+00  0.00000000e+00  0.00000000e+00  0.00000000e+00
  0.00000000e+00  0.00000000e+00  0.00000000e+00  0.00000000e+00
  0.00000000e+00  0.00000000e+00  0.00000000e+00  0.00000000e+00
  0.00000000e+00  0.00000000e+00  0.00000000e+00  0.00000000e+00
  0.00000000e+00  0.00000000e+00 -3.64691936e-06 -1.12153520e-06
  0.00000000e+00  0.00000000e+00  0.00000000e+00  3.99101167e-06]","[[-0.00048536  0.01716876]
 [-0.00047732 -0.00522972]]",[],0.0,0.0
1787559123.3402727,1.6631610160375045,0.9001920096293683,1.9741588160903607,"[ 3.26533530e-05 -1.18496657e-06  0.00000000e+00  0.00000000e+00
  0.00000000e+00 -3.64691936e-06 -1.18496657e-06  2.53506282e-05
  0.00000000e+00  0.00000000e+00  0.00000000e+00 -1.12153520e-06
  0.00000000e+00  0.00000000e+00  0.00000000e+00  0.00000000e+00
  0.00000000e+00  0.00000000e+00  0.00000000e+00  0.00000000e+00
  0.00000000e+00  0.00000000e+00  0.00000000e+00  0.00000000e+00
  0.00000000e+00  0.00000000e+00  0.00000000e+00  0.00000000e+00
  0.00000000e+00  0.00000000e+00 -3.64691936e-06 -1.12153520e-06
  0.00000000e+00  0.00000000e+00  0.00000000e+00  3.99101167e-06]","[[-0.00048536  0.01716876]
 [-0.00047732 -0.00522972]]",[],0.0,0.0
1787559123.3892925,1.6631610160375045,0.9001920096293683,1.9741588160903607,"[ 3.26533530e-05 -1.18496657e-06  0.00000000e+00  0.00000000e+00
  0.00000000e+00 -3.64691936e-06 -1.18496657e-06  2.53506282e-05
  0.00000000e+00  0.00000000e+00  0.00000000e+00 -1.12153520e-06
  0.00000000e+00  0.00000000e+00  0.00000000e+00  0.00000000e+00
  0.00000000e+00  0.00000000e+00  0.00000000e+00  0.00000000e+00
  0.00000000e+00  0.00000000e+00  0.00000000e+00  0.00000000e+00
  0.00000000e+00  0.00000000e+00  0.00000000e+00  0.00000000e+00
  0.00000000e+00  0.00000000e+00 -3.64691936e-06 -1.12153520e-06
  0.00000000e+00  0.00000000e+00  0.00000000e+00  3.99101167e-06]","[[-0.00048536  0.01716876]
 [-0.00047732 -0.00522972]]",[],0.0,0.0
1787559123.4371488,1.6631610160375045,0.9001920096293683,1.9741588160903607,"[ 3.26533530e-05 -1.18496657e-06  0.00000000e+00  0.00000000e+00
  0.00000000e+00 -3.64691936e-06 -1.18496657e-06  2.53506282e-05
  0.00000000e+00  0.00000000e+00  0.00000000e+00 -1.12153520e-06
  0.00000000e+00  0.00000000e+00  0.00000000e+00  0.00000000e+00
  0.00000000e+00  0.00000000e+00  0.00000000e+00  0.00000000e+00
  0.00000000e+00  0.00000000e+00  0.00000000e+00  0.00000000e+00
  0.00000000e+00  0.00000000e+00  0.00000000e+00  0.00000000e+00
  0.00000000e+00  0.00000000e+00 -3.64691936e-06 -1.12153520e-06
  0.00000000e+00  0.00000000e+00  0.00000000e+00  3.99101167e-06]","[[-0.00048536  0.01716876]
 [-0.00047732 -0.00522972]]",[],0.0,0.0
1787559123.4865856,1.6631610160375045,0.9001920096293683,1.9741588160903607,"[ 3.26533530e-05 -1.18496657e-06  0.00000000e+00  0.00000000e+00
  0.00000000e+00 -3.64691936e-06 -1.18496657e-06  2.53506282e-05
  0.00000000e+00  0.00000000e+00  0.00000000e+00 -1.12153520e-06
  0.00000000e+00  0.00000000e+00  0.00000000e+00  0.00000000e+00
  0.00000000e+00  0.00000000e+00  0.00000000e+00  0.00000000e+00
  0.00000000e+00  0.00000000e+00  0.00000000e+00  0.00000000e+00
  0.00000000e+00  0.00000000e+00  0.00000000e+00  0.00000000e+00
  0.00000000e+00  0.00000000e+00 -3.64691936e-06 -1.12153520e-06
  0.00000000e+00  0.00000000e+00  0.00000000e+00  3.99101167e-06]","[[-0.00048536  0.01716876]
 [-0.00047732 -0.00522972]]",[],0.0,0.0
1787559123.5400827,1.6631610160375045,0.9001920096293683,1.9741588160903607,"[ 3.26533530e-05 -1.18496657e-06  0.00000000e+00  0.00000000e+00
  0.00000000e+00 -3.64691936e-06 -1.18496657e-06  2.53506282e-05
  0.00000000e+00  0.00000000e+00  0.00000000e+00 -1.12153520e-06
  0.00000000e+00  0.00000000e+00  0.00000000e+00  0.00000000e+00
  0.00000000e+00  0.00000000e+00  0.00000000e+00  0.00000000e+00
  0.00000000e+00  0.00000000e+00  0.00000000e+00  0.00000000e+00
  0.00000000e+00  0.00000000e+00  0.00000000e+00  0.00000000e+00
  0.00000000e+00  0.00000000e+00 -3.64691936e-06 -1.12153520e-06
  0.00000000e+00  0.00000000e+00  0.00000000e+00  3.99101167e-06]","[[-0.00048536  0.01716876]
 [-0.00047732 -0.00522972]]",[],0.0,0.0
1787559123.5886233,1.6631610160375045,0.9001920096293683,1.9741588160903607,"[ 3.26533530e-05 -1.18496657e-06  0.00000000e+00  0.00000000e+00
  0.00000000e+00 -3.64691936e-06 -1.18496657e-06  2.53506282e-05
  0.00000000e+00  0.00000000e+00  0.00000000e+00 -1.12153520e-06
  0.00000000e+00  0.00000000e+00  0.00000000e+00  0.00000000e+00
  0.00000000e+00  0.00000000e+00  0.00000000e+00  0.00000000e+00
  0.00000000e+00  0.00000000e+00  0.00000000e+00  0.00000000e+00
  0.00000000e+00  0.00000000e+00  0.00000000e+00  0.00000000e+00
  0.00000000e+00  0.00000000e+00 -3.64691936e-06 -1.12153520e-06
  0.00000000e+00  0.00000000e+00  0.00000000e+00  3.99101167e-06]","[[-0.00048536  0.01716876]
 [-0.00047732 -0.00522972]]",[],0.0,0.0
1787559123.636435,1.6631610160375045,0.9001920096293683,1.9741588160903607,"[ 3.26533530e-05 -1.18496657e-06  0.00000000e+00  0.00000000e+00
  0.00000000e+00 -3.64691936e-06 -1.18496657e-06  2.53506282e-05
  0.00000000e+00  0.00000000e+00  0.00000000e+00 -1.12153520e-06
  0.00000000e+00  0.00000000e+00  0.00000000e+00  0.00000000e+00
  0.00000000e+00  0.00000000e+00  0.00000000e+00  0.00000000e+00
  0.00000000e+00  0.00000000e+00  0.00000000e+00  0.00000000e+00
  0.00000000e+00  0.00000000e+00  0.00000000e+00  0.00000000e+00
  0.00000000e+00  0.00000000e+00 -3.64691936e-06 -1.12153520e-06
  0.00000000e+00  0.00000000e+00  0.00000000e+00  3.99101167e-06]","[[-0.00048536  0.01716876]
 [-0.00047732 -0.00522972]]",[],0.0,0.0
1787559123.685359,1.6631610160375045,0.9001920096293683,1.9741588160903607,"[ 3.26533530e-05 -1.18496657e-06  0.00000000e+00  0.00000000e+00
  0.00000000e+00 -3.64691936e-06 -1.18496657e-06  2.53506282e-05
  0.00000000e+00  0.00000000e+00  0.00000000e+00 -1.12153520e-06
  0.00000000e+00  0.00000000e+00  0.00000000e+00  0.00000000e+00
  0.00000000e+00  0.00000000e+00  0.00000000e+00  0.00000000e+00
  0.00000000e+00  0.00000000e+00  0.00000000e+00  0.00000000e+00
  0.00000000e+00  0.00000000e+00  0.00000000e+00  0.00000000e+00
  0.00000000e+00  0.00000000e+00 -3.64691936e-06 -1.12153520e-06
  0.00000000e+00  0.00000000e+00  0.00000000e+00  3.99101167e-06]","[[-0.00048536  0.01716876]
 [-0.00047732 -0.00522972]]",[],0.0,0.0
1787559123.7664661,1.6631610160375045,0.9001920096293683,1.9741588160903607,"[ 3.26533530e-05 -1.18496657e-06  0.00000000e+00  0.00000000e+00
  0.00000000e+00 -3.64691936e-06 -1.18496657e-06  2.53506282e-05
  0.00000000e+00  0.00000000e+00  0.00000000e+00 -1.12153520e-06
  0.00000000e+00  0.00000000e+00  0.00000000e+00  0.00000000e+00
  0.00000000e+00  0.00000000e+00  0.00000000e+00  0.00000000e+00
  0.00000000e+00  0.00000000e+00  0.00000000e+00  0.00000000e+00
  0.00000000e+00  0.00000000e+00  0.00000000e+00  0.00000000e+00
  0.00000000e+00  0.00000000e+00 -3.64691936e-06 -1.12153520e-06
  0.00000000e+00  0.00000000e+00  0.00000000e+00  3.99101167e-06]","[[-0.00048536  0.01716876]
 [-0.00047732 -0.00522972]]",[],0.0,0.0
1787559123.7895358,1.6631610160375045,0.9001920096293683,1.9741588160903607,"[ 3.26533530e-05 -1.18496657e-06  0.00000000e+00  0.00000000e+00
  0.00000000e+00 -3.64691936e-06 -1.18496657e-06  2.53506282e-05
  0.00000000e+00  0.00000000e+00  0.00000000e+00 -1.12153520e-06
  0.00000000e+00  0.00000000e+00  0.00000000e+00  0.00000000e+00
  0.00000000e+00  0.00000000e+00  0.00000000e+00  0.00000000e+00
  0.00000000e+00  0.00000000e+00  0.00000000e+00  0.00000000e+00
  0.00000000e+00  0.00000000e+00  0.00000000e+00  0.00000000e+00
  0.00000000e+00  0.00000000e+00 -3.64691936e-06 -1.12153520e-06
  0.00000000e+00  0.00000000e+00  0.00000000e+00  3.99101167e-06]","[[-0.00048536  0.01716876]
 [-0.00047732 -0.00522972]]",[],0.0,0.0
1787559123.835207,1.6631610160375045,0.9001920096293683,1.9741588160903607,"[ 3.26533530e-05 -1.18496657e-06  0.00000000e+00  0.00000000e+00
  0.00000000e+00 -3.64691936e-06 -1.18496657e-06  2.53506282e-05
  0.00000000e+00  0.00000000e+00  0.00000000e+00 -1.12153520e-06
  0.00000000e+00  0.00000000e+00  0.00000000e+00  0.00000000e+00
  0.00000000e+00  0.00000000e+00  0.00000000e+00  0.00000000e+00
  0.00000000e+00  0.00000000e+00  0.00000000e+00  0.00000000e+00
  0.00000000e+00  0.00000000e+00  0.00000000e+00  0.00000000e+00
  0.00000000e+00  0.00000000e+00 -3.64691936e-06 -1.12153520e-06
  0.00000000e+00  0.00000000e+00  0.00000000e+00  3.99101167e-06]","[[-0.00048536  0.01716876]
 [-0.00047732 -0.00522972]]",[],0.0,0.0
1787559123.8962514,1.681961840852088,0.9077815305328797,2.0260652594107516,"[ 2.08041016e-05 -6.29332860e-07  0.00000000e+00  0.00000000e+00
  0.00000000e+00 -2.11550010e-06 -6.29332860e-07  1.64451666e-05
  0.00000000e+00  0.00000000e+00  0.00000000e+00 -8.36250607e-07
  0.00000000e+00  0.00000000e+00  0.00000000e+00  0.00000000e+00
  0.00000000e+00  0.00000000e+00  0.00000000e+00  0.00000000e+00
  0.00000000e+00  0.00000000e+00  0.00000000e+00  0.00000000e+00
  0.00000000e+00  0.00000000e+00  0.00000000e+00  0.00000000e+00
  0.00000000e+00  0.00000000e+00 -2.11550010e-06 -8.36250607e-07
  0.00000000e+00  0.00000000e+00  0.00000000e+00  3.68404391e-06]","[[-0.00031078  0.01064193]
 [-0.00031239 -0.00319937]]",[],0.0,0.0
1787559123.9354382,1.681961840852088,0.9077815305328797,2.0260652594107516,"[ 2.08041016e-05 -6.29332860e-07  0.00000000e+00  0.00000000e+00
  0.00000000e+00 -2.11550010e-06 -6.29332860e-07  1.64451666e-05
  0.00000000e+00  0.00000000e+00  0.00000000e+00 -8.36250607e-07
  0.00000000e+00  0.00000000e+00  0.00000000e+00  0.00000000e+00
  0.00000000e+00  0.00000000e+00  0.00000000e+00  0.00000000e+00
  0.00000000e+00  0.00000000e+00  0.00000000e+00  0.00000000e+00
  0.00000000e+00  0.00000000e+00  0.00000000e+00  0.00000000e+00
  0.00000000e+00  0.00000000e+00 -2.11550010e-06 -8.36250607e-07
  0.00000000e+00  0.00000000e+00  0.00000000e+00  3.68404391e-06]","[[-0.00031078  0.01064193]
 [-0.00031239 -0.00319937]]",[],0.0,0.0
1787559123.9856584,1.681961840852088,0.9077815305328797,2.0260652594107516,"[ 2.08041016e-05 -6.29332860e-07  0.00000000e+00  0.00000000e+00
  0.00000000e+00 -2.11550010e-06 -6.29332860e-07  1.64451666e-05
  0.00000000e+00  0.00000000e+00  0.00000000e+00 -8.36250607e-07
  0.00000000e+00  0.00000000e+00  0.00000000e+00  0.00000000e+00
  0.00000000e+00  0.00000000e+00  0.00000000e+00  0.00000000e+00
  0.00000000e+00  0.00000000e+00  0.00000000e+00  0.00000000e+00
  0.00000000e+00  0.00000000e+00  0.00000000e+00  0.00000000e+00
  0.00000000e+00  0.00000000e+00 -2.11550010e-06 -8.36250607e-07
  0.00000000e+00  0.00000000e+00  0.00000000e+00  3.68404391e-06]","[[-0.00031078  0.01064193]
 [-0.00031239 -0.00319937]]",[],0.0,0.0
1787559124.0355163,1.681961840852088,0.9077815305328797,2.0260652594107516,"[ 2.08041016e-05 -6.29332860e-07  0.00000000e+00  0.00000000e+00
  0.00000000e+00 -2.11550010e-06 -6.29332860e-07  1.64451666e-05
  0.00000000e+00  0.00000000e+00  0.00000000e+00 -8.36250607e-07
  0.00000000e+00  0.00000000e+00  0.00000000e+00  0.00000000e+00
  0.00000000e+00  0.00000000e+00  0.00000000e+00  0.00000000e+00
  0.00000000e+00  0.00000000e+00  0.00000000e+00  0.00000000e+00
  0.00000000e+00  0.00000000e+00  0.00000000e+00  0.00000000e+00
  0.00000000e+00  0.00000000e+00 -2.11550010e-06 -8.36250607e-07
  0.00000000e+00  0.00000000e+00  0.00000000e+00  3.68404391e-06]","[[-0.00031078  0.01064193]
 [-0.00031239 -0.00319937]]",[],0.0,0.0
1787559124.0874026,1.681961840852088,0.9077815305328797,2.0260652594107516,"[ 2.08041016e-05 -6.29332860e-07  0.00000000e+00  0.00000000e+00
  0.00000000e+00 -2.11550010e-06 -6.29332860e-07  1.64451666e-05
  0.00000000e+00  0.00000000e+00  0.00000000e+00 -8.36250607e-07
  0.00000000e+00  0.00000000e+00  0.00000000e+00  0.00000000e+00
  0.00000000e+00  0.00000000e+00  0.00000000e+00  0.00000000e+00
  0.00000000e+00  0.00000000e+00  0.00000000e+00  0.00000000e+00
  0.00000000e+00  0.00000000e+00  0.00000000e+00  0.00000000e+00
  0.00000000e+00  0.00000000e+00 -2.11550010e-06 -8.36250607e-07
  0.00000000e+00  0.00000000e+00  0.00000000e+00  3.68404391e-06]","[[-0.00031078  0.01064193]
 [-0.00031239 -0.00319937]]",[],0.0,0.0
1787559124.13533,1.681961840852088,0.9077815305328797,2.0260652594107516,"[ 2.08041016e-05 -6.29332860e-07  0.00000000e+00  0.00000000e+00
  0.00000000e+00 -2.11550010e-06 -6.29332860e-07  1.64451666e-05
  0.00000000e+00  0.00000000e+00  0.00000000e+00 -8.36250607e-07
  0.00000000e+00  0.00000000e+00  0.00000000e+00  0.00000000e+00
  0.00000000e+00  0.00000000e+00  0.00000000e+00  0.00000000e+00
  0.00000000e+00  0.00000000e+00  0.00000000e+00  0.00000000e+00
  0.00000000e+00  0.00000000e+00  0.00000000e+00  0.00000000e+00
  0.00000000e+00  0.00000000e+00 -2.11550010e-06 -8.36250607e-07
  0.00000000e+00  0.00000000e+00  0.00000000e+00  3.68404391e-06]","[[-0.00031078  0.01064193]
 [-0.00031239 -0.00319937]]",[],0.0,0.0
1787559124.1879516,1.681961840852088,0.9077815305328797,2.0260652594107516,"[ 2.08041016e-05 -6.29332860e-07  0.00000000e+00  0.00000000e+00
  0.00000000e+00 -2.11550010e-06 -6.29332860e-07  1.64451666e-05
  0.00000000e+00  0.00000000e+00  0.00000000e+00 -8.36250607e-07
  0.00000000e+00  0.00000000e+00  0.00000000e+00  0.00000000e+00
  0.00000000e+00  0.00000000e+00  0.00000000e+00  0.00000000e+00
  0.00000000e+00  0.00000000e+00  0.00000000e+00  0.00000000e+00
  0.00000000e+00  0.00000000e+00  0.00000000e+00  0.00000000e+00
  0.00000000e+00  0.00000000e+00 -2.11550010e-06 -8.36250607e-07
  0.00000000e+00  0.00000000e+00  0.00000000e+00  3.68404391e-06]","[[-0.00031078  0.01064193]
 [-0.00031239 -0.00319937]]",[],0.0,0.0
1787559124.235835,1.681961840852088,0.9077815305328797,2.0260652594107516,"[ 2.08041016e-05 -6.29332860e-07  0.00000000e+00  0.00000000e+00
  0.00000000e+00 -2.11550010e-06 -6.29332860e-07  1.64451666e-05
  0.00000000e+00  0.00000000e+00  0.00000000e+00 -8.36250607e-07
  0.00000000e+00  0.00000000e+00  0.00000000e+00  0.00000000e+00
  0.00000000e+00  0.00000000e+00  0.00000000e+00  0.00000000e+00
  0.00000000e+00  0.00000000e+00  0.00000000e+00  0.00000000e+00
  0.00000000e+00  0.00000000e+00  0.00000000e+00  0.00000000e+00
  0.00000000e+00  0.00000000e+00 -2.11550010e-06 -8.36250607e-07
  0.00000000e+00  0.00000000e+00  0.00000000e+00  3.68404391e-06]","[[-0.00031078  0.01064193]
 [-0.00031239 -0.00319937]]",[],0.0,0.0
1787559124.2853496,1.681961840852088,0.9077815305328797,2.0260652594107516,"[ 2.08041016e-05 -6.29332860e-07  0.00000000e+00  0.00000000e+00
  0.00000000e+00 -2.11550010e-06 -6.29332860e-07  1.64451666e-05
  0.00000000e+00  0.00000000e+00  0.00000000e+00 -8.36250607e-07
  0.00000000e+00  0.00000000e+00  0.00000000e+00  0.00000000e+00
  0.00000000e+00  0.00000000e+00  0.00000000e+00  0.00000000e+00
  0.00000000e+00  0.00000000e+00  0.00000000e+00  0.00000000e+00
  0.00000000e+00  0.00000000e+00  0.00000000e+00  0.00000000e+00
  0.00000000e+00  0.00000000e+00 -2.11550010e-06 -8.36250607e-07
  0.00000000e+00  0.00000000e+00  0.00000000e+00  3.68404391e-06]","[[-0.00031078  0.01064193]
 [-0.00031239 -0.00319937]]",[],0.0,0.0
1787559124.3373437,1.681961840852088,0.9077815305328797,2.0260652594107516,"[ 2.08041016e-05 -6.29332860e-07  0.00000000e+00  0.00000000e+00
  0.00000000e+00 -2.11550010e-06 -6.29332860e-07  1.64451666e-05
  0.00000000e+00  0.00000000e+00  0.00000000e+00 -8.36250607e-07
  0.00000000e+00  0.00000000e+00  0.00000000e+00  0.00000000e+00
  0.00000000e+00  0.00000000e+00  0.00000000e+00  0.00000000e+00
  0.00000000e+00  0.00000000e+00  0.00000000e+00  0.00000000e+00
  0.00000000e+00  0.00000000e+00  0.00000000e+00  0.00000000e+00
  0.00000000e+00  0.00000000e+00 -2.11550010e-06 -8.36250607e-07
  0.00000000e+00  0.00000000e+00  0.00000000e+00  3.68404391e-06]","[[-0.00031078  0.01064193]
 [-0.00031239 -0.00319937]]",[],0.0,0.0
1787559124.4004521,1.681961840852088,0.9077815305328797,2.0260652594107516,"[ 2.08041016e-05 -6.29332860e-07  0.00000000e+00  0.00000000e+00
  0.00000000e+00 -2.11550010e-06 -6.29332860e-07  1.64451666e-05
  0.00000000e+00  0.00000000e+00  0.00000000e+00 -8.36250607e-07
  0.00000000e+00  0.00000000e+00  0.00000000e+00  0.00000000e+00
  0.00000000e+00  0.00000000e+00  0.00000000e+00  0.00000000e+00
  0.00000000e+00  0.00000000e+00  0.00000000e+00  0.00000000e+00
  0.00000000e+00  0.00000000e+00  0.00000000e+00  0.00000000e+00
  0.00000000e+00  0.00000000e+00 -2.11550010e-06 -8.36250607e-07
  0.00000000e+00  0.00000000e+00  0.00000000e+00  3.68404391e-06]","[[-0.00031078  0.01064193]
 [-0.00031239 -0.00319937]]",[],0.0,0.0
1787559124.4357553,1.681961840852088,0.9077815305328797,2.0260652594107516,"[ 2.08041016e-05 -6.29332860e-07  0.00000000e+00  0.00000000e+00
  0.00000000e+00 -2.11550010e-06 -6.29332860e-07  1.64451666e-05
  0.00000000e+00  0.00000000e+00  0.00000000e+00 -8.36250607e-07
  0.00000000e+00  0.00000000e+00  0.00000000e+00  0.00000000e+00
  0.00000000e+00  0.00000000e+00  0.00000000e+00  0.00000000e+00
  0.00000000e+00  0.00000000e+00  0.00000000e+00  0.00000000e+00
  0.00000000e+00  0.00000000e+00  0.00000000e+00  0.00000000e+00
  0.00000000e+00  0.00000000e+00 -2.11550010e-06 -8.36250607e-07
  0.00000000e+00  0.00000000e+00  0.00000000e+00  3.68404391e-06]","[[-0.00031078  0.01064193]
 [-0.00031239 -0.00319937]]",[],0.0,0.0
1787559124.485864,1.681961840852088,0.9077815305328797,2.0260652594107516,"[ 2.08041016e-05 -6.29332860e-07  0.00000000e+00  0.00000000e+00
  0.00000000e+00 -2.11550010e-06 -6.29332860e-07  1.64451666e-05
  0.00000000e+00  0.00000000e+00  0.00000000e+00 -8.36250607e-07
  0.00000000e+00  0.00000000e+00  0.00000000e+00  0.00000000e+00
  0.00000000e+00  0.00000000e+00  0.00000000e+00  0.00000000e+00
  0.00000000e+00  0.00000000e+00  0.00000000e+00  0.00000000e+00
  0.00000000e+00  0.00000000e+00  0.00000000e+00  0.00000000e+00
  0.00000000e+00  0.00000000e+00 -2.11550010e-06 -8.36250607e-07
  0.00000000e+00  0.00000000e+00  0.00000000e+00  3.68404391e-06]","[[-0.00031078  0.01064193]
 [-0.00031239 -0.00319937]]",[],0.0,0.0
1787559124.5355113,1.681961840852088,0.9077815305328797,2.0260652594107516,"[ 2.08041016e-05 -6.29332860e-07  0.00000000e+00  0.00000000e+00
  0.00000000e+00 -2.11550010e-06 -6.29332860e-07  1.64451666e-05
  0.00000000e+00  0.00000000e+00  0.00000000e+00 -8.36250607e-07
  0.00000000e+00  0.00000000e+00  0.00000000e+00  0.00000000e+00
  0.00000000e+00  0.00000000e+00  0.00000000e+00  0.00000000e+00
  0.00000000e+00  0.00000000e+00  0.00000000e+00  0.00000000e+00
  0.00000000e+00  0.00000000e+00  0.00000000e+00  0.00000000e+00
  0.00000000e+00  0.00000000e+00 -2.11550010e-06 -8.36250607e-07
  0.00000000e+00  0.00000000e+00  0.00000000e+00  3.68404391e-06]","[[-0.00031078  0.01064193]
 [-0.00031239 -0.00319937]]",[],0.0,0.0
1787559124.5857298,1.681961840852088,0.9077815305328797,2.0260652594107516,"[ 2.08041016e-05 -6.29332860e-07  0.00000000e+00  0.00000000e+00
  0.00000000e+00 -2.11550010e-06 -6.29332860e-07  1.64451666e-05
  0.00000000e+00  0.00000000e+00  0.00000000e+00 -8.36250607e-07
  0.00000000e+00  0.00000000e+00  0.00000000e+00  0.00000000e+00
  0.00000000e+00  0.00000000e+00  0.00000000e+00  0.00000000e+00
  0.00000000e+00  0.00000000e+00  0.00000000e+00  0.00000000e+00
  0.00000000e+00  0.00000000e+00  0.00000000e+00  0.00000000e+00
  0.00000000e+00  0.00000000e+00 -2.11550010e-06 -8.36250607e-07
  0.00000000e+00  0.00000000e+00  0.00000000e+00  3.68404391e-06]","[[-0.00031078  0.01064193]
 [-0.00031239 -0.00319937]]",[],0.0,0.0
1787559124.6389174,1.681961840852088,0.9077815305328797,2.0260652594107516,"[ 2.08041016e-05 -6.29332860e-07  0.00000000e+00  0.00000000e+00
  0.00000000e+00 -2.11550010e-06 -6.29332860e-07  1.64451666e-05
  0.00000000e+00  0.00000000e+00  0.00000000e+00 -8.36250607e-07
  0.00000000e+00  0.00000000e+00  0.00000000e+00  0.00000000e+00
  0.00000000e+00  0.00000000e+00  0.00000000e+00  0.00000000e+00
  0.00000000e+00  0.00000000e+00  0.00000000e+00  0.00000000e+00
  0.00000000e+00  0.00000000e+00  0.00000000e+00  0.00000000e+00
  0.00000000e+00  0.00000000e+00 -2.11550010e-06 -8.36250607e-07
  0.00000000e+00  0.00000000e+00  0.00000000e+00  3.68404391e-06]","[[-0.00031078  0.01064193]
 [-0.00031239 -0.00319937]]",[],0.0,0.0
1787559124.6858318,1.681961840852088,0.9077815305328797,2.0260652594107516,"[ 2.08041016e-05 -6.29332860e-07  0.00000000e+00  0.00000000e+00
  0.00000000e+00 -2.11550010e-06 -6.29332860e-07  1.64451666e-05
  0.00000000e+00  0.00000000e+00  0.00000000e+00 -8.36250607e-07
  0.00000000e+00  0.00000000e+00  0.00000000e+00  0.00000000e+00
  0.00000000e+00  0.00000000e+00  0.00000000e+00  0.00000000e+00
  0.00000000e+00  0.00000000e+00  0.00000000e+00  0.00000000e+00
  0.00000000e+00  0.00000000e+00  0.00000000e+00  0.00000000e+00
  0.00000000e+00  0.00000000e+00 -2.11550010e-06 -8.36250607e-07
  0.00000000e+00  0.00000000e+00  0.00000000e+00  3.68404391e-06]","[[-0.00031078  0.01064193]
 [-0.00031239 -0.00319937]]",[],0.0,0.0
1787559124.7417715,1.6919310012786886,0.9031141039423893,2.076480968655167,"[ 1.58979089e-05 -6.32950986e-07  0.00000000e+00  0.00000000e+00
  0.00000000e+00 -1.51074418e-06 -6.32950986e-07  1.23573132e-05
  0.00000000e+00  0.00000000e+00  0.00000000e+00 -6.32868573e-07
  0.00000000e+00  0.00000000e+00  0.00000000e+00  0.00000000e+00
  0.00000000e+00  0.00000000e+00  0.00000000e+00  0.00000000e+00
  0.00000000e+00  0.00000000e+00  0.00000000e+00  0.00000000e+00
  0.00000000e+00  0.00000000e+00  0.00000000e+00  0.00000000e+00
  0.00000000e+00  0.00000000e+00 -1.51074418e-06 -6.32868573e-07
  0.00000000e+00  0.00000000e+00  0.00000000e+00  3.74067142e-06]","[[-0.00023367  0.00803324]
 [-0.00023279 -0.00245593]]",[],0.0,0.0
1787559124.7868824,1.6919310012786886,0.9031141039423893,2.076480968655167,"[ 1.58979089e-05 -6.32950986e-07  0.00000000e+00  0.00000000e+00
  0.00000000e+00 -1.51074418e-06 -6.32950986e-07  1.23573132e-05
  0.00000000e+00  0.00000000e+00  0.00000000e+00 -6.32868573e-07
  0.00000000e+00  0.00000000e+00  0.00000000e+00  0.00000000e+00
  0.00000000e+00  0.00000000e+00  0.00000000e+00  0.00000000e+00
  0.00000000e+00  0.00000000e+00  0.00000000e+00  0.00000000e+00
  0.00000000e+00  0.00000000e+00  0.00000000e+00  0.00000000e+00
  0.00000000e+00  0.00000000e+00 -1.51074418e-06 -6.32868573e-07
  0.00000000e+00  0.00000000e+00  0.00000000e+00  3.74067142e-06]","[[-0.00023367  0.00803324]
 [-0.00023279 -0.00245593]]",[],0.0,0.0
1787559124.8374867,1.6919310012786886,0.9031141039423893,2.076480968655167,"[ 1.58979089e-05 -6.32950986e-07  0.00000000e+00  0.00000000e+00
  0.00000000e+00 -1.51074418e-06 -6.32950986e-07  1.23573132e-05
  0.00000000e+00  0.00000000e+00  0.00000000e+00 -6.32868573e-07
  0.00000000e+00  0.00000000e+00  0.00000000e+00  0.00000000e+00
  0.00000000e+00  0.00000000e+00  0.00000000e+00  0.00000000e+00
  0.00000000e+00  0.00000000e+00  0.00000000e+00  0.00000000e+00
  0.00000000e+00  0.00000000e+00  0.00000000e+00  0.00000000e+00
  0.00000000e+00  0.00000000e+00 -1.51074418e-06 -6.32868573e-07
  0.00000000e+00  0.00000000e+00  0.00000000e+00  3.74067142e-06]","[[-0.00023367  0.00803324]
 [-0.00023279 -0.00245593]]",[],0.0,0.0
1787559124.885604,1.6919310012786886,0.9031141039423893,2.076480968655167,"[ 1.58979089e-05 -6.32950986e-07  0.00000000e+00  0.00000000e+00
  0.00000000e+00 -1.51074418e-06 -6.32950986e-07  1.23573132e-05
  0.00000000e+00  0.00000000e+00  0.00000000e+00 -6.32868573e-07
  0.00000000e+00  0.00000000e+00  0.00000000e+00  0.00000000e+00
  0.00000000e+00  0.00000000e+00  0.00000000e+00  0.00000000e+00
  0.00000000e+00  0.00000000e+00  0.00000000e+00  0.00000000e+00
  0.00000000e+00  0.00000000e+00  0.00000000e+00  0.00000000e+00
  0.00000000e+00  0.00000000e+00 -1.51074418e-06 -6.32868573e-07
  0.00000000e+00  0.00000000e+00  0.00000000e+00  3.74067142e-06]","[[-0.00023367  0.00803324]
 [-0.00023279 -0.00245593]]",[],0.0,0.0
1787559124.9365156,1.6919310012786886,0.9031141039423893,2.076480968655167,"[ 1.58979089e-05 -6.32950986e-07  0.00000000e+00  0.00000000e+00
  0.00000000e+00 -1.51074418e-06 -6.32950986e-07  1.23573132e-05
  0.00000000e+00  0.00000000e+00  0.00000000e+00 -6.32868573e-07
  0.00000000e+00  0.00000000e+00  0.00000000e+00  0.00000000e+00
  0.00000000e+00  0.00000000e+00  0.00000000e+00  0.00000000e+00
  0.00000000e+00  0.00000000e+00  0.00000000e+00  0.00000000e+00
  0.00000000e+00  0.00000000e+00  0.00000000e+00  0.00000000e+00
  0.00000000e+00  0.00000000e+00 -1.51074418e-06 -6.32868573e-07
  0.00000000e+00  0.00000000e+00  0.00000000e+00  3.74067142e-06]","[[-0.00023367  0.00803324]
 [-0.00023279 -0.00245593]]",[],0.0,0.0
1787559124.985698,1.6919310012786886,0.9031141039423893,2.076480968655167,"[ 1.58979089e-05 -6.32950986e-07  0.00000000e+00  0.00000000e+00
  0.00000000e+00 -1.51074418e-06 -6.32950986e-07  1.23573132e-05
  0.00000000e+00  0.00000000e+00  0.00000000e+00 -6.32868573e-07
  0.00000000e+00  0.00000000e+00  0.00000000e+00  0.00000000e+00
  0.00000000e+00  0.00000000e+00  0.00000000e+00  0.00000000e+00
  0.00000000e+00  0.00000000e+00  0.00000000e+00  0.00000000e+00
  0.00000000e+00  0.00000000e+00  0.00000000e+00  0.00000000e+00
  0.00000000e+00  0.00000000e+00 -1.51074418e-06 -6.32868573e-07
  0.00000000e+00  0.00000000e+00  0.00000000e+00  3.74067142e-06]","[[-0.00023367  0.00803324]
 [-0.00023279 -0.00245593]]",[],0.0,0.0
1787559125.037662,1.6919310012786886,0.9031141039423893,2.076480968655167,"[ 1.58979089e-05 -6.32950986e-07  0.00000000e+00  0.00000000e+00
  0.00000000e+00 -1.51074418e-06 -6.32950986e-07  1.23573132e-05
  0.00000000e+00  0.00000000e+00  0.00000000e+00 -6.32868573e-07
  0.00000000e+00  0.00000000e+00  0.00000000e+00  0.00000000e+00
  0.00000000e+00  0.00000000e+00  0.00000000e+00  0.00000000e+00
  0.00000000e+00  0.00000000e+00  0.00000000e+00  0.00000000e+00
  0.00000000e+00  0.00000000e+00  0.00000000e+00  0.00000000e+00
  0.00000000e+00  0.00000000e+00 -1.51074418e-06 -6.32868573e-07
  0.00000000e+00  0.00000000e+00  0.00000000e+00  3.74067142e-06]","[[-0.00023367  0.00803324]
 [-0.00023279 -0.00245593]]",[],0.0,0.0
1787559125.0852835,1.6919310012786886,0.9031141039423893,2.076480968655167,"[ 1.58979089e-05 -6.32950986e-07  0.00000000e+00  0.00000000e+00
  0.00000000e+00 -1.51074418e-06 -6.32950986e-07  1.23573132e-05
  0.00000000e+00  0.00000000e+00  0.00000000e+00 -6.32868573e-07
  0.00000000e+00  0.00000000e+00  0.00000000e+00  0.00000000e+00
  0.00000000e+00  0.00000000e+00  0.00000000e+00  0.00000000e+00
  0.00000000e+00  0.00000000e+00  0.00000000e+00  0.00000000e+00
  0.00000000e+00  0.00000000e+00  0.00000000e+00  0.00000000e+00
  0.00000000e+00  0.00000000e+00 -1.51074418e-06 -6.32868573e-07
  0.00000000e+00  0.00000000e+00  0.00000000e+00  3.74067142e-06]","[[-0.00023367  0.00803324]
 [-0.00023279 -0.00245593]]",[],0.0,0.0
1787559125.1400187,1.6919310012786886,0.9031141039423893,2.076480968655167,"[ 1.58979089e-05 -6.32950986e-07  0.00000000e+00  0.00000000e+00
  0.00000000e+00 -1.51074418e-06 -6.32950986e-07  1.23573132e-05
  0.00000000e+00  0.00000000e+00  0.00000000e+00 -6.32868573e-07
  0.00000000e+00  0.00000000e+00  0.00000000e+00  0.00000000e+00
  0.00000000e+00  0.00000000e+00  0.00000000e+00  0.00000000e+00
  0.00000000e+00  0.00000000e+00  0.00000000e+00  0.00000000e+00
  0.00000000e+00  0.00000000e+00  0.00000000e+00  0.00000000e+00
  0.00000000e+00  0.00000000e+00 -1.51074418e-06 -6.32868573e-07
  0.00000000e+00  0.00000000e+00  0.00000000e+00  3.74067142e-06]","[[-0.00023367  0.00803324]
 [-0.00023279 -0.00245593]]",[],0.0,0.0
1787559125.188294,1.6919310012786886,0.9031141039423893,2.076480968655167,"[ 1.58979089e-05 -6.32950986e-07  0.00000000e+00  0.00000000e+00
  0.00000000e+00 -1.51074418e-06 -6.32950986e-07  1.23573132e-05
  0.00000000e+00  0.00000000e+00  0.00000000e+00 -6.32868573e-07
  0.00000000e+00  0.00000000e+00  0.00000000e+00  0.00000000e+00
  0.00000000e+00  0.00000000e+00  0.00000000e+00  0.00000000e+00
  0.00000000e+00  0.00000000e+00  0.00000000e+00  0.00000000e+00
  0.00000000e+00  0.00000000e+00  0.00000000e+00  0.00000000e+00
  0.00000000e+00  0.00000000e+00 -1.51074418e-06 -6.32868573e-07
  0.00000000e+00  0.00000000e+00  0.00000000e+00  3.74067142e-06]","[[-0.00023367  0.00803324]
 [-0.00023279 -0.00245593]]",[],0.0,0.0
1787559125.2393937,1.6919310012786886,0.9031141039423893,2.076480968655167,"[ 1.58979089e-05 -6.32950986e-07  0.00000000e+00  0.00000000e+00
  0.00000000e+00 -1.51074418e-06 -6.32950986e-07  1.23573132e-05
  0.00000000e+00  0.00000000e+00  0.00000000e+00 -6.32868573e-07
  0.00000000e+00  0.00000000e+00  0.00000000e+00  0.00000000e+00
  0.00000000e+00  0.00000000e+00  0.00000000e+00  0.00000000e+00
  0.00000000e+00  0.00000000e+00  0.00000000e+00  0.00000000e+00
  0.00000000e+00  0.00000000e+00  0.00000000e+00  0.00000000e+00
  0.00000000e+00  0.00000000e+00 -1.51074418e-06 -6.32868573e-07
  0.00000000e+00  0.00000000e+00  0.00000000e+00  3.74067142e-06]","[[-0.00023367  0.00803324]
 [-0.00023279 -0.00245593]]",[],0.0,0.0
1787559125.288498,1.6919310012786886,0.9031141039423893,2.076480968655167,"[ 1.58979089e-05 -6.32950986e-07  0.00000000e+00  0.00000000e+00
  0.00000000e+00 -1.51074418e-06 -6.32950986e-07  1.23573132e-05
  0.00000000e+00  0.00000000e+00  0.00000000e+00 -6.32868573e-07
  0.00000000e+00  0.00000000e+00  0.00000000e+00  0.00000000e+00
  0.00000000e+00  0.00000000e+00  0.00000000e+00  0.00000000e+00
  0.00000000e+00  0.00000000e+00  0.00000000e+00  0.00000000e+00
  0.00000000e+00  0.00000000e+00  0.00000000e+00  0.00000000e+00
  0.00000000e+00  0.00000000e+00 -1.51074418e-06 -6.32868573e-07
  0.00000000e+00  0.00000000e+00  0.00000000e+00  3.74067142e-06]","[[-0.00023367  0.00803324]
 [-0.00023279 -0.00245593]]",[],0.0,0.0
1787559125.340676,1.6919310012786886,0.9031141039423893,2.076480968655167,"[ 1.58979089e-05 -6.32950986e-07  0.00000000e+00  0.00000000e+00
  0.00000000e+00 -1.51074418e-06 -6.32950986e-07  1.23573132e-05
  0.00000000e+00  0.00000000e+00  0.00000000e+00 -6.32868573e-07
  0.00000000e+00  0.00000000e+00  0.00000000e+00  0.00000000e+00
  0.00000000e+00  0.00000000e+00  0.00000000e+00  0.00000000e+00
  0.00000000e+00  0.00000000e+00  0.00000000e+00  0.00000000e+00
  0.00000000e+00  0.00000000e+00  0.00000000e+00  0.00000000e+00
  0.00000000e+00  0.00000000e+00 -1.51074418e-06 -6.32868573e-07
  0.00000000e+00  0.00000000e+00  0.00000000e+00  3.74067142e-06]","[[-0.00023367  0.00803324]
 [-0.00023279 -0.00245593]]",[],0.0,0.0
1787559125.3855693,1.6919310012786886,0.9031141039423893,2.076480968655167,"[ 1.58979089e-05 -6.32950986e-07  0.00000000e+00  0.00000000e+00
  0.00000000e+00 -1.51074418e-06 -6.32950986e-07  1.23573132e-05
  0.00000000e+00  0.00000000e+00  0.00000000e+00 -6.32868573e-07
  0.00000000e+00  0.00000000e+00  0.00000000e+00  0.00000000e+00
  0.00000000e+00  0.00000000e+00  0.00000000e+00  0.00000000e+00
  0.00000000e+00  0.00000000e+00  0.00000000e+00  0.00000000e+00
  0.00000000e+00  0.00000000e+00  0.00000000e+00  0.00000000e+00
  0.00000000e+00  0.00000000e+00 -1.51074418e-06 -6.32868573e-07
  0.00000000e+00  0.00000000e+00  0.00000000e+00  3.74067142e-06]","[[-0.00023367  0.00803324]
 [-0.00023279 -0.00245593]]",[],0.0,0.0
1787559125.4355943,1.6919310012786886,0.9031141039423893,2.076480968655167,"[ 1.58979089e-05 -6.32950986e-07  0.00000000e+00  0.00000000e+00
  0.00000000e+00 -1.51074418e-06 -6.32950986e-07  1.23573132e-05
  0.00000000e+00  0.00000000e+00  0.00000000e+00 -6.32868573e-07
  0.00000000e+00  0.00000000e+00  0.00000000e+00  0.00000000e+00
  0.00000000e+00  0.00000000e+00  0.00000000e+00  0.00000000e+00
  0.00000000e+00  0.00000000e+00  0.00000000e+00  0.00000000e+00
  0.00000000e+00  0.00000000e+00  0.00000000e+00  0.00000000e+00
  0.00000000e+00  0.00000000e+00 -1.51074418e-06 -6.32868573e-07
  0.00000000e+00  0.00000000e+00  0.00000000e+00  3.74067142e-06]","[[-0.00023367  0.00803324]
 [-0.00023279 -0.00245593]]",[],0.0,0.0
1787559125.4855554,1.6919310012786886,0.9031141039423893,2.076480968655167,"[ 1.58979089e-05 -6.32950986e-07  0.00000000e+00  0.00000000e+00
  0.00000000e+00 -1.51074418e-06 -6.32950986e-07  1.23573132e-05
  0.00000000e+00  0.00000000e+00  0.00000000e+00 -6.32868573e-07
  0.00000000e+00  0.00000000e+00  0.00000000e+00  0.00000000e+00
  0.00000000e+00  0.00000000e+00  0.00000000e+00  0.00000000e+00
  0.00000000e+00  0.00000000e+00  0.00000000e+00  0.00000000e+00
  0.00000000e+00  0.00000000e+00  0.00000000e+00  0.00000000e+00
  0.00000000e+00  0.00000000e+00 -1.51074418e-06 -6.32868573e-07
  0.00000000e+00  0.00000000e+00  0.00000000e+00  3.74067142e-06]","[[-0.00023367  0.00803324]
 [-0.00023279 -0.00245593]]",[],0.0,0.0
1787559125.5379398,1.6968442380728022,0.894635664739627,2.13780313273807,"[ 1.30012092e-05 -5.17315816e-07  0.00000000e+00  0.00000000e+00
  0.00000000e+00 -1.10564586e-06 -5.17315816e-07  1.00243888e-05
  0.00000000e+00  0.00000000e+00  0.00000000e+00 -3.62583856e-07
  0.00000000e+00  0.00000000e+00  0.00000000e+00  0.00000000e+00
  0.00000000e+00  0.00000000e+00  0.00000000e+00  0.00000000e+00
  0.00000000e+00  0.00000000e+00  0.00000000e+00  0.00000000e+00
  0.00000000e+00  0.00000000e+00  0.00000000e+00  0.00000000e+00
  0.00000000e+00  0.00000000e+00 -1.10564586e-06 -3.62583856e-07
  0.00000000e+00  0.00000000e+00  0.00000000e+00  3.74920842e-06]","[[-0.0001897   0.00891691]
 [-0.00018965 -0.00380828]]",[],0.0,0.0
1787559125.591154,1.6968442380728022,0.894635664739627,2.13780313273807,"[ 1.30012092e-05 -5.17315816e-07  0.00000000e+00  0.00000000e+00
  0.00000000e+00 -1.10564586e-06 -5.17315816e-07  1.00243888e-05
  0.00000000e+00  0.00000000e+00  0.00000000e+00 -3.62583856e-07
  0.00000000e+00  0.00000000e+00  0.00000000e+00  0.00000000e+00
  0.00000000e+00  0.00000000e+00  0.00000000e+00  0.00000000e+00
  0.00000000e+00  0.00000000e+00  0.00000000e+00  0.00000000e+00
  0.00000000e+00  0.00000000e+00  0.00000000e+00  0.00000000e+00
  0.00000000e+00  0.00000000e+00 -1.10564586e-06 -3.62583856e-07
  0.00000000e+00  0.00000000e+00  0.00000000e+00  3.74920842e-06]","[[-0.0001897   0.00891691]
 [-0.00018965 -0.00380828]]",[],0.0,0.0
1787559125.6495595,1.6968442380728022,0.894635664739627,2.13780313273807,"[ 1.30012092e-05 -5.17315816e-07  0.00000000e+00  0.00000000e+00
  0.00000000e+00 -1.10564586e-06 -5.17315816e-07  1.00243888e-05
  0.00000000e+00  0.00000000e+00  0.00000000e+00 -3.62583856e-07
  0.00000000e+00  0.00000000e+00  0.00000000e+00  0.00000000e+00
  0.00000000e+00  0.00000000e+00  0.00000000e+00  0.00000000e+00
  0.00000000e+00  0.00000000e+00  0.00000000e+00  0.00000000e+00
  0.00000000e+00  0.00000000e+00  0.00000000e+00  0.00000000e+00
  0.00000000e+00  0.00000000e+00 -1.10564586e-06 -3.62583856e-07
  0.00000000e+00  0.00000000e+00  0.00000000e+00  3.74920842e-06]","[[-0.0001897   0.00891691]
 [-0.00018965 -0.00380828]]",[],0.0,0.0
1787559125.7146168,1.6968442380728022,0.894635664739627,2.13780313273807,"[ 1.30012092e-05 -5.17315816e-07  0.00000000e+00  0.00000000e+00
  0.00000000e+00 -1.10564586e-06 -5.17315816e-07  1.00243888e-05
  0.00000000e+00  0.00000000e+00  0.00000000e+00 -3.62583856e-07
  0.00000000e+00  0.00000000e+00  0.00000000e+00  0.00000000e+00
  0.00000000e+00  0.00000000e+00  0.00000000e+00  0.00000000e+00
  0.00000000e+00  0.00000000e+00  0.00000000e+00  0.00000000e+00
  0.00000000e+00  0.00000000e+00  0.00000000e+00  0.00000000e+00
  0.00000000e+00  0.00000000e+00 -1.10564586e-06 -3.62583856e-07
  0.00000000e+00  0.00000000e+00  0.00000000e+00  3.74920842e-06]","[[-0.0001897   0.00891691]
 [-0.00018965 -0.00380828]]",[],0.0,0.0
1787559125.7377365,1.6968442380728022,0.894635664739627,2.13780313273807,"[ 1.30012092e-05 -5.17315816e-07  0.00000000e+00  0.00000000e+00
  0.00000000e+00 -1.10564586e-06 -5.17315816e-07  1.00243888e-05
  0.00000000e+00  0.00000000e+00  0.00000000e+00 -3.62583856e-07
  0.00000000e+00  0.00000000e+00  0.00000000e+00  0.00000000e+00
  0.00000000e+00  0.00000000e+00  0.00000000e+00  0.00000000e+00
  0.00000000e+00  0.00000000e+00  0.00000000e+00  0.00000000e+00
  0.00000000e+00  0.00000000e+00  0.00000000e+00  0.00000000e+00
  0.00000000e+00  0.00000000e+00 -1.10564586e-06 -3.62583856e-07
  0.00000000e+00  0.00000000e+00  0.00000000e+00  3.74920842e-06]","[[-0.0001897   0.00891691]
 [-0.00018965 -0.00380828]]",[],0.0,0.0
1787559125.785513,1.6968442380728022,0.894635664739627,2.13780313273807,"[ 1.30012092e-05 -5.17315816e-07  0.00000000e+00  0.00000000e+00
  0.00000000e+00 -1.10564586e-06 -5.17315816e-07  1.00243888e-05
  0.00000000e+00  0.00000000e+00  0.00000000e+00 -3.62583856e-07
  0.00000000e+00  0.00000000e+00  0.00000000e+00  0.00000000e+00
  0.00000000e+00  0.00000000e+00  0.00000000e+00  0.00000000e+00
  0.00000000e+00  0.00000000e+00  0.00000000e+00  0.00000000e+00
  0.00000000e+00  0.00000000e+00  0.00000000e+00  0.00000000e+00
  0.00000000e+00  0.00000000e+00 -1.10564586e-06 -3.62583856e-07
  0.00000000e+00  0.00000000e+00  0.00000000e+00  3.74920842e-06]","[[-0.0001897   0.00891691]
 [-0.00018965 -0.00380828]]",[],0.0,0.0
1787559125.8362968,1.6968442380728022,0.894635664739627,2.13780313273807,"[ 1.30012092e-05 -5.17315816e-07  0.00000000e+00  0.00000000e+00
  0.00000000e+00 -1.10564586e-06 -5.17315816e-07  1.00243888e-05
  0.00000000e+00  0.00000000e+00  0.00000000e+00 -3.62583856e-07
  0.00000000e+00  0.00000000e+00  0.00000000e+00  0.00000000e+00
  0.00000000e+00  0.00000000e+00  0.00000000e+00  0.00000000e+00
  0.00000000e+00  0.00000000e+00  0.00000000e+00  0.00000000e+00
  0.00000000e+00  0.00000000e+00  0.00000000e+00  0.00000000e+00
  0.00000000e+00  0.00000000e+00 -1.10564586e-06 -3.62583856e-07
  0.00000000e+00  0.00000000e+00  0.00000000e+00  3.74920842e-06]","[[-0.0001897   0.00891691]
 [-0.00018965 -0.00380828]]",[],0.0,0.0
1787559125.8917687,1.6968442380728022,0.894635664739627,2.13780313273807,"[ 1.30012092e-05 -5.17315816e-07  0.00000000e+00  0.00000000e+00
  0.00000000e+00 -1.10564586e-06 -5.17315816e-07  1.00243888e-05
  0.00000000e+00  0.00000000e+00  0.00000000e+00 -3.62583856e-07
  0.00000000e+00  0.00000000e+00  0.00000000e+00  0.00000000e+00
  0.00000000e+00  0.00000000e+00  0.00000000e+00  0.00000000e+00
  0.00000000e+00  0.00000000e+00  0.00000000e+00  0.00000000e+00
  0.00000000e+00  0.00000000e+00  0.00000000e+00  0.00000000e+00
  0.00000000e+00  0.00000000e+00 -1.10564586e-06 -3.62583856e-07
  0.00000000e+00  0.00000000e+00  0.00000000e+00  3.74920842e-06]","[[-0.0001897   0.00891691]
 [-0.00018965 -0.00380828]]",[],0.0,0.0
1787559125.9356272,1.6968442380728022,0.894635664739627,2.13780313273807,"[ 1.30012092e-05 -5.17315816e-07  0.00000000e+00  0.00000000e+00
  0.00000000e+00 -1.10564586e-06 -5.17315816e-07  1.00243888e-05
  0.00000000e+00  0.00000000e+00  0.00000000e+00 -3.62583856e-07
  0.00000000e+00  0.00000000e+00  0.00000000e+00  0.00000000e+00
  0.00000000e+00  0.00000000e+00  0.00000000e+00  0.00000000e+00
  0.00000000e+00  0.00000000e+00  0.00000000e+00  0.00000000e+00
  0.00000000e+00  0.00000000e+00  0.00000000e+00  0.00000000e+00
  0.00000000e+00  0.00000000e+00 -1.10564586e-06 -3.62583856e-07
  0.00000000e+00  0.00000000e+00  0.00000000e+00  3.74920842e-06]","[[-0.0001897   0.00891691]
 [-0.00018965 -0.00380828]]",[],0.0,0.0
1787559125.9856668,1.6968442380728022,0.894635664739627,2.13780313273807,"[ 1.30012092e-05 -5.17315816e-07  0.00000000e+00  0.00000000e+00
  0.00000000e+00 -1.10564586e-06 -5.17315816e-07  1.00243888e-05
  0.00000000e+00  0.00000000e+00  0.00000000e+00 -3.62583856e-07
  0.00000000e+00  0.00000000e+00  0.00000000e+00  0.00000000e+00
  0.00000000e+00  0.00000000e+00  0.00000000e+00  0.00000000e+00
  0.00000000e+00  0.00000000e+00  0.00000000e+00  0.00000000e+00
  0.00000000e+00  0.00000000e+00  0.00000000e+00  0.00000000e+00
  0.00000000e+00  0.00000000e+00 -1.10564586e-06 -3.62583856e-07
  0.00000000e+00  0.00000000e+00  0.00000000e+00  3.74920842e-06]","[[-0.0001897   0.00891691]
 [-0.00018965 -0.00380828]]",[],0.0,0.0
1787559126.0370705,1.6968442380728022,0.894635664739627,2.13780313273807,"[ 1.30012092e-05 -5.17315816e-07  0.00000000e+00  0.00000000e+00
  0.00000000e+00 -1.10564586e-06 -5.17315816e-07  1.00243888e-05
  0.00000000e+00  0.00000000e+00  0.00000000e+00 -3.62583856e-07
  0.00000000e+00  0.00000000e+00  0.00000000e+00  0.00000000e+00
  0.00000000e+00  0.00000000e+00  0.00000000e+00  0.00000000e+00
  0.00000000e+00  0.00000000e+00  0.00000000e+00  0.00000000e+00
  0.00000000e+00  0.00000000e+00  0.00000000e+00  0.00000000e+00
  0.00000000e+00  0.00000000e+00 -1.10564586e-06 -3.62583856e-07
  0.00000000e+00  0.00000000e+00  0.00000000e+00  3.74920842e-06]","[[-0.0001897   0.00891691]
 [-0.00018965 -0.00380828]]",[],0.0,0.0
1787559126.0855322,1.6968442380728022,0.894635664739627,2.13780313273807,"[ 1.30012092e-05 -5.17315816e-07  0.00000000e+00  0.00000000e+00
  0.00000000e+00 -1.10564586e-06 -5.17315816e-07  1.00243888e-05
  0.00000000e+00  0.00000000e+00  0.00000000e+00 -3.62583856e-07
  0.00000000e+00  0.00000000e+00  0.00000000e+00  0.00000000e+00
  0.00000000e+00  0.00000000e+00  0.00000000e+00  0.00000000e+00
  0.00000000e+00  0.00000000e+00  0.00000000e+00  0.00000000e+00
  0.00000000e+00  0.00000000e+00  0.00000000e+00  0.00000000e+00
  0.00000000e+00  0.00000000e+00 -1.10564586e-06 -3.62583856e-07
  0.00000000e+00  0.00000000e+00  0.00000000e+00  3.74920842e-06]","[[-0.0001897   0.00891691]
 [-0.00018965 -0.00380828]]",[],0.0,0.0
1787559126.1350467,1.6968442380728022,0.894635664739627,2.13780313273807,"[ 1.30012092e-05 -5.17315816e-07  0.00000000e+00  0.00000000e+00
  0.00000000e+00 -1.10564586e-06 -5.17315816e-07  1.00243888e-05
  0.00000000e+00  0.00000000e+00  0.00000000e+00 -3.62583856e-07
  0.00000000e+00  0.00000000e+00  0.00000000e+00  0.00000000e+00
  0.00000000e+00  0.00000000e+00  0.00000000e+00  0.00000000e+00
  0.00000000e+00  0.00000000e+00  0.00000000e+00  0.00000000e+00
  0.00000000e+00  0.00000000e+00  0.00000000e+00  0.00000000e+00
  0.00000000e+00  0.00000000e+00 -1.10564586e-06 -3.62583856e-07
  0.00000000e+00  0.00000000e+00  0.00000000e+00  3.74920842e-06]","[[-0.0001897   0.00891691]
 [-0.00018965 -0.00380828]]",[],0.0,0.0
1787559126.1944783,1.6968442380728022,0.894635664739627,2.13780313273807,"[ 1.30012092e-05 -5.17315816e-07  0.00000000e+00  0.00000000e+00
  0.00000000e+00 -1.10564586e-06 -5.17315816e-07  1.00243888e-05
  0.00000000e+00  0.00000000e+00  0.00000000e+00 -3.62583856e-07
  0.00000000e+00  0.00000000e+00  0.00000000e+00  0.00000000e+00
  0.00000000e+00  0.00000000e+00  0.00000000e+00  0.00000000e+00
  0.00000000e+00  0.00000000e+00  0.00000000e+00  0.00000000e+00
  0.00000000e+00  0.00000000e+00  0.00000000e+00  0.00000000e+00
  0.00000000e+00  0.00000000e+00 -1.10564586e-06 -3.62583856e-07
  0.00000000e+00  0.00000000e+00  0.00000000e+00  3.74920842e-06]","[[-0.0001897   0.00891691]
 [-0.00018965 -0.00380828]]",[],0.0,0.0
1787559126.235859,1.6968442380728022,0.894635664739627,2.13780313273807,"[ 1.30012092e-05 -5.17315816e-07  0.00000000e+00  0.00000000e+00
  0.00000000e+00 -1.10564586e-06 -5.17315816e-07  1.00243888e-05
  0.00000000e+00  0.00000000e+00  0.00000000e+00 -3.62583856e-07
  0.00000000e+00  0.00000000e+00  0.00000000e+00  0.00000000e+00
  0.00000000e+00  0.00000000e+00  0.00000000e+00  0.00000000e+00
  0.00000000e+00  0.00000000e+00  0.00000000e+00  0.00000000e+00
  0.00000000e+00  0.00000000e+00  0.00000000e+00  0.00000000e+00
  0.00000000e+00  0.00000000e+00 -1.10564586e-06 -3.62583856e-07
  0.00000000e+00  0.00000000e+00  0.00000000e+00  3.74920842e-06]","[[-0.0001897   0.00891691]
 [-0.00018965 -0.00380828]]",[],0.0,0.0
1787559126.285742,1.6968442380728022,0.894635664739627,2.13780313273807,"[ 1.30012092e-05 -5.17315816e-07  0.00000000e+00  0.00000000e+00
  0.00000000e+00 -1.10564586e-06 -5.17315816e-07  1.00243888e-05
  0.00000000e+00  0.00000000e+00  0.00000000e+00 -3.62583856e-07
  0.00000000e+00  0.00000000e+00  0.00000000e+00  0.00000000e+00
  0.00000000e+00  0.00000000e+00  0.00000000e+00  0.00000000e+00
  0.00000000e+00  0.00000000e+00  0.00000000e+00  0.00000000e+00
  0.00000000e+00  0.00000000e+00  0.00000000e+00  0.00000000e+00
  0.00000000e+00  0.00000000e+00 -1.10564586e-06 -3.62583856e-07
  0.00000000e+00  0.00000000e+00  0.00000000e+00  3.74920842e-06]","[[-0.0001897   0.00891691]
 [-0.00018965 -0.00380828]]",[],0.0,0.0
1787559126.3354623,1.6968442380728022,0.894635664739627,2.13780313273807,"[ 1.30012092e-05 -5.17315816e-07  0.00000000e+00  0.00000000e+00
  0.00000000e+00 -1.10564586e-06 -5.17315816e-07  1.00243888e-05
  0.00000000e+00  0.00000000e+00  0.00000000e+00 -3.62583856e-07
  0.00000000e+00  0.00000000e+00  0.00000000e+00  0.00000000e+00
  0.00000000e+00  0.00000000e+00  0.00000000e+00  0.00000000e+00
  0.00000000e+00  0.00000000e+00  0.00000000e+00  0.00000000e+00
  0.00000000e+00  0.00000000e+00  0.00000000e+00  0.00000000e+00
  0.00000000e+00  0.00000000e+00 -1.10564586e-06 -3.62583856e-07
  0.00000000e+00  0.00000000e+00  0.00000000e+00  3.74920842e-06]","[[-0.0001897   0.00891691]
 [-0.00018965 -0.00380828]]",[],0.0,0.0
1787559126.387724,1.704116081155647,0.8923594854890561,2.1827479213327603,"[ 1.06904214e-05 -3.84531413e-07  0.00000000e+00  0.00000000e+00
  0.00000000e+00 -9.65504897e-07 -3.84531413e-07  8.37500627e-06
  0.00000000e+00  0.00000000e+00  0.00000000e+00 -4.19816617e-07
  0.00000000e+00  0.00000000e+00  0.00000000e+00  0.00000000e+00
  0.00000000e+00  0.00000000e+00  0.00000000e+00  0.00000000e+00
  0.00000000e+00  0.00000000e+00  0.00000000e+00  0.00000000e+00
  0.00000000e+00  0.00000000e+00  0.00000000e+00  0.00000000e+00
  0.00000000e+00  0.00000000e+00 -9.65504897e-07 -4.19816617e-07
  0.00000000e+00  0.00000000e+00  0.00000000e+00  3.60727768e-06]","[[-0.00015683  0.00532043]
 [-0.00015916 -0.00164976]]",[],0.0,0.0
1787559126.436682,1.704116081155647,0.8923594854890561,2.1827479213327603,"[ 1.06904214e-05 -3.84531413e-07  0.00000000e+00  0.00000000e+00
  0.00000000e+00 -9.65504897e-07 -3.84531413e-07  8.37500627e-06
  0.00000000e+00  0.00000000e+00  0.00000000e+00 -4.19816617e-07
  0.00000000e+00  0.00000000e+00  0.00000000e+00  0.00000000e+00
  0.00000000e+00  0.00000000e+00  0.00000000e+00  0.00000000e+00
  0.00000000e+00  0.00000000e+00  0.00000000e+00  0.00000000e+00
  0.00000000e+00  0.00000000e+00  0.00000000e+00  0.00000000e+00
  0.00000000e+00  0.00000000e+00 -9.65504897e-07 -4.19816617e-07
  0.00000000e+00  0.00000000e+00  0.00000000e+00  3.60727768e-06]","[[-0.00015683  0.00532043]
 [-0.00015916 -0.00164976]]",[],0.0,0.0
1787559126.492423,1.704116081155647,0.8923594854890561,2.1827479213327603,"[ 1.06904214e-05 -3.84531413e-07  0.00000000e+00  0.00000000e+00
  0.00000000e+00 -9.65504897e-07 -3.84531413e-07  8.37500627e-06
  0.00000000e+00  0.00000000e+00  0.00000000e+00 -4.19816617e-07
  0.00000000e+00  0.00000000e+00  0.00000000e+00  0.00000000e+00
  0.00000000e+00  0.00000000e+00  0.00000000e+00  0.00000000e+00
  0.00000000e+00  0.00000000e+00  0.00000000e+00  0.00000000e+00
  0.00000000e+00  0.00000000e+00  0.00000000e+00  0.00000000e+00
  0.00000000e+00  0.00000000e+00 -9.65504897e-07 -4.19816617e-07
  0.00000000e+00  0.00000000e+00  0.00000000e+00  3.60727768e-06]","[[-0.00015683  0.00532043]
 [-0.00015916 -0.00164976]]",[],0.0,0.0
1787559126.5443985,1.704116081155647,0.8923594854890561,2.1827479213327603,"[ 1.06904214e-05 -3.84531413e-07  0.00000000e+00  0.00000000e+00
  0.00000000e+00 -9.65504897e-07 -3.84531413e-07  8.37500627e-06
  0.00000000e+00  0.00000000e+00  0.00000000e+00 -4.19816617e-07
  0.00000000e+00  0.00000000e+00  0.00000000e+00  0.00000000e+00
  0.00000000e+00  0.00000000e+00  0.00000000e+00  0.00000000e+00
  0.00000000e+00  0.00000000e+00  0.00000000e+00  0.00000000e+00
  0.00000000e+00  0.00000000e+00  0.00000000e+00  0.00000000e+00
  0.00000000e+00  0.00000000e+00 -9.65504897e-07 -4.19816617e-07
  0.00000000e+00  0.00000000e+00  0.00000000e+00  3.60727768e-06]","[[-0.00015683  0.00532043]
 [-0.00015916 -0.00164976]]",[],0.0,0.0
1787559126.5865207,1.704116081155647,0.8923594854890561,2.1827479213327603,"[ 1.06904214e-05 -3.84531413e-07  0.00000000e+00  0.00000000e+00
  0.00000000e+00 -9.65504897e-07 -3.84531413e-07  8.37500627e-06
  0.00000000e+00  0.00000000e+00  0.00000000e+00 -4.19816617e-07
  0.00000000e+00  0.00000000e+00  0.00000000e+00  0.00000000e+00
  0.00000000e+00  0.00000000e+00  0.00000000e+00  0.00000000e+00
  0.00000000e+00  0.00000000e+00  0.00000000e+00  0.00000000e+00
  0.00000000e+00  0.00000000e+00  0.00000000e+00  0.00000000e+00
  0.00000000e+00  0.00000000e+00 -9.65504897e-07 -4.19816617e-07
  0.00000000e+00  0.00000000e+00  0.00000000e+00  3.60727768e-06]","[[-0.00015683  0.00532043]
 [-0.00015916 -0.00164976]]",[],0.0,0.0
1787559126.6359005,1.704116081155647,0.8923594854890561,2.1827479213327603,"[ 1.06904214e-05 -3.84531413e-07  0.00000000e+00  0.00000000e+00
  0.00000000e+00 -9.65504897e-07 -3.84531413e-07  8.37500627e-06
  0.00000000e+00  0.00000000e+00  0.00000000e+00 -4.19816617e-07
  0.00000000e+00  0.00000000e+00  0.00000000e+00  0.00000000e+00
  0.00000000e+00  0.00000000e+00  0.00000000e+00  0.00000000e+00
  0.00000000e+00  0.00000000e+00  0.00000000e+00  0.00000000e+00
  0.00000000e+00  0.00000000e+00  0.00000000e+00  0.00000000e+00
  0.00000000e+00  0.00000000e+00 -9.65504897e-07 -4.19816617e-07
  0.00000000e+00  0.00000000e+00  0.00000000e+00  3.60727768e-06]","[[-0.00015683  0.00532043]
 [-0.00015916 -0.00164976]]",[],0.0,0.0
1787559126.6908083,1.704116081155647,0.8923594854890561,2.1827479213327603,"[ 1.06904214e-05 -3.84531413e-07  0.00000000e+00  0.00000000e+00
  0.00000000e+00 -9.65504897e-07 -3.84531413e-07  8.37500627e-06
  0.00000000e+00  0.00000000e+00  0.00000000e+00 -4.19816617e-07
  0.00000000e+00  0.00000000e+00  0.00000000e+00  0.00000000e+00
  0.00000000e+00  0.00000000e+00  0.00000000e+00  0.00000000e+00
  0.00000000e+00  0.00000000e+00  0.00000000e+00  0.00000000e+00
  0.00000000e+00  0.00000000e+00  0.00000000e+00  0.00000000e+00
  0.00000000e+00  0.00000000e+00 -9.65504897e-07 -4.19816617e-07
  0.00000000e+00  0.00000000e+00  0.00000000e+00  3.60727768e-06]","[[-0.00015683  0.00532043]
 [-0.00015916 -0.00164976]]",[],0.0,0.0
1787559126.7357187,1.704116081155647,0.8923594854890561,2.1827479213327603,"[ 1.06904214e-05 -3.84531413e-07  0.00000000e+00  0.00000000e+00
  0.00000000e+00 -9.65504897e-07 -3.84531413e-07  8.37500627e-06
  0.00000000e+00  0.00000000e+00  0.00000000e+00 -4.19816617e-07
  0.00000000e+00  0.00000000e+00  0.00000000e+00  0.00000000e+00
  0.00000000e+00  0.00000000e+00  0.00000000e+00  0.00000000e+00
  0.00000000e+00  0.00000000e+00  0.00000000e+00  0.00000000e+00
  0.00000000e+00  0.00000000e+00  0.00000000e+00  0.00000000e+00
  0.00000000e+00  0.00000000e+00 -9.65504897e-07 -4.19816617e-07
  0.00000000e+00  0.00000000e+00  0.00000000e+00  3.60727768e-06]","[[-0.00015683  0.00532043]
 [-0.00015916 -0.00164976]]",[],0.0,0.0
1787559126.7868447,1.704116081155647,0.8923594854890561,2.1827479213327603,"[ 1.06904214e-05 -3.84531413e-07  0.00000000e+00  0.00000000e+00
  0.00000000e+00 -9.65504897e-07 -3.84531413e-07  8.37500627e-06
  0.00000000e+00  0.00000000e+00  0.00000000e+00 -4.19816617e-07
  0.00000000e+00  0.00000000e+00  0.00000000e+00  0.00000000e+00
  0.00000000e+00  0.00000000e+00  0.00000000e+00  0.00000000e+00
  0.00000000e+00  0.00000000e+00  0.00000000e+00  0.00000000e+00
  0.00000000e+00  0.00000000e+00  0.00000000e+00  0.00000000e+00
  0.00000000e+00  0.00000000e+00 -9.65504897e-07 -4.19816617e-07
  0.00000000e+00  0.00000000e+00  0.00000000e+00  3.60727768e-06]","[[-0.00015683  0.00532043]
 [-0.00015916 -0.00164976]]",[],0.0,0.0
1787559126.8372736,1.704116081155647,0.8923594854890561,2.1827479213327603,"[ 1.06904214e-05 -3.84531413e-07  0.00000000e+00  0.00000000e+00
  0.00000000e+00 -9.65504897e-07 -3.84531413e-07  8.37500627e-06
  0.00000000e+00  0.00000000e+00  0.00000000e+00 -4.19816617e-07
  0.00000000e+00  0.00000000e+00  0.00000000e+00  0.00000000e+00
  0.00000000e+00  0.00000000e+00  0.00000000e+00  0.00000000e+00
  0.00000000e+00  0.00000000e+00  0.00000000e+00  0.00000000e+00
  0.00000000e+00  0.00000000e+00  0.00000000e+00  0.00000000e+00
  0.00000000e+00  0.00000000e+00 -9.65504897e-07 -4.19816617e-07
  0.00000000e+00  0.00000000e+00  0.00000000e+00  3.60727768e-06]","[[-0.00015683  0.00532043]
 [-0.00015916 -0.00164976]]",[],0.0,0.0
1787559126.8964043,1.704116081155647,0.8923594854890561,2.1827479213327603,"[ 1.06904214e-05 -3.84531413e-07  0.00000000e+00  0.00000000e+00
  0.00000000e+00 -9.65504897e-07 -3.84531413e-07  8.37500627e-06
  0.00000000e+00  0.00000000e+00  0.00000000e+00 -4.19816617e-07
  0.00000000e+00  0.00000000e+00  0.00000000e+00  0.00000000e+00
  0.00000000e+00  0.00000000e+00  0.00000000e+00  0.00000000e+00
  0.00000000e+00  0.00000000e+00  0.00000000e+00  0.00000000e+00
  0.00000000e+00  0.00000000e+00  0.00000000e+00  0.00000000e+00
  0.00000000e+00  0.00000000e+00 -9.65504897e-07 -4.19816617e-07
  0.00000000e+00  0.00000000e+00  0.00000000e+00  3.60727768e-06]","[[-0.00015683  0.00532043]
 [-0.00015916 -0.00164976]]",[],0.0,0.0
1787559126.9416811,1.704116081155647,0.8923594854890561,2.1827479213327603,"[ 1.06904214e-05 -3.84531413e-07  0.00000000e+00  0.00000000e+00
  0.00000000e+00 -9.65504897e-07 -3.84531413e-07  8.37500627e-06
  0.00000000e+00  0.00000000e+00  0.00000000e+00 -4.19816617e-07
  0.00000000e+00  0.00000000e+00  0.00000000e+00  0.00000000e+00
  0.00000000e+00  0.00000000e+00  0.00000000e+00  0.00000000e+00
  0.00000000e+00  0.00000000e+00  0.00000000e+00  0.00000000e+00
  0.00000000e+00  0.00000000e+00  0.00000000e+00  0.00000000e+00
  0.00000000e+00  0.00000000e+00 -9.65504897e-07 -4.19816617e-07
  0.00000000e+00  0.00000000e+00  0.00000000e+00  3.60727768e-06]","[[-0.00015683  0.00532043]
 [-0.00015916 -0.00164976]]",[],0.0,0.0
1787559126.991166,1.704116081155647,0.8923594854890561,2.1827479213327603,"[ 1.06904214e-05 -3.84531413e-07  0.00000000e+00  0.00000000e+00
  0.00000000e+00 -9.65504897e-07 -3.84531413e-07  8.37500627e-06
  0.00000000e+00  0.00000000e+00  0.00000000e+00 -4.19816617e-07
  0.00000000e+00  0.00000000e+00  0.00000000e+00  0.00000000e+00
  0.00000000e+00  0.00000000e+00  0.00000000e+00  0.00000000e+00
  0.00000000e+00  0.00000000e+00  0.00000000e+00  0.00000000e+00
  0.00000000e+00  0.00000000e+00  0.00000000e+00  0.00000000e+00
  0.00000000e+00  0.00000000e+00 -9.65504897e-07 -4.19816617e-07
  0.00000000e+00  0.00000000e+00  0.00000000e+00  3.60727768e-06]","[[-0.00015683  0.00532043]
 [-0.00015916 -0.00164976]]",[],0.0,0.0
1787559127.0357947,1.704116081155647,0.8923594854890561,2.1827479213327603,"[ 1.06904214e-05 -3.84531413e-07  0.00000000e+00  0.00000000e+00
  0.00000000e+00 -9.65504897e-07 -3.84531413e-07  8.37500627e-06
  0.00000000e+00  0.00000000e+00  0.00000000e+00 -4.19816617e-07
  0.00000000e+00  0.00000000e+00  0.00000000e+00  0.00000000e+00
  0.00000000e+00  0.00000000e+00  0.00000000e+00  0.00000000e+00
  0.00000000e+00  0.00000000e+00  0.00000000e+00  0.00000000e+00
  0.00000000e+00  0.00000000e+00  0.00000000e+00  0.00000000e+00
  0.00000000e+00  0.00000000e+00 -9.65504897e-07 -4.19816617e-07
  0.00000000e+00  0.00000000e+00  0.00000000e+00  3.60727768e-06]","[[-0.00015683  0.00532043]
 [-0.00015916 -0.00164976]]",[],0.0,0.0
1787559127.0864007,1.704116081155647,0.8923594854890561,2.1827479213327603,"[ 1.06904214e-05 -3.84531413e-07  0.00000000e+00  0.00000000e+00
  0.00000000e+00 -9.65504897e-07 -3.84531413e-07  8.37500627e-06
  0.00000000e+00  0.00000000e+00  0.00000000e+00 -4.19816617e-07
  0.00000000e+00  0.00000000e+00  0.00000000e+00  0.00000000e+00
  0.00000000e+00  0.00000000e+00  0.00000000e+00  0.00000000e+00
  0.00000000e+00  0.00000000e+00  0.00000000e+00  0.00000000e+00
  0.00000000e+00  0.00000000e+00  0.00000000e+00  0.00000000e+00
  0.00000000e+00  0.00000000e+00 -9.65504897e-07 -4.19816617e-07
  0.00000000e+00  0.00000000e+00  0.00000000e+00  3.60727768e-06]","[[-0.00015683  0.00532043]
 [-0.00015916 -0.00164976]]",[],0.0,0.0
1787559127.1391473,1.704116081155647,0.8923594854890561,2.1827479213327603,"[ 1.06904214e-05 -3.84531413e-07  0.00000000e+00  0.00000000e+00
  0.00000000e+00 -9.65504897e-07 -3.84531413e-07  8.37500627e-06
  0.00000000e+00  0.00000000e+00  0.00000000e+00 -4.19816617e-07
  0.00000000e+00  0.00000000e+00  0.00000000e+00  0.00000000e+00
  0.00000000e+00  0.00000000e+00  0.00000000e+00  0.00000000e+00
  0.00000000e+00  0.00000000e+00  0.00000000e+00  0.00000000e+00
  0.00000000e+00  0.00000000e+00  0.00000000e+00  0.00000000e+00
  0.00000000e+00  0.00000000e+00 -9.65504897e-07 -4.19816617e-07
  0.00000000e+00  0.00000000e+00  0.00000000e+00  3.60727768e-06]","[[-0.00015683  0.00532043]
 [-0.00015916 -0.00164976]]",[],0.0,0.0
1787559127.1863735,1.704116081155647,0.8923594854890561,2.1827479213327603,"[ 1.06904214e-05 -3.84531413e-07  0.00000000e+00  0.00000000e+00
  0.00000000e+00 -9.65504897e-07 -3.84531413e-07  8.37500627e-06
  0.00000000e+00  0.00000000e+00  0.00000000e+00 -4.19816617e-07
  0.00000000e+00  0.00000000e+00  0.00000000e+00  0.00000000e+00
  0.00000000e+00  0.00000000e+00  0.00000000e+00  0.00000000e+00
  0.00000000e+00  0.00000000e+00  0.00000000e+00  0.00000000e+00
  0.00000000e+00  0.00000000e+00  0.00000000e+00  0.00000000e+00
  0.00000000e+00  0.00000000e+00 -9.65504897e-07 -4.19816617e-07
  0.00000000e+00  0.00000000e+00  0.00000000e+00  3.60727768e-06]","[[-0.00015683  0.00532043]
 [-0.00015916 -0.00164976]]",[],0.0,0.0
1787559127.2352672,1.713172290426632,0.8902479131792986,2.224525536263293,"[ 9.11430483e-06 -3.45671271e-07  0.00000000e+00  0.00000000e+00
  0.00000000e+00 -8.33197803e-07 -3.45671271e-07  7.24505990e-06
  0.00000000e+00  0.00000000e+00  0.00000000e+00 -3.23053809e-07
  0.00000000e+00  0.00000000e+00  0.00000000e+00  0.00000000e+00
  0.00000000e+00  0.00000000e+00  0.00000000e+00  0.00000000e+00
  0.00000000e+00  0.00000000e+00  0.00000000e+00  0.00000000e+00
  0.00000000e+00  0.00000000e+00  0.00000000e+00  0.00000000e+00
  0.00000000e+00  0.00000000e+00 -8.33197803e-07 -3.23053809e-07
  0.00000000e+00  0.00000000e+00  0.00000000e+00  3.59310946e-06]","[[-0.00011636  0.00693914]
 [-0.00014746 -0.00245823]]",[],0.0,0.0
1787559127.285282,1.713172290426632,0.8902479131792986,2.224525536263293,"[ 9.11430483e-06 -3.45671271e-07  0.00000000e+00  0.00000000e+00
  0.00000000e+00 -8.33197803e-07 -3.45671271e-07  7.24505990e-06
  0.00000000e+00  0.00000000e+00  0.00000000e+00 -3.23053809e-07
  0.00000000e+00  0.00000000e+00  0.00000000e+00  0.00000000e+00
  0.00000000e+00  0.00000000e+00  0.00000000e+00  0.00000000e+00
  0.00000000e+00  0.00000000e+00  0.00000000e+00  0.00000000e+00
  0.00000000e+00  0.00000000e+00  0.00000000e+00  0.00000000e+00
  0.00000000e+00  0.00000000e+00 -8.33197803e-07 -3.23053809e-07
  0.00000000e+00  0.00000000e+00  0.00000000e+00  3.59310946e-06]","[[-0.00011636  0.00693914]
 [-0.00014746 -0.00245823]]",[],0.0,0.0
1787559127.3372939,1.713172290426632,0.8902479131792986,2.224525536263293,"[ 9.11430483e-06 -3.45671271e-07  0.00000000e+00  0.00000000e+00
  0.00000000e+00 -8.33197803e-07 -3.45671271e-07  7.24505990e-06
  0.00000000e+00  0.00000000e+00  0.00000000e+00 -3.23053809e-07
  0.00000000e+00  0.00000000e+00  0.00000000e+00  0.00000000e+00
  0.00000000e+00  0.00000000e+00  0.00000000e+00  0.00000000e+00
  0.00000000e+00  0.00000000e+00  0.00000000e+00  0.00000000e+00
  0.00000000e+00  0.00000000e+00  0.00000000e+00  0.00000000e+00
  0.00000000e+00  0.00000000e+00 -8.33197803e-07 -3.23053809e-07
  0.00000000e+00  0.00000000e+00  0.00000000e+00  3.59310946e-06]","[[-0.00011636  0.00693914]
 [-0.00014746 -0.00245823]]",[],0.0,0.0
1787559127.3867974,1.713172290426632,0.8902479131792986,2.224525536263293,"[ 9.11430483e-06 -3.45671271e-07  0.00000000e+00  0.00000000e+00
  0.00000000e+00 -8.33197803e-07 -3.45671271e-07  7.24505990e-06
  0.00000000e+00  0.00000000e+00  0.00000000e+00 -3.23053809e-07
  0.00000000e+00  0.00000000e+00  0.00000000e+00  0.00000000e+00
  0.00000000e+00  0.00000000e+00  0.00000000e+00  0.00000000e+00
  0.00000000e+00  0.00000000e+00  0.00000000e+00  0.00000000e+00
  0.00000000e+00  0.00000000e+00  0.00000000e+00  0.00000000e+00
  0.00000000e+00  0.00000000e+00 -8.33197803e-07 -3.23053809e-07
  0.00000000e+00  0.00000000e+00  0.00000000e+00  3.59310946e-06]","[[-0.00011636  0.00693914]
 [-0.00014746 -0.00245823]]",[],0.0,0.0
1787559127.45875,1.713172290426632,0.8902479131792986,2.224525536263293,"[ 9.11430483e-06 -3.45671271e-07  0.00000000e+00  0.00000000e+00
  0.00000000e+00 -8.33197803e-07 -3.45671271e-07  7.24505990e-06
  0.00000000e+00  0.00000000e+00  0.00000000e+00 -3.23053809e-07
  0.00000000e+00  0.00000000e+00  0.00000000e+00  0.00000000e+00
  0.00000000e+00  0.00000000e+00  0.00000000e+00  0.00000000e+00
  0.00000000e+00  0.00000000e+00  0.00000000e+00  0.00000000e+00
  0.00000000e+00  0.00000000e+00  0.00000000e+00  0.00000000e+00
  0.00000000e+00  0.00000000e+00 -8.33197803e-07 -3.23053809e-07
  0.00000000e+00  0.00000000e+00  0.00000000e+00  3.59310946e-06]","[[-0.00011636  0.00693914]
 [-0.00014746 -0.00245823]]",[],0.0,0.0
1787559127.4883363,1.713172290426632,0.8902479131792986,2.224525536263293,"[ 9.11430483e-06 -3.45671271e-07  0.00000000e+00  0.00000000e+00
  0.00000000e+00 -8.33197803e-07 -3.45671271e-07  7.24505990e-06
  0.00000000e+00  0.00000000e+00  0.00000000e+00 -3.23053809e-07
  0.00000000e+00  0.00000000e+00  0.00000000e+00  0.00000000e+00
  0.00000000e+00  0.00000000e+00  0.00000000e+00  0.00000000e+00
  0.00000000e+00  0.00000000e+00  0.00000000e+00  0.00000000e+00
  0.00000000e+00  0.00000000e+00  0.00000000e+00  0.00000000e+00
  0.00000000e+00  0.00000000e+00 -8.33197803e-07 -3.23053809e-07
  0.00000000e+00  0.00000000e+00  0.00000000e+00  3.59310946e-06]","[[-0.00011636  0.00693914]
 [-0.00014746 -0.00245823]]",[],0.0,0.0
1787559127.536367,1.713172290426632,0.8902479131792986,2.224525536263293,"[ 9.11430483e-06 -3.45671271e-07  0.00000000e+00  0.00000000e+00
  0.00000000e+00 -8.33197803e-07 -3.45671271e-07  7.24505990e-06
  0.00000000e+00  0.00000000e+00  0.00000000e+00 -3.23053809e-07
  0.00000000e+00  0.00000000e+00  0.00000000e+00  0.00000000e+00
  0.00000000e+00  0.00000000e+00  0.00000000e+00  0.00000000e+00
  0.00000000e+00  0.00000000e+00  0.00000000e+00  0.00000000e+00
  0.00000000e+00  0.00000000e+00  0.00000000e+00  0.00000000e+00
  0.00000000e+00  0.00000000e+00 -8.33197803e-07 -3.23053809e-07
  0.00000000e+00  0.00000000e+00  0.00000000e+00  3.59310946e-06]","[[-0.00011636  0.00693914]
 [-0.00014746 -0.00245823]]",[],0.0,0.0
1787559127.592313,1.713172290426632,0.8902479131792986,2.224525536263293,"[ 9.11430483e-06 -3.45671271e-07  0.00000000e+00  0.00000000e+00
  0.00000000e+00 -8.33197803e-07 -3.45671271e-07  7.24505990e-06
  0.00000000e+00  0.00000000e+00  0.00000000e+00 -3.23053809e-07
  0.00000000e+00  0.00000000e+00  0.00000000e+00  0.00000000e+00
  0.00000000e+00  0.00000000e+00  0.00000000e+00  0.00000000e+00
  0.00000000e+00  0.00000000e+00  0.00000000e+00  0.00000000e+00
  0.00000000e+00  0.00000000e+00  0.00000000e+00  0.00000000e+00
  0.00000000e+00  0.00000000e+00 -8.33197803e-07 -3.23053809e-07
  0.00000000e+00  0.00000000e+00  0.00000000e+00  3.59310946e-06]","[[-0.00011636  0.00693914]
 [-0.00014746 -0.00245823]]",[],0.0,0.0
1787559127.6358654,1.713172290426632,0.8902479131792986,2.224525536263293,"[ 9.11430483e-06 -3.45671271e-07  0.00000000e+00  0.00000000e+00
  0.00000000e+00 -8.33197803e-07 -3.45671271e-07  7.24505990e-06
  0.00000000e+00  0.00000000e+00  0.00000000e+00 -3.23053809e-07
  0.00000000e+00  0.00000000e+00  0.00000000e+00  0.00000000e+00
  0.00000000e+00  0.00000000e+00  0.00000000e+00  0.00000000e+00
  0.00000000e+00  0.00000000e+00  0.00000000e+00  0.00000000e+00
  0.00000000e+00  0.00000000e+00  0.00000000e+00  0.00000000e+00
  0.00000000e+00  0.00000000e+00 -8.33197803e-07 -3.23053809e-07
  0.00000000e+00  0.00000000e+00  0.00000000e+00  3.59310946e-06]","[[-0.00011636  0.00693914]
 [-0.00014746 -0.00245823]]",[],0.0,0.0
1787559127.6853666,1.713172290426632,0.8902479131792986,2.224525536263293,"[ 9.11430483e-06 -3.45671271e-07  0.00000000e+00  0.00000000e+00
  0.00000000e+00 -8.33197803e-07 -3.45671271e-07  7.24505990e-06
  0.00000000e+00  0.00000000e+00  0.00000000e+00 -3.23053809e-07
  0.00000000e+00  0.00000000e+00  0.00000000e+00  0.00000000e+00
  0.00000000e+00  0.00000000e+00  0.00000000e+00  0.00000000e+00
  0.00000000e+00  0.00000000e+00  0.00000000e+00  0.00000000e+00
  0.00000000e+00  0.00000000e+00  0.00000000e+00  0.00000000e+00
  0.00000000e+00  0.00000000e+00 -8.33197803e-07 -3.23053809e-07
  0.00000000e+00  0.00000000e+00  0.00000000e+00  3.59310946e-06]","[[-0.00011636  0.00693914]
 [-0.00014746 -0.00245823]]",[],0.0,0.0
1787559127.7453396,1.713172290426632,0.8902479131792986,2.224525536263293,"[ 9.11430483e-06 -3.45671271e-07  0.00000000e+00  0.00000000e+00
  0.00000000e+00 -8.33197803e-07 -3.45671271e-07  7.24505990e-06
  0.00000000e+00  0.00000000e+00  0.00000000e+00 -3.23053809e-07
  0.00000000e+00  0.00000000e+00  0.00000000e+00  0.00000000e+00
  0.00000000e+00  0.00000000e+00  0.00000000e+00  0.00000000e+00
  0.00000000e+00  0.00000000e+00  0.00000000e+00  0.00000000e+00
  0.00000000e+00  0.00000000e+00  0.00000000e+00  0.00000000e+00
  0.00000000e+00  0.00000000e+00 -8.33197803e-07 -3.23053809e-07
  0.00000000e+00  0.00000000e+00  0.00000000e+00  3.59310946e-06]","[[-0.00011636  0.00693914]
 [-0.00014746 -0.00245823]]",[],0.0,0.0
1787559127.787988,1.713172290426632,0.8902479131792986,2.224525536263293,"[ 9.11430483e-06 -3.45671271e-07  0.00000000e+00  0.00000000e+00
  0.00000000e+00 -8.33197803e-07 -3.45671271e-07  7.24505990e-06
  0.00000000e+00  0.00000000e+00  0.00000000e+00 -3.23053809e-07
  0.00000000e+00  0.00000000e+00  0.00000000e+00  0.00000000e+00
  0.00000000e+00  0.00000000e+00  0.00000000e+00  0.00000000e+00
  0.00000000e+00  0.00000000e+00  0.00000000e+00  0.00000000e+00
  0.00000000e+00  0.00000000e+00  0.00000000e+00  0.00000000e+00
  0.00000000e+00  0.00000000e+00 -8.33197803e-07 -3.23053809e-07
  0.00000000e+00  0.00000000e+00  0.00000000e+00  3.59310946e-06]","[[-0.00011636  0.00693914]
 [-0.00014746 -0.00245823]]",[],0.0,0.0
1787559127.8374264,1.713172290426632,0.8902479131792986,2.224525536263293,"[ 9.11430483e-06 -3.45671271e-07  0.00000000e+00  0.00000000e+00
  0.00000000e+00 -8.33197803e-07 -3.45671271e-07  7.24505990e-06
  0.00000000e+00  0.00000000e+00  0.00000000e+00 -3.23053809e-07
  0.00000000e+00  0.00000000e+00  0.00000000e+00  0.00000000e+00
  0.00000000e+00  0.00000000e+00  0.00000000e+00  0.00000000e+00
  0.00000000e+00  0.00000000e+00  0.00000000e+00  0.00000000e+00
  0.00000000e+00  0.00000000e+00  0.00000000e+00  0.00000000e+00
  0.00000000e+00  0.00000000e+00 -8.33197803e-07 -3.23053809e-07
  0.00000000e+00  0.00000000e+00  0.00000000e+00  3.59310946e-06]","[[-0.00011636  0.00693914]
 [-0.00014746 -0.00245823]]",[],0.0,0.0
1787559127.8855548,1.713172290426632,0.8902479131792986,2.224525536263293,"[ 9.11430483e-06 -3.45671271e-07  0.00000000e+00  0.00000000e+00
  0.00000000e+00 -8.33197803e-07 -3.45671271e-07  7.24505990e-06
  0.00000000e+00  0.00000000e+00  0.00000000e+00 -3.23053809e-07
  0.00000000e+00  0.00000000e+00  0.00000000e+00  0.00000000e+00
  0.00000000e+00  0.00000000e+00  0.00000000e+00  0.00000000e+00
  0.00000000e+00  0.00000000e+00  0.00000000e+00  0.00000000e+00
  0.00000000e+00  0.00000000e+00  0.00000000e+00  0.00000000e+00
  0.00000000e+00  0.00000000e+00 -8.33197803e-07 -3.23053809e-07
  0.00000000e+00  0.00000000e+00  0.00000000e+00  3.59310946e-06]","[[-0.00011636  0.00693914]
 [-0.00014746 -0.00245823]]",[],0.0,0.0
1787559127.9365454,1.713172290426632,0.8902479131792986,2.224525536263293,"[ 9.11430483e-06 -3.45671271e-07  0.00000000e+00  0.00000000e+00
  0.00000000e+00 -8.33197803e-07 -3.45671271e-07  7.24505990e-06
  0.00000000e+00  0.00000000e+00  0.00000000e+00 -3.23053809e-07
  0.00000000e+00  0.00000000e+00  0.00000000e+00  0.00000000e+00
  0.00000000e+00  0.00000000e+00  0.00000000e+00  0.00000000e+00
  0.00000000e+00  0.00000000e+00  0.00000000e+00  0.00000000e+00
  0.00000000e+00  0.00000000e+00  0.00000000e+00  0.00000000e+00
  0.00000000e+00  0.00000000e+00 -8.33197803e-07 -3.23053809e-07
  0.00000000e+00  0.00000000e+00  0.00000000e+00  3.59310946e-06]","[[-0.00011636  0.00693914]
 [-0.00014746 -0.00245823]]",[],0.0,0.0
1787559127.9883833,1.713172290426632,0.8902479131792986,2.224525536263293,"[ 9.11430483e-06 -3.45671271e-07  0.00000000e+00  0.00000000e+00
  0.00000000e+00 -8.33197803e-07 -3.45671271e-07  7.24505990e-06
  0.00000000e+00  0.00000000e+00  0.00000000e+00 -3.23053809e-07
  0.00000000e+00  0.00000000e+00  0.00000000e+00  0.00000000e+00
  0.00000000e+00  0.00000000e+00  0.00000000e+00  0.00000000e+00
  0.00000000e+00  0.00000000e+00  0.00000000e+00  0.00000000e+00
  0.00000000e+00  0.00000000e+00  0.00000000e+00  0.00000000e+00
  0.00000000e+00  0.00000000e+00 -8.33197803e-07 -3.23053809e-07
  0.00000000e+00  0.00000000e+00  0.00000000e+00  3.59310946e-06]","[[-0.00011636  0.00693914]
 [-0.00014746 -0.00245823]]",[],0.0,0.0
1787559128.0406659,1.713172290426632,0.8902479131792986,2.224525536263293,"[ 9.11430483e-06 -3.45671271e-07  0.00000000e+00  0.00000000e+00
  0.00000000e+00 -8.33197803e-07 -3.45671271e-07  7.24505990e-06
  0.00000000e+00  0.00000000e+00  0.00000000e+00 -3.23053809e-07
  0.00000000e+00  0.00000000e+00  0.00000000e+00  0.00000000e+00
  0.00000000e+00  0.00000000e+00  0.00000000e+00  0.00000000e+00
  0.00000000e+00  0.00000000e+00  0.00000000e+00  0.00000000e+00
  0.00000000e+00  0.00000000e+00  0.00000000e+00  0.00000000e+00
  0.00000000e+00  0.00000000e+00 -8.33197803e-07 -3.23053809e-07
  0.00000000e+00  0.00000000e+00  0.00000000e+00  3.59310946e-06]","[[-0.00011636  0.00693914]
 [-0.00014746 -0.00245823]]",[],0.0,0.0
1787559128.085837,1.713172290426632,0.8902479131792986,2.224525536263293,"[ 9.11430483e-06 -3.45671271e-07  0.00000000e+00  0.00000000e+00
  0.00000000e+00 -8.33197803e-07 -3.45671271e-07  7.24505990e-06
  0.00000000e+00  0.00000000e+00  0.00000000e+00 -3.23053809e-07
  0.00000000e+00  0.00000000e+00  0.00000000e+00  0.00000000e+00
  0.00000000e+00  0.00000000e+00  0.00000000e+00  0.00000000e+00
  0.00000000e+00  0.00000000e+00  0.00000000e+00  0.00000000e+00
  0.00000000e+00  0.00000000e+00  0.00000000e+00  0.00000000e+00
  0.00000000e+00  0.00000000e+00 -8.33197803e-07 -3.23053809e-07
  0.00000000e+00  0.00000000e+00  0.00000000e+00  3.59310946e-06]","[[-0.00011636  0.00693914]
 [-0.00014746 -0.00245823]]",[],0.0,0.0
1787559128.1539369,1.713172290426632,0.8902479131792986,2.224525536263293,"[ 9.11430483e-06 -3.45671271e-07  0.00000000e+00  0.00000000e+00
  0.00000000e+00 -8.33197803e-07 -3.45671271e-07  7.24505990e-06
  0.00000000e+00  0.00000000e+00  0.00000000e+00 -3.23053809e-07
  0.00000000e+00  0.00000000e+00  0.00000000e+00  0.00000000e+00
  0.00000000e+00  0.00000000e+00  0.00000000e+00  0.00000000e+00
  0.00000000e+00  0.00000000e+00  0.00000000e+00  0.00000000e+00
  0.00000000e+00  0.00000000e+00  0.00000000e+00  0.00000000e+00
  0.00000000e+00  0.00000000e+00 -8.33197803e-07 -3.23053809e-07
  0.00000000e+00  0.00000000e+00  0.00000000e+00  3.59310946e-06]","[[-0.00011636  0.00693914]
 [-0.00014746 -0.00245823]]",[],0.0,0.0
1787559128.187178,1.720066200757154,0.887737745799362,2.2700088538122856,"[ 8.04118717e-06 -3.93962626e-07  0.00000000e+00  0.00000000e+00
  0.00000000e+00 -7.18761776e-07 -3.93962626e-07  6.41123009e-06
  0.00000000e+00  0.00000000e+00  0.00000000e+00 -3.55966308e-07
  0.00000000e+00  0.00000000e+00  0.00000000e+00  0.00000000e+00
  0.00000000e+00  0.00000000e+00  0.00000000e+00  0.00000000e+00
  0.00000000e+00  0.00000000e+00  0.00000000e+00  0.00000000e+00
  0.00000000e+00  0.00000000e+00  0.00000000e+00  0.00000000e+00
  0.00000000e+00  0.00000000e+00 -7.18761776e-07 -3.55966308e-07
  0.00000000e+00  0.00000000e+00  0.00000000e+00  3.67246091e-06]","[[-0.00010014  0.00614668]
 [-0.00012966 -0.00210164]]",[],0.0,0.0
1787559128.2495017,1.720066200757154,0.887737745799362,2.2700088538122856,"[ 8.04118717e-06 -3.93962626e-07  0.00000000e+00  0.00000000e+00
  0.00000000e+00 -7.18761776e-07 -3.93962626e-07  6.41123009e-06
  0.00000000e+00  0.00000000e+00  0.00000000e+00 -3.55966308e-07
  0.00000000e+00  0.00000000e+00  0.00000000e+00  0.00000000e+00
  0.00000000e+00  0.00000000e+00  0.00000000e+00  0.00000000e+00
  0.00000000e+00  0.00000000e+00  0.00000000e+00  0.00000000e+00
  0.00000000e+00  0.00000000e+00  0.00000000e+00  0.00000000e+00
  0.00000000e+00  0.00000000e+00 -7.18761776e-07 -3.55966308e-07
  0.00000000e+00  0.00000000e+00  0.00000000e+00  3.67246091e-06]","[[-0.00010014  0.00614668]
 [-0.00012966 -0.00210164]]",[],0.0,0.0
1787559128.2972312,1.720066200757154,0.887737745799362,2.2700088538122856,"[ 8.04118717e-06 -3.93962626e-07  0.00000000e+00  0.00000000e+00
  0.00000000e+00 -7.18761776e-07 -3.93962626e-07  6.41123009e-06
  0.00000000e+00  0.00000000e+00  0.00000000e+00 -3.55966308e-07
  0.00000000e+00  0.00000000e+00  0.00000000e+00  0.00000000e+00
  0.00000000e+00  0.00000000e+00  0.00000000e+00  0.00000000e+00
  0.00000000e+00  0.00000000e+00  0.00000000e+00  0.00000000e+00
  0.00000000e+00  0.00000000e+00  0.00000000e+00  0.00000000e+00
  0.00000000e+00  0.00000000e+00 -7.18761776e-07 -3.55966308e-07
  0.00000000e+00  0.00000000e+00  0.00000000e+00  3.67246091e-06]","[[-0.00010014  0.00614668]
 [-0.00012966 -0.00210164]]",[],0.0,0.0
1787559128.335919,1.720066200757154,0.887737745799362,2.2700088538122856,"[ 8.04118717e-06 -3.93962626e-07  0.00000000e+00  0.00000000e+00
  0.00000000e+00 -7.18761776e-07 -3.93962626e-07  6.41123009e-06
  0.00000000e+00  0.00000000e+00  0.00000000e+00 -3.55966308e-07
  0.00000000e+00  0.00000000e+00  0.00000000e+00  0.00000000e+00
  0.00000000e+00  0.00000000e+00  0.00000000e+00  0.00000000e+00
  0.00000000e+00  0.00000000e+00  0.00000000e+00  0.00000000e+00
  0.00000000e+00  0.00000000e+00  0.00000000e+00  0.00000000e+00
  0.00000000e+00  0.00000000e+00 -7.18761776e-07 -3.55966308e-07
  0.00000000e+00  0.00000000e+00  0.00000000e+00  3.67246091e-06]","[[-0.00010014  0.00614668]
 [-0.00012966 -0.00210164]]",[],0.0,0.0
1787559128.388621,1.720066200757154,0.887737745799362,2.2700088538122856,"[ 8.04118717e-06 -3.93962626e-07  0.00000000e+00  0.00000000e+00
  0.00000000e+00 -7.18761776e-07 -3.93962626e-07  6.41123009e-06
  0.00000000e+00  0.00000000e+00  0.00000000e+00 -3.55966308e-07
  0.00000000e+00  0.00000000e+00  0.00000000e+00  0.00000000e+00
  0.00000000e+00  0.00000000e+00  0.00000000e+00  0.00000000e+00
  0.00000000e+00  0.00000000e+00  0.00000000e+00  0.00000000e+00
  0.00000000e+00  0.00000000e+00  0.00000000e+00  0.00000000e+00
  0.00000000e+00  0.00000000e+00 -7.18761776e-07 -3.55966308e-07
  0.00000000e+00  0.00000000e+00  0.00000000e+00  3.67246091e-06]","[[-0.00010014  0.00614668]
 [-0.00012966 -0.00210164]]",[],0.0,0.0
1787559128.4363358,1.720066200757154,0.887737745799362,2.2700088538122856,"[ 8.04118717e-06 -3.93962626e-07  0.00000000e+00  0.00000000e+00
  0.00000000e+00 -7.18761776e-07 -3.93962626e-07  6.41123009e-06
  0.00000000e+00  0.00000000e+00  0.00000000e+00 -3.55966308e-07
  0.00000000e+00  0.00000000e+00  0.00000000e+00  0.00000000e+00
  0.00000000e+00  0.00000000e+00  0.00000000e+00  0.00000000e+00
  0.00000000e+00  0.00000000e+00  0.00000000e+00  0.00000000e+00
  0.00000000e+00  0.00000000e+00  0.00000000e+00  0.00000000e+00
  0.00000000e+00  0.00000000e+00 -7.18761776e-07 -3.55966308e-07
  0.00000000e+00  0.00000000e+00  0.00000000e+00  3.67246091e-06]","[[-0.00010014  0.00614668]
 [-0.00012966 -0.00210164]]",[],0.0,0.0
1787559128.4904835,1.720066200757154,0.887737745799362,2.2700088538122856,"[ 8.04118717e-06 -3.93962626e-07  0.00000000e+00  0.00000000e+00
  0.00000000e+00 -7.18761776e-07 -3.93962626e-07  6.41123009e-06
  0.00000000e+00  0.00000000e+00  0.00000000e+00 -3.55966308e-07
  0.00000000e+00  0.00000000e+00  0.00000000e+00  0.00000000e+00
  0.00000000e+00  0.00000000e+00  0.00000000e+00  0.00000000e+00
  0.00000000e+00  0.00000000e+00  0.00000000e+00  0.00000000e+00
  0.00000000e+00  0.00000000e+00  0.00000000e+00  0.00000000e+00
  0.00000000e+00  0.00000000e+00 -7.18761776e-07 -3.55966308e-07
  0.00000000e+00  0.00000000e+00  0.00000000e+00  3.67246091e-06]","[[-0.00010014  0.00614668]
 [-0.00012966 -0.00210164]]",[],0.0,0.0
1787559128.5402877,1.720066200757154,0.887737745799362,2.2700088538122856,"[ 8.04118717e-06 -3.93962626e-07  0.00000000e+00  0.00000000e+00
  0.00000000e+00 -7.18761776e-07 -3.93962626e-07  6.41123009e-06
  0.00000000e+00  0.00000000e+00  0.00000000e+00 -3.55966308e-07
  0.00000000e+00  0.00000000e+00  0.00000000e+00  0.00000000e+00
  0.00000000e+00  0.00000000e+00  0.00000000e+00  0.00000000e+00
  0.00000000e+00  0.00000000e+00  0.00000000e+00  0.00000000e+00
  0.00000000e+00  0.00000000e+00  0.00000000e+00  0.00000000e+00
  0.00000000e+00  0.00000000e+00 -7.18761776e-07 -3.55966308e-07
  0.00000000e+00  0.00000000e+00  0.00000000e+00  3.67246091e-06]","[[-0.00010014  0.00614668]
 [-0.00012966 -0.00210164]]",[],0.0,0.0
1787559128.5867336,1.720066200757154,0.887737745799362,2.2700088538122856,"[ 8.04118717e-06 -3.93962626e-07  0.00000000e+00  0.00000000e+00
  0.00000000e+00 -7.18761776e-07 -3.93962626e-07  6.41123009e-06
  0.00000000e+00  0.00000000e+00  0.00000000e+00 -3.55966308e-07
  0.00000000e+00  0.00000000e+00  0.00000000e+00  0.00000000e+00
  0.00000000e+00  0.00000000e+00  0.00000000e+00  0.00000000e+00
  0.00000000e+00  0.00000000e+00  0.00000000e+00  0.00000000e+00
  0.00000000e+00  0.00000000e+00  0.00000000e+00  0.00000000e+00
  0.00000000e+00  0.00000000e+00 -7.18761776e-07 -3.55966308e-07
  0.00000000e+00  0.00000000e+00  0.00000000e+00  3.67246091e-06]","[[-0.00010014  0.00614668]
 [-0.00012966 -0.00210164]]",[],0.0,0.0
1787559128.635915,1.720066200757154,0.887737745799362,2.2700088538122856,"[ 8.04118717e-06 -3.93962626e-07  0.00000000e+00  0.00000000e+00
  0.00000000e+00 -7.18761776e-07 -3.93962626e-07  6.41123009e-06
  0.00000000e+00  0.00000000e+00  0.00000000e+00 -3.55966308e-07
  0.00000000e+00  0.00000000e+00  0.00000000e+00  0.00000000e+00
  0.00000000e+00  0.00000000e+00  0.00000000e+00  0.00000000e+00
  0.00000000e+00  0.00000000e+00  0.00000000e+00  0.00000000e+00
  0.00000000e+00  0.00000000e+00  0.00000000e+00  0.00000000e+00
  0.00000000e+00  0.00000000e+00 -7.18761776e-07 -3.55966308e-07
  0.00000000e+00  0.00000000e+00  0.00000000e+00  3.67246091e-06]","[[-0.00010014  0.00614668]
 [-0.00012966 -0.00210164]]",[],0.0,0.0
1787559128.6887274,1.720066200757154,0.887737745799362,2.2700088538122856,"[ 8.04118717e-06 -3.93962626e-07  0.00000000e+00  0.00000000e+00
  0.00000000e+00 -7.18761776e-07 -3.93962626e-07  6.41123009e-06
  0.00000000e+00  0.00000000e+00  0.00000000e+00 -3.55966308e-07
  0.00000000e+00  0.00000000e+00  0.00000000e+00  0.00000000e+00
  0.00000000e+00  0.00000000e+00  0.00000000e+00  0.00000000e+00
  0.00000000e+00  0.00000000e+00  0.00000000e+00  0.00000000e+00
  0.00000000e+00  0.00000000e+00  0.00000000e+00  0.00000000e+00
  0.00000000e+00  0.00000000e+00 -7.18761776e-07 -3.55966308e-07
  0.00000000e+00  0.00000000e+00  0.00000000e+00  3.67246091e-06]","[[-0.00010014  0.00614668]
 [-0.00012966 -0.00210164]]",[],0.0,0.0
1787559128.7420366,1.720066200757154,0.887737745799362,2.2700088538122856,"[ 8.04118717e-06 -3.93962626e-07  0.00000000e+00  0.00000000e+00
  0.00000000e+00 -7.18761776e-07 -3.93962626e-07  6.41123009e-06
  0.00000000e+00  0.00000000e+00  0.00000000e+00 -3.55966308e-07
  0.00000000e+00  0.00000000e+00  0.00000000e+00  0.00000000e+00
  0.00000000e+00  0.00000000e+00  0.00000000e+00  0.00000000e+00
  0.00000000e+00  0.00000000e+00  0.00000000e+00  0.00000000e+00
  0.00000000e+00  0.00000000e+00  0.00000000e+00  0.00000000e+00
  0.00000000e+00  0.00000000e+00 -7.18761776e-07 -3.55966308e-07
  0.00000000e+00  0.00000000e+00  0.00000000e+00  3.67246091e-06]","[[-0.00010014  0.00614668]
 [-0.00012966 -0.00210164]]",[],0.0,0.0
1787559128.7871797,1.720066200757154,0.887737745799362,2.2700088538122856,"[ 8.04118717e-06 -3.93962626e-07  0.00000000e+00  0.00000000e+00
  0.00000000e+00 -7.18761776e-07 -3.93962626e-07  6.41123009e-06
  0.00000000e+00  0.00000000e+00  0.00000000e+00 -3.55966308e-07
  0.00000000e+00  0.00000000e+00  0.00000000e+00  0.00000000e+00
  0.00000000e+00  0.00000000e+00  0.00000000e+00  0.00000000e+00
  0.00000000e+00  0.00000000e+00  0.00000000e+00  0.00000000e+00
  0.00000000e+00  0.00000000e+00  0.00000000e+00  0.00000000e+00
  0.00000000e+00  0.00000000e+00 -7.18761776e-07 -3.55966308e-07
  0.00000000e+00  0.00000000e+00  0.00000000e+00  3.67246091e-06]","[[-0.00010014  0.00614668]
 [-0.00012966 -0.00210164]]",[],0.0,0.0
1787559128.8444295,1.720066200757154,0.887737745799362,2.2700088538122856,"[ 8.04118717e-06 -3.93962626e-07  0.00000000e+00  0.00000000e+00
  0.00000000e+00 -7.18761776e-07 -3.93962626e-07  6.41123009e-06
  0.00000000e+00  0.00000000e+00  0.00000000e+00 -3.55966308e-07
  0.00000000e+00  0.00000000e+00  0.00000000e+00  0.00000000e+00
  0.00000000e+00  0.00000000e+00  0.00000000e+00  0.00000000e+00
  0.00000000e+00  0.00000000e+00  0.00000000e+00  0.00000000e+00
  0.00000000e+00  0.00000000e+00  0.00000000e+00  0.00000000e+00
  0.00000000e+00  0.00000000e+00 -7.18761776e-07 -3.55966308e-07
  0.00000000e+00  0.00000000e+00  0.00000000e+00  3.67246091e-06]","[[-0.00010014  0.00614668]
 [-0.00012966 -0.00210164]]",[],0.0,0.0
1787559128.8896081,1.720066200757154,0.887737745799362,2.2700088538122856,"[ 8.04118717e-06 -3.93962626e-07  0.00000000e+00  0.00000000e+00
  0.00000000e+00 -7.18761776e-07 -3.93962626e-07  6.41123009e-06
  0.00000000e+00  0.00000000e+00  0.00000000e+00 -3.55966308e-07
  0.00000000e+00  0.00000000e+00  0.00000000e+00  0.00000000e+00
  0.00000000e+00  0.00000000e+00  0.00000000e+00  0.00000000e+00
  0.00000000e+00  0.00000000e+00  0.00000000e+00  0.00000000e+00
  0.00000000e+00  0.00000000e+00  0.00000000e+00  0.00000000e+00
  0.00000000e+00  0.00000000e+00 -7.18761776e-07 -3.55966308e-07
  0.00000000e+00  0.00000000e+00  0.00000000e+00  3.67246091e-06]","[[-0.00010014  0.00614668]
 [-0.00012966 -0.00210164]]",[],0.0,0.0
1787559128.936511,1.720066200757154,0.887737745799362,2.2700088538122856,"[ 8.04118717e-06 -3.93962626e-07  0.00000000e+00  0.00000000e+00
  0.00000000e+00 -7.18761776e-07 -3.93962626e-07  6.41123009e-06
  0.00000000e+00  0.00000000e+00  0.00000000e+00 -3.55966308e-07
  0.00000000e+00  0.00000000e+00  0.00000000e+00  0.00000000e+00
  0.00000000e+00  0.00000000e+00  0.00000000e+00  0.00000000e+00
  0.00000000e+00  0.00000000e+00  0.00000000e+00  0.00000000e+00
  0.00000000e+00  0.00000000e+00  0.00000000e+00  0.00000000e+00
  0.00000000e+00  0.00000000e+00 -7.18761776e-07 -3.55966308e-07
  0.00000000e+00  0.00000000e+00  0.00000000e+00  3.67246091e-06]","[[-0.00010014  0.00614668]
 [-0.00012966 -0.00210164]]",[],0.0,0.0
1787559128.988292,1.720066200757154,0.887737745799362,2.2700088538122856,"[ 8.04118717e-06 -3.93962626e-07  0.00000000e+00  0.00000000e+00
  0.00000000e+00 -7.18761776e-07 -3.93962626e-07  6.41123009e-06
  0.00000000e+00  0.00000000e+00  0.00000000e+00 -3.55966308e-07
  0.00000000e+00  0.00000000e+00  0.00000000e+00  0.00000000e+00
  0.00000000e+00  0.00000000e+00  0.00000000e+00  0.00000000e+00
  0.00000000e+00  0.00000000e+00  0.00000000e+00  0.00000000e+00
  0.00000000e+00  0.00000000e+00  0.00000000e+00  0.00000000e+00
  0.00000000e+00  0.00000000e+00 -7.18761776e-07 -3.55966308e-07
  0.00000000e+00  0.00000000e+00  0.00000000e+00  3.67246091e-06]","[[-0.00010014  0.00614668]
 [-0.00012966 -0.00210164]]",[],0.0,0.0
1787559129.0356257,1.720066200757154,0.887737745799362,2.2700088538122856,"[ 8.04118717e-06 -3.93962626e-07  0.00000000e+00  0.00000000e+00
  0.00000000e+00 -7.18761776e-07 -3.93962626e-07  6.41123009e-06
  0.00000000e+00  0.00000000e+00  0.00000000e+00 -3.55966308e-07
  0.00000000e+00  0.00000000e+00  0.00000000e+00  0.00000000e+00
  0.00000000e+00  0.00000000e+00  0.00000000e+00  0.00000000e+00
  0.00000000e+00  0.00000000e+00  0.00000000e+00  0.00000000e+00
  0.00000000e+00  0.00000000e+00  0.00000000e+00  0.00000000e+00
  0.00000000e+00  0.00000000e+00 -7.18761776e-07 -3.55966308e-07
  0.00000000e+00  0.00000000e+00  0.00000000e+00  3.67246091e-06]","[[-0.00010014  0.00614668]
 [-0.00012966 -0.00210164]]",[],0.0,0.0
1787559129.0854218,1.725661101268081,0.8828748591026461,2.3328172548771473,"[ 7.12661507e-06 -4.22395678e-07  0.00000000e+00  0.00000000e+00
  0.00000000e+00 -6.04982291e-07 -4.22395678e-07  5.72623904e-06
  0.00000000e+00  0.00000000e+00  0.00000000e+00 -2.55486835e-07
  0.00000000e+00  0.00000000e+00  0.00000000e+00  0.00000000e+00
  0.00000000e+00  0.00000000e+00  0.00000000e+00  0.00000000e+00
  0.00000000e+00  0.00000000e+00  0.00000000e+00  0.00000000e+00
  0.00000000e+00  0.00000000e+00  0.00000000e+00  0.00000000e+00
  0.00000000e+00  0.00000000e+00 -6.04982291e-07 -2.55486835e-07
  0.00000000e+00  0.00000000e+00  0.00000000e+00  3.43260242e-06]","[[ 1.50794221e-04  2.92968072e-03]
 [-9.21741437e-05  2.64592220e-03]]",[],0.0,0.0
1787559129.1356218,1.725661101268081,0.8828748591026461,2.3328172548771473,"[ 7.12661507e-06 -4.22395678e-07  0.00000000e+00  0.00000000e+00
  0.00000000e+00 -6.04982291e-07 -4.22395678e-07  5.72623904e-06
  0.00000000e+00  0.00000000e+00  0.00000000e+00 -2.55486835e-07
  0.00000000e+00  0.00000000e+00  0.00000000e+00  0.00000000e+00
  0.00000000e+00  0.00000000e+00  0.00000000e+00  0.00000000e+00
  0.00000000e+00  0.00000000e+00  0.00000000e+00  0.00000000e+00
  0.00000000e+00  0.00000000e+00  0.00000000e+00  0.00000000e+00
  0.00000000e+00  0.00000000e+00 -6.04982291e-07 -2.55486835e-07
  0.00000000e+00  0.00000000e+00  0.00000000e+00  3.43260242e-06]","[[ 1.50794221e-04  2.92968072e-03]
 [-9.21741437e-05  2.64592220e-03]]",[],0.0,0.0
1787559129.1854353,1.725661101268081,0.8828748591026461,2.3328172548771473,"[ 7.12661507e-06 -4.22395678e-07  0.00000000e+00  0.00000000e+00
  0.00000000e+00 -6.04982291e-07 -4.22395678e-07  5.72623904e-06
  0.00000000e+00  0.00000000e+00  0.00000000e+00 -2.55486835e-07
  0.00000000e+00  0.00000000e+00  0.00000000e+00  0.00000000e+00
  0.00000000e+00  0.00000000e+00  0.00000000e+00  0.00000000e+00
  0.00000000e+00  0.00000000e+00  0.00000000e+00  0.00000000e+00
  0.00000000e+00  0.00000000e+00  0.00000000e+00  0.00000000e+00
  0.00000000e+00  0.00000000e+00 -6.04982291e-07 -2.55486835e-07
  0.00000000e+00  0.00000000e+00  0.00000000e+00  3.43260242e-06]","[[ 1.50794221e-04  2.92968072e-03]
 [-9.21741437e-05  2.64592220e-03]]",[],0.0,0.0
1787559129.2374775,1.725661101268081,0.8828748591026461,2.3328172548771473,"[ 7.12661507e-06 -4.22395678e-07  0.00000000e+00  0.00000000e+00
  0.00000000e+00 -6.04982291e-07 -4.22395678e-07  5.72623904e-06
  0.00000000e+00  0.00000000e+00  0.00000000e+00 -2.55486835e-07
  0.00000000e+00  0.00000000e+00  0.00000000e+00  0.00000000e+00
  0.00000000e+00  0.00000000e+00  0.00000000e+00  0.00000000e+00
  0.00000000e+00  0.00000000e+00  0.00000000e+00  0.00000000e+00
  0.00000000e+00  0.00000000e+00  0.00000000e+00  0.00000000e+00
  0.00000000e+00  0.00000000e+00 -6.04982291e-07 -2.55486835e-07
  0.00000000e+00  0.00000000e+00  0.00000000e+00  3.43260242e-06]","[[ 1.50794221e-04  2.92968072e-03]
 [-9.21741437e-05  2.64592220e-03]]",[],0.0,0.0
1787559129.2882059,1.725661101268081,0.8828748591026461,2.3328172548771473,"[ 7.12661507e-06 -4.22395678e-07  0.00000000e+00  0.00000000e+00
  0.00000000e+00 -6.04982291e-07 -4.22395678e-07  5.72623904e-06
  0.00000000e+00  0.00000000e+00  0.00000000e+00 -2.55486835e-07
  0.00000000e+00  0.00000000e+00  0.00000000e+00  0.00000000e+00
  0.00000000e+00  0.00000000e+00  0.00000000e+00  0.00000000e+00
  0.00000000e+00  0.00000000e+00  0.00000000e+00  0.00000000e+00
  0.00000000e+00  0.00000000e+00  0.00000000e+00  0.00000000e+00
  0.00000000e+00  0.00000000e+00 -6.04982291e-07 -2.55486835e-07
  0.00000000e+00  0.00000000e+00  0.00000000e+00  3.43260242e-06]","[[ 1.50794221e-04  2.92968072e-03]
 [-9.21741437e-05  2.64592220e-03]]",[],0.0,0.0
1787559129.342543,1.725661101268081,0.8828748591026461,2.3328172548771473,"[ 7.12661507e-06 -4.22395678e-07  0.00000000e+00  0.00000000e+00
  0.00000000e+00 -6.04982291e-07 -4.22395678e-07  5.72623904e-06
  0.00000000e+00  0.00000000e+00  0.00000000e+00 -2.55486835e-07
  0.00000000e+00  0.00000000e+00  0.00000000e+00  0.00000000e+00
  0.00000000e+00  0.00000000e+00  0.00000000e+00  0.00000000e+00
  0.00000000e+00  0.00000000e+00  0.00000000e+00  0.00000000e+00
  0.00000000e+00  0.00000000e+00  0.00000000e+00  0.00000000e+00
  0.00000000e+00  0.00000000e+00 -6.04982291e-07 -2.55486835e-07
  0.00000000e+00  0.00000000e+00  0.00000000e+00  3.43260242e-06]","[[ 1.50794221e-04  2.92968072e-03]
 [-9.21741437e-05  2.64592220e-03]]",[],0.0,0.0
1787559129.3857992,1.725661101268081,0.8828748591026461,2.3328172548771473,"[ 7.12661507e-06 -4.22395678e-07  0.00000000e+00  0.00000000e+00
  0.00000000e+00 -6.04982291e-07 -4.22395678e-07  5.72623904e-06
  0.00000000e+00  0.00000000e+00  0.00000000e+00 -2.55486835e-07
  0.00000000e+00  0.00000000e+00  0.00000000e+00  0.00000000e+00
  0.00000000e+00  0.00000000e+00  0.00000000e+00  0.00000000e+00
  0.00000000e+00  0.00000000e+00  0.00000000e+00  0.00000000e+00
  0.00000000e+00  0.00000000e+00  0.00000000e+00  0.00000000e+00
  0.00000000e+00  0.00000000e+00 -6.04982291e-07 -2.55486835e-07
  0.00000000e+00  0.00000000e+00  0.00000000e+00  3.43260242e-06]","[[ 1.50794221e-04  2.92968072e-03]
 [-9.21741437e-05  2.64592220e-03]]",[],0.0,0.0
1787559129.437803,1.725661101268081,0.8828748591026461,2.3328172548771473,"[ 7.12661507e-06 -4.22395678e-07  0.00000000e+00  0.00000000e+00
  0.00000000e+00 -6.04982291e-07 -4.22395678e-07  5.72623904e-06
  0.00000000e+00  0.00000000e+00  0.00000000e+00 -2.55486835e-07
  0.00000000e+00  0.00000000e+00  0.00000000e+00  0.00000000e+00
  0.00000000e+00  0.00000000e+00  0.00000000e+00  0.00000000e+00
  0.00000000e+00  0.00000000e+00  0.00000000e+00  0.00000000e+00
  0.00000000e+00  0.00000000e+00  0.00000000e+00  0.00000000e+00
  0.00000000e+00  0.00000000e+00 -6.04982291e-07 -2.55486835e-07
  0.00000000e+00  0.00000000e+00  0.00000000e+00  3.43260242e-06]","[[ 1.50794221e-04  2.92968072e-03]
 [-9.21741437e-05  2.64592220e-03]]",[],0.0,0.0
1787559129.4916048,1.725661101268081,0.8828748591026461,2.3328172548771473,"[ 7.12661507e-06 -4.22395678e-07  0.00000000e+00  0.00000000e+00
  0.00000000e+00 -6.04982291e-07 -4.22395678e-07  5.72623904e-06
  0.00000000e+00  0.00000000e+00  0.00000000e+00 -2.55486835e-07
  0.00000000e+00  0.00000000e+00  0.00000000e+00  0.00000000e+00
  0.00000000e+00  0.00000000e+00  0.00000000e+00  0.00000000e+00
  0.00000000e+00  0.00000000e+00  0.00000000e+00  0.00000000e+00
  0.00000000e+00  0.00000000e+00  0.00000000e+00  0.00000000e+00
  0.00000000e+00  0.00000000e+00 -6.04982291e-07 -2.55486835e-07
  0.00000000e+00  0.00000000e+00  0.00000000e+00  3.43260242e-06]","[[ 1.50794221e-04  2.92968072e-03]
 [-9.21741437e-05  2.64592220e-03]]",[],0.0,0.0
1787559129.5357134,1.725661101268081,0.8828748591026461,2.3328172548771473,"[ 7.12661507e-06 -4.22395678e-07  0.00000000e+00  0.00000000e+00
  0.00000000e+00 -6.04982291e-07 -4.22395678e-07  5.72623904e-06
  0.00000000e+00  0.00000000e+00  0.00000000e+00 -2.55486835e-07
  0.00000000e+00  0.00000000e+00  0.00000000e+00  0.00000000e+00
  0.00000000e+00  0.00000000e+00  0.00000000e+00  0.00000000e+00
  0.00000000e+00  0.00000000e+00  0.00000000e+00  0.00000000e+00
  0.00000000e+00  0.00000000e+00  0.00000000e+00  0.00000000e+00
  0.00000000e+00  0.00000000e+00 -6.04982291e-07 -2.55486835e-07
  0.00000000e+00  0.00000000e+00  0.00000000e+00  3.43260242e-06]","[[ 1.50794221e-04  2.92968072e-03]
 [-9.21741437e-05  2.64592220e-03]]",[],0.0,0.0
1787559129.5882587,1.725661101268081,0.8828748591026461,2.3328172548771473,"[ 7.12661507e-06 -4.22395678e-07  0.00000000e+00  0.00000000e+00
  0.00000000e+00 -6.04982291e-07 -4.22395678e-07  5.72623904e-06
  0.00000000e+00  0.00000000e+00  0.00000000e+00 -2.55486835e-07
  0.00000000e+00  0.00000000e+00  0.00000000e+00  0.00000000e+00
  0.00000000e+00  0.00000000e+00  0.00000000e+00  0.00000000e+00
  0.00000000e+00  0.00000000e+00  0.00000000e+00  0.00000000e+00
  0.00000000e+00  0.00000000e+00  0.00000000e+00  0.00000000e+00
  0.00000000e+00  0.00000000e+00 -6.04982291e-07 -2.55486835e-07
  0.00000000e+00  0.00000000e+00  0.00000000e+00  3.43260242e-06]","[[ 1.50794221e-04  2.92968072e-03]
 [-9.21741437e-05  2.64592220e-03]]",[],0.0,0.0
1787559129.6708348,1.725661101268081,0.8828748591026461,2.3328172548771473,"[ 7.12661507e-06 -4.22395678e-07  0.00000000e+00  0.00000000e+00
  0.00000000e+00 -6.04982291e-07 -4.22395678e-07  5.72623904e-06
  0.00000000e+00  0.00000000e+00  0.00000000e+00 -2.55486835e-07
  0.00000000e+00  0.00000000e+00  0.00000000e+00  0.00000000e+00
  0.00000000e+00  0.00000000e+00  0.00000000e+00  0.00000000e+00
  0.00000000e+00  0.00000000e+00  0.00000000e+00  0.00000000e+00
  0.00000000e+00  0.00000000e+00  0.00000000e+00  0.00000000e+00
  0.00000000e+00  0.00000000e+00 -6.04982291e-07 -2.55486835e-07
  0.00000000e+00  0.00000000e+00  0.00000000e+00  3.43260242e-06]","[[ 1.50794221e-04  2.92968072e-03]
 [-9.21741437e-05  2.64592220e-03]]",[],0.0,0.0
1787559129.6859117,1.725661101268081,0.8828748591026461,2.3328172548771473,"[ 7.12661507e-06 -4.22395678e-07  0.00000000e+00  0.00000000e+00
  0.00000000e+00 -6.04982291e-07 -4.22395678e-07  5.72623904e-06
  0.00000000e+00  0.00000000e+00  0.00000000e+00 -2.55486835e-07
  0.00000000e+00  0.00000000e+00  0.00000000e+00  0.00000000e+00
  0.00000000e+00  0.00000000e+00  0.00000000e+00  0.00000000e+00
  0.00000000e+00  0.00000000e+00  0.00000000e+00  0.00000000e+00
  0.00000000e+00  0.00000000e+00  0.00000000e+00  0.00000000e+00
  0.00000000e+00  0.00000000e+00 -6.04982291e-07 -2.55486835e-07
  0.00000000e+00  0.00000000e+00  0.00000000e+00  3.43260242e-06]","[[ 1.50794221e-04  2.92968072e-03]
 [-9.21741437e-05  2.64592220e-03]]",[],0.0,0.0
1787559129.7383482,1.725661101268081,0.8828748591026461,2.3328172548771473,"[ 7.12661507e-06 -4.22395678e-07  0.00000000e+00  0.00000000e+00
  0.00000000e+00 -6.04982291e-07 -4.22395678e-07  5.72623904e-06
  0.00000000e+00  0.00000000e+00  0.00000000e+00 -2.55486835e-07
  0.00000000e+00  0.00000000e+00  0.00000000e+00  0.00000000e+00
  0.00000000e+00  0.00000000e+00  0.00000000e+00  0.00000000e+00
  0.00000000e+00  0.00000000e+00  0.00000000e+00  0.00000000e+00
  0.00000000e+00  0.00000000e+00  0.00000000e+00  0.00000000e+00
  0.00000000e+00  0.00000000e+00 -6.04982291e-07 -2.55486835e-07
  0.00000000e+00  0.00000000e+00  0.00000000e+00  3.43260242e-06]","[[ 1.50794221e-04  2.92968072e-03]
 [-9.21741437e-05  2.64592220e-03]]",[],0.0,0.0
1787559129.7938104,1.725661101268081,0.8828748591026461,2.3328172548771473,"[ 7.12661507e-06 -4.22395678e-07  0.00000000e+00  0.00000000e+00
  0.00000000e+00 -6.04982291e-07 -4.22395678e-07  5.72623904e-06
  0.00000000e+00  0.00000000e+00  0.00000000e+00 -2.55486835e-07
  0.00000000e+00  0.00000000e+00  0.00000000e+00  0.00000000e+00
  0.00000000e+00  0.00000000e+00  0.00000000e+00  0.00000000e+00
  0.00000000e+00  0.00000000e+00  0.00000000e+00  0.00000000e+00
  0.00000000e+00  0.00000000e+00  0.00000000e+00  0.00000000e+00
  0.00000000e+00  0.00000000e+00 -6.04982291e-07 -2.55486835e-07
  0.00000000e+00  0.00000000e+00  0.00000000e+00  3.43260242e-06]","[[ 1.50794221e-04  2.92968072e-03]
 [-9.21741437e-05  2.64592220e-03]]",[],0.0,0.0
1787559129.838485,1.725661101268081,0.8828748591026461,2.3328172548771473,"[ 7.12661507e-06 -4.22395678e-07  0.00000000e+00  0.00000000e+00
  0.00000000e+00 -6.04982291e-07 -4.22395678e-07  5.72623904e-06
  0.00000000e+00  0.00000000e+00  0.00000000e+00 -2.55486835e-07
  0.00000000e+00  0.00000000e+00  0.00000000e+00  0.00000000e+00
  0.00000000e+00  0.00000000e+00  0.00000000e+00  0.00000000e+00
  0.00000000e+00  0.00000000e+00  0.00000000e+00  0.00000000e+00
  0.00000000e+00  0.00000000e+00  0.00000000e+00  0.00000000e+00
  0.00000000e+00  0.00000000e+00 -6.04982291e-07 -2.55486835e-07
  0.00000000e+00  0.00000000e+00  0.00000000e+00  3.43260242e-06]","[[ 1.50794221e-04  2.92968072e-03]
 [-9.21741437e-05  2.64592220e-03]]",[],0.0,0.0
1787559129.8926494,1.725661101268081,0.8828748591026461,2.3328172548771473,"[ 7.12661507e-06 -4.22395678e-07  0.00000000e+00  0.00000000e+00
  0.00000000e+00 -6.04982291e-07 -4.22395678e-07  5.72623904e-06
  0.00000000e+00  0.00000000e+00  0.00000000e+00 -2.55486835e-07
  0.00000000e+00  0.00000000e+00  0.00000000e+00  0.00000000e+00
  0.00000000e+00  0.00000000e+00  0.00000000e+00  0.00000000e+00
  0.00000000e+00  0.00000000e+00  0.00000000e+00  0.00000000e+00
  0.00000000e+00  0.00000000e+00  0.00000000e+00  0.00000000e+00
  0.00000000e+00  0.00000000e+00 -6.04982291e-07 -2.55486835e-07
  0.00000000e+00  0.00000000e+00  0.00000000e+00  3.43260242e-06]","[[ 1.50794221e-04  2.92968072e-03]
 [-9.21741437e-05  2.64592220e-03]]",[],0.0,0.0
1787559129.9388533,1.725661101268081,0.8828748591026461,2.3328172548771473,"[ 7.12661507e-06 -4.22395678e-07  0.00000000e+00  0.00000000e+00
  0.00000000e+00 -6.04982291e-07 -4.22395678e-07  5.72623904e-06
  0.00000000e+00  0.00000000e+00  0.00000000e+00 -2.55486835e-07
  0.00000000e+00  0.00000000e+00  0.00000000e+00  0.00000000e+00
  0.00000000e+00  0.00000000e+00  0.00000000e+00  0.00000000e+00
  0.00000000e+00  0.00000000e+00  0.00000000e+00  0.00000000e+00
  0.00000000e+00  0.00000000e+00  0.00000000e+00  0.00000000e+00
  0.00000000e+00  0.00000000e+00 -6.04982291e-07 -2.55486835e-07
  0.00000000e+00  0.00000000e+00  0.00000000e+00  3.43260242e-06]","[[ 1.50794221e-04  2.92968072e-03]
 [-9.21741437e-05  2.64592220e-03]]",[],0.0,0.0
1787559129.9855182,1.725661101268081,0.8828748591026461,2.3328172548771473,"[ 7.12661507e-06 -4.22395678e-07  0.00000000e+00  0.00000000e+00
  0.00000000e+00 -6.04982291e-07 -4.22395678e-07  5.72623904e-06
  0.00000000e+00  0.00000000e+00  0.00000000e+00 -2.55486835e-07
  0.00000000e+00  0.00000000e+00  0.00000000e+00  0.00000000e+00
  0.00000000e+00  0.00000000e+00  0.00000000e+00  0.00000000e+00
  0.00000000e+00  0.00000000e+00  0.00000000e+00  0.00000000e+00
  0.00000000e+00  0.00000000e+00  0.00000000e+00  0.00000000e+00
  0.00000000e+00  0.00000000e+00 -6.04982291e-07 -2.55486835e-07
  0.00000000e+00  0.00000000e+00  0.00000000e+00  3.43260242e-06]","[[ 1.50794221e-04  2.92968072e-03]
 [-9.21741437e-05  2.64592220e-03]]",[],0.0,0.0
1787559130.0355718,1.7305420899101553,0.877620488826584,2.348951792250735,"[ 6.41776675e-06 -4.18659110e-07  0.00000000e+00  0.00000000e+00
  0.00000000e+00 -4.95684382e-07 -4.18659110e-07  5.21090845e-06
  0.00000000e+00  0.00000000e+00  0.00000000e+00 -2.26013185e-07
  0.00000000e+00  0.00000000e+00  0.00000000e+00  0.00000000e+00
  0.00000000e+00  0.00000000e+00  0.00000000e+00  0.00000000e+00
  0.00000000e+00  0.00000000e+00  0.00000000e+00  0.00000000e+00
  0.00000000e+00  0.00000000e+00  0.00000000e+00  0.00000000e+00
  0.00000000e+00  0.00000000e+00 -4.95684382e-07 -2.26013185e-07
  0.00000000e+00  0.00000000e+00  0.00000000e+00  3.49130866e-06]","[[ 1.36336661e-04  2.53803353e-03]
 [-8.45952266e-05  2.38209107e-03]]",[],0.0,0.0
1787559130.0895348,1.7305420899101553,0.877620488826584,2.348951792250735,"[ 6.41776675e-06 -4.18659110e-07  0.00000000e+00  0.00000000e+00
  0.00000000e+00 -4.95684382e-07 -4.18659110e-07  5.21090845e-06
  0.00000000e+00  0.00000000e+00  0.00000000e+00 -2.26013185e-07
  0.00000000e+00  0.00000000e+00  0.00000000e+00  0.00000000e+00
  0.00000000e+00  0.00000000e+00  0.00000000e+00  0.00000000e+00
  0.00000000e+00  0.00000000e+00  0.00000000e+00  0.00000000e+00
  0.00000000e+00  0.00000000e+00  0.00000000e+00  0.00000000e+00
  0.00000000e+00  0.00000000e+00 -4.95684382e-07 -2.26013185e-07
  0.00000000e+00  0.00000000e+00  0.00000000e+00  3.49130866e-06]","[[ 1.36336661e-04  2.53803353e-03]
 [-8.45952266e-05  2.38209107e-03]]",[],0.0,0.0
1787559130.1371827,1.7305420899101553,0.877620488826584,2.348951792250735,"[ 6.41776675e-06 -4.18659110e-07  0.00000000e+00  0.00000000e+00
  0.00000000e+00 -4.95684382e-07 -4.18659110e-07  5.21090845e-06
  0.00000000e+00  0.00000000e+00  0.00000000e+00 -2.26013185e-07
  0.00000000e+00  0.00000000e+00  0.00000000e+00  0.00000000e+00
  0.00000000e+00  0.00000000e+00  0.00000000e+00  0.00000000e+00
  0.00000000e+00  0.00000000e+00  0.00000000e+00  0.00000000e+00
  0.00000000e+00  0.00000000e+00  0.00000000e+00  0.00000000e+00
  0.00000000e+00  0.00000000e+00 -4.95684382e-07 -2.26013185e-07
  0.00000000e+00  0.00000000e+00  0.00000000e+00  3.49130866e-06]","[[ 1.36336661e-04  2.53803353e-03]
 [-8.45952266e-05  2.38209107e-03]]",[],0.0,0.0
1787559130.1852982,1.7305420899101553,0.877620488826584,2.348951792250735,"[ 6.41776675e-06 -4.18659110e-07  0.00000000e+00  0.00000000e+00
  0.00000000e+00 -4.95684382e-07 -4.18659110e-07  5.21090845e-06
  0.00000000e+00  0.00000000e+00  0.00000000e+00 -2.26013185e-07
  0.00000000e+00  0.00000000e+00  0.00000000e+00  0.00000000e+00
  0.00000000e+00  0.00000000e+00  0.00000000e+00  0.00000000e+00
  0.00000000e+00  0.00000000e+00  0.00000000e+00  0.00000000e+00
  0.00000000e+00  0.00000000e+00  0.00000000e+00  0.00000000e+00
  0.00000000e+00  0.00000000e+00 -4.95684382e-07 -2.26013185e-07
  0.00000000e+00  0.00000000e+00  0.00000000e+00  3.49130866e-06]","[[ 1.36336661e-04  2.53803353e-03]
 [-8.45952266e-05  2.38209107e-03]]",[],0.0,0.0
1787559130.237039,1.7305420899101553,0.877620488826584,2.348951792250735,"[ 6.41776675e-06 -4.18659110e-07  0.00000000e+00  0.00000000e+00
  0.00000000e+00 -4.95684382e-07 -4.18659110e-07  5.21090845e-06
  0.00000000e+00  0.00000000e+00  0.00000000e+00 -2.26013185e-07
  0.00000000e+00  0.00000000e+00  0.00000000e+00  0.00000000e+00
  0.00000000e+00  0.00000000e+00  0.00000000e+00  0.00000000e+00
  0.00000000e+00  0.00000000e+00  0.00000000e+00  0.00000000e+00
  0.00000000e+00  0.00000000e+00  0.00000000e+00  0.00000000e+00
  0.00000000e+00  0.00000000e+00 -4.95684382e-07 -2.26013185e-07
  0.00000000e+00  0.00000000e+00  0.00000000e+00  3.49130866e-06]","[[ 1.36336661e-04  2.53803353e-03]
 [-8.45952266e-05  2.38209107e-03]]",[],0.0,0.0
1787559130.2913651,1.7305420899101553,0.877620488826584,2.348951792250735,"[ 6.41776675e-06 -4.18659110e-07  0.00000000e+00  0.00000000e+00
  0.00000000e+00 -4.95684382e-07 -4.18659110e-07  5.21090845e-06
  0.00000000e+00  0.00000000e+00  0.00000000e+00 -2.26013185e-07
  0.00000000e+00  0.00000000e+00  0.00000000e+00  0.00000000e+00
  0.00000000e+00  0.00000000e+00  0.00000000e+00  0.00000000e+00
  0.00000000e+00  0.00000000e+00  0.00000000e+00  0.00000000e+00
  0.00000000e+00  0.00000000e+00  0.00000000e+00  0.00000000e+00
  0.00000000e+00  0.00000000e+00 -4.95684382e-07 -2.26013185e-07
  0.00000000e+00  0.00000000e+00  0.00000000e+00  3.49130866e-06]","[[ 1.36336661e-04  2.53803353e-03]
 [-8.45952266e-05  2.38209107e-03]]",[],0.0,0.0
1787559130.3514106,1.7305420899101553,0.877620488826584,2.348951792250735,"[ 6.41776675e-06 -4.18659110e-07  0.00000000e+00  0.00000000e+00
  0.00000000e+00 -4.95684382e-07 -4.18659110e-07  5.21090845e-06
  0.00000000e+00  0.00000000e+00  0.00000000e+00 -2.26013185e-07
  0.00000000e+00  0.00000000e+00  0.00000000e+00  0.00000000e+00
  0.00000000e+00  0.00000000e+00  0.00000000e+00  0.00000000e+00
  0.00000000e+00  0.00000000e+00  0.00000000e+00  0.00000000e+00
  0.00000000e+00  0.00000000e+00  0.00000000e+00  0.00000000e+00
  0.00000000e+00  0.00000000e+00 -4.95684382e-07 -2.26013185e-07
  0.00000000e+00  0.00000000e+00  0.00000000e+00  3.49130866e-06]","[[ 1.36336661e-04  2.53803353e-03]
 [-8.45952266e-05  2.38209107e-03]]",[],0.0,0.0
1787559130.3881605,1.7305420899101553,0.877620488826584,2.348951792250735,"[ 6.41776675e-06 -4.18659110e-07  0.00000000e+00  0.00000000e+00
  0.00000000e+00 -4.95684382e-07 -4.18659110e-07  5.21090845e-06
  0.00000000e+00  0.00000000e+00  0.00000000e+00 -2.26013185e-07
  0.00000000e+00  0.00000000e+00  0.00000000e+00  0.00000000e+00
  0.00000000e+00  0.00000000e+00  0.00000000e+00  0.00000000e+00
  0.00000000e+00  0.00000000e+00  0.00000000e+00  0.00000000e+00
  0.00000000e+00  0.00000000e+00  0.00000000e+00  0.00000000e+00
  0.00000000e+00  0.00000000e+00 -4.95684382e-07 -2.26013185e-07
  0.00000000e+00  0.00000000e+00  0.00000000e+00  3.49130866e-06]","[[ 1.36336661e-04  2.53803353e-03]
 [-8.45952266e-05  2.38209107e-03]]",[],0.0,0.0
1787559130.4376214,1.7305420899101553,0.877620488826584,2.348951792250735,"[ 6.41776675e-06 -4.18659110e-07  0.00000000e+00  0.00000000e+00
  0.00000000e+00 -4.95684382e-07 -4.18659110e-07  5.21090845e-06
  0.00000000e+00  0.00000000e+00  0.00000000e+00 -2.26013185e-07
  0.00000000e+00  0.00000000e+00  0.00000000e+00  0.00000000e+00
  0.00000000e+00  0.00000000e+00  0.00000000e+00  0.00000000e+00
  0.00000000e+00  0.00000000e+00  0.00000000e+00  0.00000000e+00
  0.00000000e+00  0.00000000e+00  0.00000000e+00  0.00000000e+00
  0.00000000e+00  0.00000000e+00 -4.95684382e-07 -2.26013185e-07
  0.00000000e+00  0.00000000e+00  0.00000000e+00  3.49130866e-06]","[[ 1.36336661e-04  2.53803353e-03]
 [-8.45952266e-05  2.38209107e-03]]",[],0.0,0.0
1787559130.502358,1.7305420899101553,0.877620488826584,2.348951792250735,"[ 6.41776675e-06 -4.18659110e-07  0.00000000e+00  0.00000000e+00
  0.00000000e+00 -4.95684382e-07 -4.18659110e-07  5.21090845e-06
  0.00000000e+00  0.00000000e+00  0.00000000e+00 -2.26013185e-07
