time,x,y,yaw,cov_prop,K_gain,innovation,v_ekf,omega_ekf
1787305856.7685652,0.38216494711798293,-0.9943118751603209,0.2199634163377531,"[ 2.63206245e-05 -3.49752322e-06  0.00000000e+00  0.00000000e+00
  0.00000000e+00 -2.92212649e-06 -3.49752322e-06  2.00078495e-05
  0.00000000e+00  0.00000000e+00  0.00000000e+00  4.32444784e-06
  0.00000000e+00  0.00000000e+00  0.00000000e+00  0.00000000e+00
  0.00000000e+00  0.00000000e+00  0.00000000e+00  0.00000000e+00
  0.00000000e+00  0.00000000e+00  0.00000000e+00  0.00000000e+00
  0.00000000e+00  0.00000000e+00  0.00000000e+00  0.00000000e+00
  0.00000000e+00  0.00000000e+00 -2.92212649e-06  4.32444784e-06
  0.00000000e+00  0.00000000e+00  0.00000000e+00  4.73624191e-06]","[[-0.00066022  0.00591044]
 [ 0.00010154 -0.01494182]]",[],0.0,0.0
1787305856.8672647,0.3586175877985253,-0.9988102295443271,0.20860223050278753,"[ 1.36686093e-05 -9.57032203e-07  0.00000000e+00  0.00000000e+00
  0.00000000e+00 -1.31279585e-06 -9.57032203e-07  9.44192465e-06
  0.00000000e+00  0.00000000e+00  0.00000000e+00  1.70013627e-06
  0.00000000e+00  0.00000000e+00  0.00000000e+00  0.00000000e+00
  0.00000000e+00  0.00000000e+00  0.00000000e+00  0.00000000e+00
  0.00000000e+00  0.00000000e+00  0.00000000e+00  0.00000000e+00
  0.00000000e+00  0.00000000e+00  0.00000000e+00  0.00000000e+00
  0.00000000e+00  0.00000000e+00 -1.31279585e-06  1.70013627e-06
  0.00000000e+00  0.00000000e+00  0.00000000e+00  3.14331191e-06]","[[-3.34660053e-04  3.34468385e-03]
 [-1.04716554e-05 -6.61626450e-03]]",[],0.0,0.0
1787305857.287946,0.3586175877985253,-0.9988102295443271,0.20860223050278753,"[ 1.36686093e-05 -9.57032203e-07  0.00000000e+00  0.00000000e+00
  0.00000000e+00 -1.31279585e-06 -9.57032203e-07  9.44192465e-06
  0.00000000e+00  0.00000000e+00  0.00000000e+00  1.70013627e-06
  0.00000000e+00  0.00000000e+00  0.00000000e+00  0.00000000e+00
  0.00000000e+00  0.00000000e+00  0.00000000e+00  0.00000000e+00
  0.00000000e+00  0.00000000e+00  0.00000000e+00  0.00000000e+00
  0.00000000e+00  0.00000000e+00  0.00000000e+00  0.00000000e+00
  0.00000000e+00  0.00000000e+00 -1.31279585e-06  1.70013627e-06
  0.00000000e+00  0.00000000e+00  0.00000000e+00  3.14331191e-06]","[[-3.34660053e-04  3.34468385e-03]
 [-1.04716554e-05 -6.61626450e-03]]",[],0.0,0.0
1787305857.3203256,0.3586175877985253,-0.9988102295443271,0.20860223050278753,"[ 1.36686093e-05 -9.57032203e-07  0.00000000e+00  0.00000000e+00
  0.00000000e+00 -1.31279585e-06 -9.57032203e-07  9.44192465e-06
  0.00000000e+00  0.00000000e+00  0.00000000e+00  1.70013627e-06
  0.00000000e+00  0.00000000e+00  0.00000000e+00  0.00000000e+00
  0.00000000e+00  0.00000000e+00  0.00000000e+00  0.00000000e+00
  0.00000000e+00  0.00000000e+00  0.00000000e+00  0.00000000e+00
  0.00000000e+00  0.00000000e+00  0.00000000e+00  0.00000000e+00
  0.00000000e+00  0.00000000e+00 -1.31279585e-06  1.70013627e-06
  0.00000000e+00  0.00000000e+00  0.00000000e+00  3.14331191e-06]","[[-3.34660053e-04  3.34468385e-03]
 [-1.04716554e-05 -6.61626450e-03]]",[],0.0,0.0
1787305857.3866365,0.3586175877985253,-0.9988102295443271,0.20860223050278753,"[ 1.36686093e-05 -9.57032203e-07  0.00000000e+00  0.00000000e+00
  0.00000000e+00 -1.31279585e-06 -9.57032203e-07  9.44192465e-06
  0.00000000e+00  0.00000000e+00  0.00000000e+00  1.70013627e-06
  0.00000000e+00  0.00000000e+00  0.00000000e+00  0.00000000e+00
  0.00000000e+00  0.00000000e+00  0.00000000e+00  0.00000000e+00
  0.00000000e+00  0.00000000e+00  0.00000000e+00  0.00000000e+00
  0.00000000e+00  0.00000000e+00  0.00000000e+00  0.00000000e+00
  0.00000000e+00  0.00000000e+00 -1.31279585e-06  1.70013627e-06
  0.00000000e+00  0.00000000e+00  0.00000000e+00  3.14331191e-06]","[[-3.34660053e-04  3.34468385e-03]
 [-1.04716554e-05 -6.61626450e-03]]",[],0.0,0.0
1787305857.432943,0.3586175877985253,-0.9988102295443271,0.20860223050278753,"[ 1.36686093e-05 -9.57032203e-07  0.00000000e+00  0.00000000e+00
  0.00000000e+00 -1.31279585e-06 -9.57032203e-07  9.44192465e-06
  0.00000000e+00  0.00000000e+00  0.00000000e+00  1.70013627e-06
  0.00000000e+00  0.00000000e+00  0.00000000e+00  0.00000000e+00
  0.00000000e+00  0.00000000e+00  0.00000000e+00  0.00000000e+00
  0.00000000e+00  0.00000000e+00  0.00000000e+00  0.00000000e+00
  0.00000000e+00  0.00000000e+00  0.00000000e+00  0.00000000e+00
  0.00000000e+00  0.00000000e+00 -1.31279585e-06  1.70013627e-06
  0.00000000e+00  0.00000000e+00  0.00000000e+00  3.14331191e-06]","[[-3.34660053e-04  3.34468385e-03]
 [-1.04716554e-05 -6.61626450e-03]]",[],0.0,0.0
1787305857.4744606,0.32450286122653693,-1.0014277240247362,0.18823524329196895,"[ 9.27294917e-06 -4.39130581e-07  0.00000000e+00  0.00000000e+00
  0.00000000e+00 -8.91189852e-07 -4.39130581e-07  6.27311551e-06
  0.00000000e+00  0.00000000e+00  0.00000000e+00  1.03946307e-06
  0.00000000e+00  0.00000000e+00  0.00000000e+00  0.00000000e+00
  0.00000000e+00  0.00000000e+00  0.00000000e+00  0.00000000e+00
  0.00000000e+00  0.00000000e+00  0.00000000e+00  0.00000000e+00
  0.00000000e+00  0.00000000e+00  0.00000000e+00  0.00000000e+00
  0.00000000e+00  0.00000000e+00 -8.91189852e-07  1.03946307e-06
  0.00000000e+00  0.00000000e+00  0.00000000e+00  2.98814311e-06]","[[-2.24812920e-04  2.37844704e-03]
 [-2.09658874e-05 -4.16420433e-03]]",[],0.0,0.0
1787305857.5172546,0.32450286122653693,-1.0014277240247362,0.18823524329196895,"[ 9.27294917e-06 -4.39130581e-07  0.00000000e+00  0.00000000e+00
  0.00000000e+00 -8.91189852e-07 -4.39130581e-07  6.27311551e-06
  0.00000000e+00  0.00000000e+00  0.00000000e+00  1.03946307e-06
  0.00000000e+00  0.00000000e+00  0.00000000e+00  0.00000000e+00
  0.00000000e+00  0.00000000e+00  0.00000000e+00  0.00000000e+00
  0.00000000e+00  0.00000000e+00  0.00000000e+00  0.00000000e+00
  0.00000000e+00  0.00000000e+00  0.00000000e+00  0.00000000e+00
  0.00000000e+00  0.00000000e+00 -8.91189852e-07  1.03946307e-06
  0.00000000e+00  0.00000000e+00  0.00000000e+00  2.98814311e-06]","[[-2.24812920e-04  2.37844704e-03]
 [-2.09658874e-05 -4.16420433e-03]]",[],0.0,0.0
1787305857.569394,0.32450286122653693,-1.0014277240247362,0.18823524329196895,"[ 9.27294917e-06 -4.39130581e-07  0.00000000e+00  0.00000000e+00
  0.00000000e+00 -8.91189852e-07 -4.39130581e-07  6.27311551e-06
  0.00000000e+00  0.00000000e+00  0.00000000e+00  1.03946307e-06
  0.00000000e+00  0.00000000e+00  0.00000000e+00  0.00000000e+00
  0.00000000e+00  0.00000000e+00  0.00000000e+00  0.00000000e+00
  0.00000000e+00  0.00000000e+00  0.00000000e+00  0.00000000e+00
  0.00000000e+00  0.00000000e+00  0.00000000e+00  0.00000000e+00
  0.00000000e+00  0.00000000e+00 -8.91189852e-07  1.03946307e-06
  0.00000000e+00  0.00000000e+00  0.00000000e+00  2.98814311e-06]","[[-2.24812920e-04  2.37844704e-03]
 [-2.09658874e-05 -4.16420433e-03]]",[],0.0,0.0
1787305857.6173086,0.32450286122653693,-1.0014277240247362,0.18823524329196895,"[ 9.27294917e-06 -4.39130581e-07  0.00000000e+00  0.00000000e+00
  0.00000000e+00 -8.91189852e-07 -4.39130581e-07  6.27311551e-06
  0.00000000e+00  0.00000000e+00  0.00000000e+00  1.03946307e-06
  0.00000000e+00  0.00000000e+00  0.00000000e+00  0.00000000e+00
  0.00000000e+00  0.00000000e+00  0.00000000e+00  0.00000000e+00
  0.00000000e+00  0.00000000e+00  0.00000000e+00  0.00000000e+00
  0.00000000e+00  0.00000000e+00  0.00000000e+00  0.00000000e+00
  0.00000000e+00  0.00000000e+00 -8.91189852e-07  1.03946307e-06
  0.00000000e+00  0.00000000e+00  0.00000000e+00  2.98814311e-06]","[[-2.24812920e-04  2.37844704e-03]
 [-2.09658874e-05 -4.16420433e-03]]",[],0.0,0.0
1787305857.6697853,0.32450286122653693,-1.0014277240247362,0.18823524329196895,"[ 9.27294917e-06 -4.39130581e-07  0.00000000e+00  0.00000000e+00
  0.00000000e+00 -8.91189852e-07 -4.39130581e-07  6.27311551e-06
  0.00000000e+00  0.00000000e+00  0.00000000e+00  1.03946307e-06
  0.00000000e+00  0.00000000e+00  0.00000000e+00  0.00000000e+00
  0.00000000e+00  0.00000000e+00  0.00000000e+00  0.00000000e+00
  0.00000000e+00  0.00000000e+00  0.00000000e+00  0.00000000e+00
  0.00000000e+00  0.00000000e+00  0.00000000e+00  0.00000000e+00
  0.00000000e+00  0.00000000e+00 -8.91189852e-07  1.03946307e-06
  0.00000000e+00  0.00000000e+00  0.00000000e+00  2.98814311e-06]","[[-2.24812920e-04  2.37844704e-03]
 [-2.09658874e-05 -4.16420433e-03]]",[],0.0,0.0
1787305857.7188673,0.32450286122653693,-1.0014277240247362,0.18823524329196895,"[ 9.27294917e-06 -4.39130581e-07  0.00000000e+00  0.00000000e+00
  0.00000000e+00 -8.91189852e-07 -4.39130581e-07  6.27311551e-06
  0.00000000e+00  0.00000000e+00  0.00000000e+00  1.03946307e-06
  0.00000000e+00  0.00000000e+00  0.00000000e+00  0.00000000e+00
  0.00000000e+00  0.00000000e+00  0.00000000e+00  0.00000000e+00
  0.00000000e+00  0.00000000e+00  0.00000000e+00  0.00000000e+00
  0.00000000e+00  0.00000000e+00  0.00000000e+00  0.00000000e+00
  0.00000000e+00  0.00000000e+00 -8.91189852e-07  1.03946307e-06
  0.00000000e+00  0.00000000e+00  0.00000000e+00  2.98814311e-06]","[[-2.24812920e-04  2.37844704e-03]
 [-2.09658874e-05 -4.16420433e-03]]",[],0.0,0.0
1787305857.7699566,0.32450286122653693,-1.0014277240247362,0.18823524329196895,"[ 9.27294917e-06 -4.39130581e-07  0.00000000e+00  0.00000000e+00
  0.00000000e+00 -8.91189852e-07 -4.39130581e-07  6.27311551e-06
  0.00000000e+00  0.00000000e+00  0.00000000e+00  1.03946307e-06
  0.00000000e+00  0.00000000e+00  0.00000000e+00  0.00000000e+00
  0.00000000e+00  0.00000000e+00  0.00000000e+00  0.00000000e+00
  0.00000000e+00  0.00000000e+00  0.00000000e+00  0.00000000e+00
  0.00000000e+00  0.00000000e+00  0.00000000e+00  0.00000000e+00
  0.00000000e+00  0.00000000e+00 -8.91189852e-07  1.03946307e-06
  0.00000000e+00  0.00000000e+00  0.00000000e+00  2.98814311e-06]","[[-2.24812920e-04  2.37844704e-03]
 [-2.09658874e-05 -4.16420433e-03]]",[],0.0,0.0
1787305857.8276987,0.32450286122653693,-1.0014277240247362,0.18823524329196895,"[ 9.27294917e-06 -4.39130581e-07  0.00000000e+00  0.00000000e+00
  0.00000000e+00 -8.91189852e-07 -4.39130581e-07  6.27311551e-06
  0.00000000e+00  0.00000000e+00  0.00000000e+00  1.03946307e-06
  0.00000000e+00  0.00000000e+00  0.00000000e+00  0.00000000e+00
  0.00000000e+00  0.00000000e+00  0.00000000e+00  0.00000000e+00
  0.00000000e+00  0.00000000e+00  0.00000000e+00  0.00000000e+00
  0.00000000e+00  0.00000000e+00  0.00000000e+00  0.00000000e+00
  0.00000000e+00  0.00000000e+00 -8.91189852e-07  1.03946307e-06
  0.00000000e+00  0.00000000e+00  0.00000000e+00  2.98814311e-06]","[[-2.24812920e-04  2.37844704e-03]
 [-2.09658874e-05 -4.16420433e-03]]",[],0.0,0.0
1787305857.8664868,0.32450286122653693,-1.0014277240247362,0.18823524329196895,"[ 9.27294917e-06 -4.39130581e-07  0.00000000e+00  0.00000000e+00
  0.00000000e+00 -8.91189852e-07 -4.39130581e-07  6.27311551e-06
  0.00000000e+00  0.00000000e+00  0.00000000e+00  1.03946307e-06
  0.00000000e+00  0.00000000e+00  0.00000000e+00  0.00000000e+00
  0.00000000e+00  0.00000000e+00  0.00000000e+00  0.00000000e+00
  0.00000000e+00  0.00000000e+00  0.00000000e+00  0.00000000e+00
  0.00000000e+00  0.00000000e+00  0.00000000e+00  0.00000000e+00
  0.00000000e+00  0.00000000e+00 -8.91189852e-07  1.03946307e-06
  0.00000000e+00  0.00000000e+00  0.00000000e+00  2.98814311e-06]","[[-2.24812920e-04  2.37844704e-03]
 [-2.09658874e-05 -4.16420433e-03]]",[],0.0,0.0
1787305857.9198046,0.32450286122653693,-1.0014277240247362,0.18823524329196895,"[ 9.27294917e-06 -4.39130581e-07  0.00000000e+00  0.00000000e+00
  0.00000000e+00 -8.91189852e-07 -4.39130581e-07  6.27311551e-06
  0.00000000e+00  0.00000000e+00  0.00000000e+00  1.03946307e-06
  0.00000000e+00  0.00000000e+00  0.00000000e+00  0.00000000e+00
  0.00000000e+00  0.00000000e+00  0.00000000e+00  0.00000000e+00
  0.00000000e+00  0.00000000e+00  0.00000000e+00  0.00000000e+00
  0.00000000e+00  0.00000000e+00  0.00000000e+00  0.00000000e+00
  0.00000000e+00  0.00000000e+00 -8.91189852e-07  1.03946307e-06
  0.00000000e+00  0.00000000e+00  0.00000000e+00  2.98814311e-06]","[[-2.24812920e-04  2.37844704e-03]
 [-2.09658874e-05 -4.16420433e-03]]",[],0.0,0.0
1787305857.9665806,0.32450286122653693,-1.0014277240247362,0.18823524329196895,"[ 9.27294917e-06 -4.39130581e-07  0.00000000e+00  0.00000000e+00
  0.00000000e+00 -8.91189852e-07 -4.39130581e-07  6.27311551e-06
  0.00000000e+00  0.00000000e+00  0.00000000e+00  1.03946307e-06
  0.00000000e+00  0.00000000e+00  0.00000000e+00  0.00000000e+00
  0.00000000e+00  0.00000000e+00  0.00000000e+00  0.00000000e+00
  0.00000000e+00  0.00000000e+00  0.00000000e+00  0.00000000e+00
  0.00000000e+00  0.00000000e+00  0.00000000e+00  0.00000000e+00
  0.00000000e+00  0.00000000e+00 -8.91189852e-07  1.03946307e-06
  0.00000000e+00  0.00000000e+00  0.00000000e+00  2.98814311e-06]","[[-2.24812920e-04  2.37844704e-03]
 [-2.09658874e-05 -4.16420433e-03]]",[],0.0,0.0
1787305858.016899,0.32450286122653693,-1.0014277240247362,0.18823524329196895,"[ 9.27294917e-06 -4.39130581e-07  0.00000000e+00  0.00000000e+00
  0.00000000e+00 -8.91189852e-07 -4.39130581e-07  6.27311551e-06
  0.00000000e+00  0.00000000e+00  0.00000000e+00  1.03946307e-06
  0.00000000e+00  0.00000000e+00  0.00000000e+00  0.00000000e+00
  0.00000000e+00  0.00000000e+00  0.00000000e+00  0.00000000e+00
  0.00000000e+00  0.00000000e+00  0.00000000e+00  0.00000000e+00
  0.00000000e+00  0.00000000e+00  0.00000000e+00  0.00000000e+00
  0.00000000e+00  0.00000000e+00 -8.91189852e-07  1.03946307e-06
  0.00000000e+00  0.00000000e+00  0.00000000e+00  2.98814311e-06]","[[-2.24812920e-04  2.37844704e-03]
 [-2.09658874e-05 -4.16420433e-03]]",[],0.0,0.0
1787305858.0694928,0.32450286122653693,-1.0014277240247362,0.18823524329196895,"[ 9.27294917e-06 -4.39130581e-07  0.00000000e+00  0.00000000e+00
  0.00000000e+00 -8.91189852e-07 -4.39130581e-07  6.27311551e-06
  0.00000000e+00  0.00000000e+00  0.00000000e+00  1.03946307e-06
  0.00000000e+00  0.00000000e+00  0.00000000e+00  0.00000000e+00
  0.00000000e+00  0.00000000e+00  0.00000000e+00  0.00000000e+00
  0.00000000e+00  0.00000000e+00  0.00000000e+00  0.00000000e+00
  0.00000000e+00  0.00000000e+00  0.00000000e+00  0.00000000e+00
  0.00000000e+00  0.00000000e+00 -8.91189852e-07  1.03946307e-06
  0.00000000e+00  0.00000000e+00  0.00000000e+00  2.98814311e-06]","[[-2.24812920e-04  2.37844704e-03]
 [-2.09658874e-05 -4.16420433e-03]]",[],0.0,0.0
1787305858.12357,0.32450286122653693,-1.0014277240247362,0.18823524329196895,"[ 9.27294917e-06 -4.39130581e-07  0.00000000e+00  0.00000000e+00
  0.00000000e+00 -8.91189852e-07 -4.39130581e-07  6.27311551e-06
  0.00000000e+00  0.00000000e+00  0.00000000e+00  1.03946307e-06
  0.00000000e+00  0.00000000e+00  0.00000000e+00  0.00000000e+00
  0.00000000e+00  0.00000000e+00  0.00000000e+00  0.00000000e+00
  0.00000000e+00  0.00000000e+00  0.00000000e+00  0.00000000e+00
  0.00000000e+00  0.00000000e+00  0.00000000e+00  0.00000000e+00
  0.00000000e+00  0.00000000e+00 -8.91189852e-07  1.03946307e-06
  0.00000000e+00  0.00000000e+00  0.00000000e+00  2.98814311e-06]","[[-2.24812920e-04  2.37844704e-03]
 [-2.09658874e-05 -4.16420433e-03]]",[],0.0,0.0
1787305858.173037,0.32450286122653693,-1.0014277240247362,0.18823524329196895,"[ 9.27294917e-06 -4.39130581e-07  0.00000000e+00  0.00000000e+00
  0.00000000e+00 -8.91189852e-07 -4.39130581e-07  6.27311551e-06
  0.00000000e+00  0.00000000e+00  0.00000000e+00  1.03946307e-06
  0.00000000e+00  0.00000000e+00  0.00000000e+00  0.00000000e+00
  0.00000000e+00  0.00000000e+00  0.00000000e+00  0.00000000e+00
  0.00000000e+00  0.00000000e+00  0.00000000e+00  0.00000000e+00
  0.00000000e+00  0.00000000e+00  0.00000000e+00  0.00000000e+00
  0.00000000e+00  0.00000000e+00 -8.91189852e-07  1.03946307e-06
  0.00000000e+00  0.00000000e+00  0.00000000e+00  2.98814311e-06]","[[-2.24812920e-04  2.37844704e-03]
 [-2.09658874e-05 -4.16420433e-03]]",[],0.0,0.0
1787305858.2220674,0.3011116659016062,-1.0032364057414471,0.16952167312980437,"[ 7.06738660e-06 -2.64684622e-07  0.00000000e+00  0.00000000e+00
  0.00000000e+00 -6.78088485e-07 -2.64684622e-07  4.67482237e-06
  0.00000000e+00  0.00000000e+00  0.00000000e+00  8.10968296e-07
  0.00000000e+00  0.00000000e+00  0.00000000e+00  0.00000000e+00
  0.00000000e+00  0.00000000e+00  0.00000000e+00  0.00000000e+00
  0.00000000e+00  0.00000000e+00  0.00000000e+00  0.00000000e+00
  0.00000000e+00  0.00000000e+00  0.00000000e+00  0.00000000e+00
  0.00000000e+00  0.00000000e+00 -6.78088485e-07  8.10968296e-07
  0.00000000e+00  0.00000000e+00  0.00000000e+00  3.05844962e-06]","[[-1.73547353e-04  1.65841753e-03]
 [-1.14963723e-05 -3.19154201e-03]]",[],0.0,0.0
1787305858.266922,0.3011116659016062,-1.0032364057414471,0.16952167312980437,"[ 7.06738660e-06 -2.64684622e-07  0.00000000e+00  0.00000000e+00
  0.00000000e+00 -6.78088485e-07 -2.64684622e-07  4.67482237e-06
  0.00000000e+00  0.00000000e+00  0.00000000e+00  8.10968296e-07
  0.00000000e+00  0.00000000e+00  0.00000000e+00  0.00000000e+00
  0.00000000e+00  0.00000000e+00  0.00000000e+00  0.00000000e+00
  0.00000000e+00  0.00000000e+00  0.00000000e+00  0.00000000e+00
  0.00000000e+00  0.00000000e+00  0.00000000e+00  0.00000000e+00
  0.00000000e+00  0.00000000e+00 -6.78088485e-07  8.10968296e-07
  0.00000000e+00  0.00000000e+00  0.00000000e+00  3.05844962e-06]","[[-1.73547353e-04  1.65841753e-03]
 [-1.14963723e-05 -3.19154201e-03]]",[],0.0,0.0
1787305858.3187363,0.3011116659016062,-1.0032364057414471,0.16952167312980437,"[ 7.06738660e-06 -2.64684622e-07  0.00000000e+00  0.00000000e+00
  0.00000000e+00 -6.78088485e-07 -2.64684622e-07  4.67482237e-06
  0.00000000e+00  0.00000000e+00  0.00000000e+00  8.10968296e-07
  0.00000000e+00  0.00000000e+00  0.00000000e+00  0.00000000e+00
  0.00000000e+00  0.00000000e+00  0.00000000e+00  0.00000000e+00
  0.00000000e+00  0.00000000e+00  0.00000000e+00  0.00000000e+00
  0.00000000e+00  0.00000000e+00  0.00000000e+00  0.00000000e+00
  0.00000000e+00  0.00000000e+00 -6.78088485e-07  8.10968296e-07
  0.00000000e+00  0.00000000e+00  0.00000000e+00  3.05844962e-06]","[[-1.73547353e-04  1.65841753e-03]
 [-1.14963723e-05 -3.19154201e-03]]",[],0.0,0.0
1787305858.3685234,0.3011116659016062,-1.0032364057414471,0.16952167312980437,"[ 7.06738660e-06 -2.64684622e-07  0.00000000e+00  0.00000000e+00
  0.00000000e+00 -6.78088485e-07 -2.64684622e-07  4.67482237e-06
  0.00000000e+00  0.00000000e+00  0.00000000e+00  8.10968296e-07
  0.00000000e+00  0.00000000e+00  0.00000000e+00  0.00000000e+00
  0.00000000e+00  0.00000000e+00  0.00000000e+00  0.00000000e+00
  0.00000000e+00  0.00000000e+00  0.00000000e+00  0.00000000e+00
  0.00000000e+00  0.00000000e+00  0.00000000e+00  0.00000000e+00
  0.00000000e+00  0.00000000e+00 -6.78088485e-07  8.10968296e-07
  0.00000000e+00  0.00000000e+00  0.00000000e+00  3.05844962e-06]","[[-1.73547353e-04  1.65841753e-03]
 [-1.14963723e-05 -3.19154201e-03]]",[],0.0,0.0
1787305858.4323936,0.3011116659016062,-1.0032364057414471,0.16952167312980437,"[ 7.06738660e-06 -2.64684622e-07  0.00000000e+00  0.00000000e+00
  0.00000000e+00 -6.78088485e-07 -2.64684622e-07  4.67482237e-06
  0.00000000e+00  0.00000000e+00  0.00000000e+00  8.10968296e-07
  0.00000000e+00  0.00000000e+00  0.00000000e+00  0.00000000e+00
  0.00000000e+00  0.00000000e+00  0.00000000e+00  0.00000000e+00
  0.00000000e+00  0.00000000e+00  0.00000000e+00  0.00000000e+00
  0.00000000e+00  0.00000000e+00  0.00000000e+00  0.00000000e+00
  0.00000000e+00  0.00000000e+00 -6.78088485e-07  8.10968296e-07
  0.00000000e+00  0.00000000e+00  0.00000000e+00  3.05844962e-06]","[[-1.73547353e-04  1.65841753e-03]
 [-1.14963723e-05 -3.19154201e-03]]",[],0.0,0.0
1787305858.4675782,0.3011116659016062,-1.0032364057414471,0.16952167312980437,"[ 7.06738660e-06 -2.64684622e-07  0.00000000e+00  0.00000000e+00
  0.00000000e+00 -6.78088485e-07 -2.64684622e-07  4.67482237e-06
  0.00000000e+00  0.00000000e+00  0.00000000e+00  8.10968296e-07
  0.00000000e+00  0.00000000e+00  0.00000000e+00  0.00000000e+00
  0.00000000e+00  0.00000000e+00  0.00000000e+00  0.00000000e+00
  0.00000000e+00  0.00000000e+00  0.00000000e+00  0.00000000e+00
  0.00000000e+00  0.00000000e+00  0.00000000e+00  0.00000000e+00
  0.00000000e+00  0.00000000e+00 -6.78088485e-07  8.10968296e-07
  0.00000000e+00  0.00000000e+00  0.00000000e+00  3.05844962e-06]","[[-1.73547353e-04  1.65841753e-03]
 [-1.14963723e-05 -3.19154201e-03]]",[],0.0,0.0
1787305858.516239,0.3011116659016062,-1.0032364057414471,0.16952167312980437,"[ 7.06738660e-06 -2.64684622e-07  0.00000000e+00  0.00000000e+00
  0.00000000e+00 -6.78088485e-07 -2.64684622e-07  4.67482237e-06
  0.00000000e+00  0.00000000e+00  0.00000000e+00  8.10968296e-07
  0.00000000e+00  0.00000000e+00  0.00000000e+00  0.00000000e+00
  0.00000000e+00  0.00000000e+00  0.00000000e+00  0.00000000e+00
  0.00000000e+00  0.00000000e+00  0.00000000e+00  0.00000000e+00
  0.00000000e+00  0.00000000e+00  0.00000000e+00  0.00000000e+00
  0.00000000e+00  0.00000000e+00 -6.78088485e-07  8.10968296e-07
  0.00000000e+00  0.00000000e+00  0.00000000e+00  3.05844962e-06]","[[-1.73547353e-04  1.65841753e-03]
 [-1.14963723e-05 -3.19154201e-03]]",[],0.0,0.0
1787305858.5738504,0.3011116659016062,-1.0032364057414471,0.16952167312980437,"[ 7.06738660e-06 -2.64684622e-07  0.00000000e+00  0.00000000e+00
  0.00000000e+00 -6.78088485e-07 -2.64684622e-07  4.67482237e-06
  0.00000000e+00  0.00000000e+00  0.00000000e+00  8.10968296e-07
  0.00000000e+00  0.00000000e+00  0.00000000e+00  0.00000000e+00
  0.00000000e+00  0.00000000e+00  0.00000000e+00  0.00000000e+00
  0.00000000e+00  0.00000000e+00  0.00000000e+00  0.00000000e+00
  0.00000000e+00  0.00000000e+00  0.00000000e+00  0.00000000e+00
  0.00000000e+00  0.00000000e+00 -6.78088485e-07  8.10968296e-07
  0.00000000e+00  0.00000000e+00  0.00000000e+00  3.05844962e-06]","[[-1.73547353e-04  1.65841753e-03]
 [-1.14963723e-05 -3.19154201e-03]]",[],0.0,0.0
1787305858.618979,0.3011116659016062,-1.0032364057414471,0.16952167312980437,"[ 7.06738660e-06 -2.64684622e-07  0.00000000e+00  0.00000000e+00
  0.00000000e+00 -6.78088485e-07 -2.64684622e-07  4.67482237e-06
  0.00000000e+00  0.00000000e+00  0.00000000e+00  8.10968296e-07
  0.00000000e+00  0.00000000e+00  0.00000000e+00  0.00000000e+00
  0.00000000e+00  0.00000000e+00  0.00000000e+00  0.00000000e+00
  0.00000000e+00  0.00000000e+00  0.00000000e+00  0.00000000e+00
  0.00000000e+00  0.00000000e+00  0.00000000e+00  0.00000000e+00
  0.00000000e+00  0.00000000e+00 -6.78088485e-07  8.10968296e-07
  0.00000000e+00  0.00000000e+00  0.00000000e+00  3.05844962e-06]","[[-1.73547353e-04  1.65841753e-03]
 [-1.14963723e-05 -3.19154201e-03]]",[],0.0,0.0
1787305858.6696272,0.3011116659016062,-1.0032364057414471,0.16952167312980437,"[ 7.06738660e-06 -2.64684622e-07  0.00000000e+00  0.00000000e+00
  0.00000000e+00 -6.78088485e-07 -2.64684622e-07  4.67482237e-06
  0.00000000e+00  0.00000000e+00  0.00000000e+00  8.10968296e-07
  0.00000000e+00  0.00000000e+00  0.00000000e+00  0.00000000e+00
  0.00000000e+00  0.00000000e+00  0.00000000e+00  0.00000000e+00
  0.00000000e+00  0.00000000e+00  0.00000000e+00  0.00000000e+00
  0.00000000e+00  0.00000000e+00  0.00000000e+00  0.00000000e+00
  0.00000000e+00  0.00000000e+00 -6.78088485e-07  8.10968296e-07
  0.00000000e+00  0.00000000e+00  0.00000000e+00  3.05844962e-06]","[[-1.73547353e-04  1.65841753e-03]
 [-1.14963723e-05 -3.19154201e-03]]",[],0.0,0.0
1787305858.7192447,0.3011116659016062,-1.0032364057414471,0.16952167312980437,"[ 7.06738660e-06 -2.64684622e-07  0.00000000e+00  0.00000000e+00
  0.00000000e+00 -6.78088485e-07 -2.64684622e-07  4.67482237e-06
  0.00000000e+00  0.00000000e+00  0.00000000e+00  8.10968296e-07
  0.00000000e+00  0.00000000e+00  0.00000000e+00  0.00000000e+00
  0.00000000e+00  0.00000000e+00  0.00000000e+00  0.00000000e+00
  0.00000000e+00  0.00000000e+00  0.00000000e+00  0.00000000e+00
  0.00000000e+00  0.00000000e+00  0.00000000e+00  0.00000000e+00
  0.00000000e+00  0.00000000e+00 -6.78088485e-07  8.10968296e-07
  0.00000000e+00  0.00000000e+00  0.00000000e+00  3.05844962e-06]","[[-1.73547353e-04  1.65841753e-03]
 [-1.14963723e-05 -3.19154201e-03]]",[],0.0,0.0
1787305858.769643,0.3011116659016062,-1.0032364057414471,0.16952167312980437,"[ 7.06738660e-06 -2.64684622e-07  0.00000000e+00  0.00000000e+00
  0.00000000e+00 -6.78088485e-07 -2.64684622e-07  4.67482237e-06
  0.00000000e+00  0.00000000e+00  0.00000000e+00  8.10968296e-07
  0.00000000e+00  0.00000000e+00  0.00000000e+00  0.00000000e+00
  0.00000000e+00  0.00000000e+00  0.00000000e+00  0.00000000e+00
  0.00000000e+00  0.00000000e+00  0.00000000e+00  0.00000000e+00
  0.00000000e+00  0.00000000e+00  0.00000000e+00  0.00000000e+00
  0.00000000e+00  0.00000000e+00 -6.78088485e-07  8.10968296e-07
  0.00000000e+00  0.00000000e+00  0.00000000e+00  3.05844962e-06]","[[-1.73547353e-04  1.65841753e-03]
 [-1.14963723e-05 -3.19154201e-03]]",[],0.0,0.0
1787305858.8172953,0.3011116659016062,-1.0032364057414471,0.16952167312980437,"[ 7.06738660e-06 -2.64684622e-07  0.00000000e+00  0.00000000e+00
  0.00000000e+00 -6.78088485e-07 -2.64684622e-07  4.67482237e-06
  0.00000000e+00  0.00000000e+00  0.00000000e+00  8.10968296e-07
  0.00000000e+00  0.00000000e+00  0.00000000e+00  0.00000000e+00
  0.00000000e+00  0.00000000e+00  0.00000000e+00  0.00000000e+00
  0.00000000e+00  0.00000000e+00  0.00000000e+00  0.00000000e+00
  0.00000000e+00  0.00000000e+00  0.00000000e+00  0.00000000e+00
  0.00000000e+00  0.00000000e+00 -6.78088485e-07  8.10968296e-07
  0.00000000e+00  0.00000000e+00  0.00000000e+00  3.05844962e-06]","[[-1.73547353e-04  1.65841753e-03]
 [-1.14963723e-05 -3.19154201e-03]]",[],0.0,0.0
1787305858.871199,0.3011116659016062,-1.0032364057414471,0.16952167312980437,"[ 7.06738660e-06 -2.64684622e-07  0.00000000e+00  0.00000000e+00
  0.00000000e+00 -6.78088485e-07 -2.64684622e-07  4.67482237e-06
  0.00000000e+00  0.00000000e+00  0.00000000e+00  8.10968296e-07
  0.00000000e+00  0.00000000e+00  0.00000000e+00  0.00000000e+00
  0.00000000e+00  0.00000000e+00  0.00000000e+00  0.00000000e+00
  0.00000000e+00  0.00000000e+00  0.00000000e+00  0.00000000e+00
  0.00000000e+00  0.00000000e+00  0.00000000e+00  0.00000000e+00
  0.00000000e+00  0.00000000e+00 -6.78088485e-07  8.10968296e-07
  0.00000000e+00  0.00000000e+00  0.00000000e+00  3.05844962e-06]","[[-1.73547353e-04  1.65841753e-03]
 [-1.14963723e-05 -3.19154201e-03]]",[],0.0,0.0
1787305858.936881,0.3011116659016062,-1.0032364057414471,0.16952167312980437,"[ 7.06738660e-06 -2.64684622e-07  0.00000000e+00  0.00000000e+00
  0.00000000e+00 -6.78088485e-07 -2.64684622e-07  4.67482237e-06
  0.00000000e+00  0.00000000e+00  0.00000000e+00  8.10968296e-07
  0.00000000e+00  0.00000000e+00  0.00000000e+00  0.00000000e+00
  0.00000000e+00  0.00000000e+00  0.00000000e+00  0.00000000e+00
  0.00000000e+00  0.00000000e+00  0.00000000e+00  0.00000000e+00
  0.00000000e+00  0.00000000e+00  0.00000000e+00  0.00000000e+00
  0.00000000e+00  0.00000000e+00 -6.78088485e-07  8.10968296e-07
  0.00000000e+00  0.00000000e+00  0.00000000e+00  3.05844962e-06]","[[-1.73547353e-04  1.65841753e-03]
 [-1.14963723e-05 -3.19154201e-03]]",[],0.0,0.0
1787305858.9729223,0.3011116659016062,-1.0032364057414471,0.16952167312980437,"[ 7.06738660e-06 -2.64684622e-07  0.00000000e+00  0.00000000e+00
  0.00000000e+00 -6.78088485e-07 -2.64684622e-07  4.67482237e-06
  0.00000000e+00  0.00000000e+00  0.00000000e+00  8.10968296e-07
  0.00000000e+00  0.00000000e+00  0.00000000e+00  0.00000000e+00
  0.00000000e+00  0.00000000e+00  0.00000000e+00  0.00000000e+00
  0.00000000e+00  0.00000000e+00  0.00000000e+00  0.00000000e+00
  0.00000000e+00  0.00000000e+00  0.00000000e+00  0.00000000e+00
  0.00000000e+00  0.00000000e+00 -6.78088485e-07  8.10968296e-07
  0.00000000e+00  0.00000000e+00  0.00000000e+00  3.05844962e-06]","[[-1.73547353e-04  1.65841753e-03]
 [-1.14963723e-05 -3.19154201e-03]]",[],0.0,0.0
1787305859.0387144,0.3011116659016062,-1.0032364057414471,0.16952167312980437,"[ 7.06738660e-06 -2.64684622e-07  0.00000000e+00  0.00000000e+00
  0.00000000e+00 -6.78088485e-07 -2.64684622e-07  4.67482237e-06
  0.00000000e+00  0.00000000e+00  0.00000000e+00  8.10968296e-07
  0.00000000e+00  0.00000000e+00  0.00000000e+00  0.00000000e+00
  0.00000000e+00  0.00000000e+00  0.00000000e+00  0.00000000e+00
  0.00000000e+00  0.00000000e+00  0.00000000e+00  0.00000000e+00
  0.00000000e+00  0.00000000e+00  0.00000000e+00  0.00000000e+00
  0.00000000e+00  0.00000000e+00 -6.78088485e-07  8.10968296e-07
  0.00000000e+00  0.00000000e+00  0.00000000e+00  3.05844962e-06]","[[-1.73547353e-04  1.65841753e-03]
 [-1.14963723e-05 -3.19154201e-03]]",[],0.0,0.0
1787305859.084685,0.28895418506001247,-1.0055087753536818,0.14941666442162438,"[ 5.76553694e-06 -1.84092750e-07  0.00000000e+00  0.00000000e+00
  0.00000000e+00 -4.75153770e-07 -1.84092750e-07  3.72949161e-06
  0.00000000e+00  0.00000000e+00  0.00000000e+00  6.42339256e-07
  0.00000000e+00  0.00000000e+00  0.00000000e+00  0.00000000e+00
  0.00000000e+00  0.00000000e+00  0.00000000e+00  0.00000000e+00
  0.00000000e+00  0.00000000e+00  0.00000000e+00  0.00000000e+00
  0.00000000e+00  0.00000000e+00  0.00000000e+00  0.00000000e+00
  0.00000000e+00  0.00000000e+00 -4.75153770e-07  6.42339256e-07
  0.00000000e+00  0.00000000e+00  0.00000000e+00  3.01699036e-06]","[[-1.42569430e-04  1.12534629e-03]
 [-6.51321027e-06 -2.51892153e-03]]",[],0.0,0.0
1787305859.1415198,0.28895418506001247,-1.0055087753536818,0.14941666442162438,"[ 5.76553694e-06 -1.84092750e-07  0.00000000e+00  0.00000000e+00
  0.00000000e+00 -4.75153770e-07 -1.84092750e-07  3.72949161e-06
  0.00000000e+00  0.00000000e+00  0.00000000e+00  6.42339256e-07
  0.00000000e+00  0.00000000e+00  0.00000000e+00  0.00000000e+00
  0.00000000e+00  0.00000000e+00  0.00000000e+00  0.00000000e+00
  0.00000000e+00  0.00000000e+00  0.00000000e+00  0.00000000e+00
  0.00000000e+00  0.00000000e+00  0.00000000e+00  0.00000000e+00
  0.00000000e+00  0.00000000e+00 -4.75153770e-07  6.42339256e-07
  0.00000000e+00  0.00000000e+00  0.00000000e+00  3.01699036e-06]","[[-1.42569430e-04  1.12534629e-03]
 [-6.51321027e-06 -2.51892153e-03]]",[],0.0,0.0
1787305859.166583,0.28895418506001247,-1.0055087753536818,0.14941666442162438,"[ 5.76553694e-06 -1.84092750e-07  0.00000000e+00  0.00000000e+00
  0.00000000e+00 -4.75153770e-07 -1.84092750e-07  3.72949161e-06
  0.00000000e+00  0.00000000e+00  0.00000000e+00  6.42339256e-07
  0.00000000e+00  0.00000000e+00  0.00000000e+00  0.00000000e+00
  0.00000000e+00  0.00000000e+00  0.00000000e+00  0.00000000e+00
  0.00000000e+00  0.00000000e+00  0.00000000e+00  0.00000000e+00
  0.00000000e+00  0.00000000e+00  0.00000000e+00  0.00000000e+00
  0.00000000e+00  0.00000000e+00 -4.75153770e-07  6.42339256e-07
  0.00000000e+00  0.00000000e+00  0.00000000e+00  3.01699036e-06]","[[-1.42569430e-04  1.12534629e-03]
 [-6.51321027e-06 -2.51892153e-03]]",[],0.0,0.0
1787305859.2218118,0.28895418506001247,-1.0055087753536818,0.14941666442162438,"[ 5.76553694e-06 -1.84092750e-07  0.00000000e+00  0.00000000e+00
  0.00000000e+00 -4.75153770e-07 -1.84092750e-07  3.72949161e-06
  0.00000000e+00  0.00000000e+00  0.00000000e+00  6.42339256e-07
  0.00000000e+00  0.00000000e+00  0.00000000e+00  0.00000000e+00
  0.00000000e+00  0.00000000e+00  0.00000000e+00  0.00000000e+00
  0.00000000e+00  0.00000000e+00  0.00000000e+00  0.00000000e+00
  0.00000000e+00  0.00000000e+00  0.00000000e+00  0.00000000e+00
  0.00000000e+00  0.00000000e+00 -4.75153770e-07  6.42339256e-07
  0.00000000e+00  0.00000000e+00  0.00000000e+00  3.01699036e-06]","[[-1.42569430e-04  1.12534629e-03]
 [-6.51321027e-06 -2.51892153e-03]]",[],0.0,0.0
1787305859.2679586,0.28895418506001247,-1.0055087753536818,0.14941666442162438,"[ 5.76553694e-06 -1.84092750e-07  0.00000000e+00  0.00000000e+00
  0.00000000e+00 -4.75153770e-07 -1.84092750e-07  3.72949161e-06
  0.00000000e+00  0.00000000e+00  0.00000000e+00  6.42339256e-07
  0.00000000e+00  0.00000000e+00  0.00000000e+00  0.00000000e+00
  0.00000000e+00  0.00000000e+00  0.00000000e+00  0.00000000e+00
  0.00000000e+00  0.00000000e+00  0.00000000e+00  0.00000000e+00
  0.00000000e+00  0.00000000e+00  0.00000000e+00  0.00000000e+00
  0.00000000e+00  0.00000000e+00 -4.75153770e-07  6.42339256e-07
  0.00000000e+00  0.00000000e+00  0.00000000e+00  3.01699036e-06]","[[-1.42569430e-04  1.12534629e-03]
 [-6.51321027e-06 -2.51892153e-03]]",[],0.0,0.0
1787305859.3246934,0.28895418506001247,-1.0055087753536818,0.14941666442162438,"[ 5.76553694e-06 -1.84092750e-07  0.00000000e+00  0.00000000e+00
  0.00000000e+00 -4.75153770e-07 -1.84092750e-07  3.72949161e-06
  0.00000000e+00  0.00000000e+00  0.00000000e+00  6.42339256e-07
  0.00000000e+00  0.00000000e+00  0.00000000e+00  0.00000000e+00
  0.00000000e+00  0.00000000e+00  0.00000000e+00  0.00000000e+00
  0.00000000e+00  0.00000000e+00  0.00000000e+00  0.00000000e+00
  0.00000000e+00  0.00000000e+00  0.00000000e+00  0.00000000e+00
  0.00000000e+00  0.00000000e+00 -4.75153770e-07  6.42339256e-07
  0.00000000e+00  0.00000000e+00  0.00000000e+00  3.01699036e-06]","[[-1.42569430e-04  1.12534629e-03]
 [-6.51321027e-06 -2.51892153e-03]]",[],0.0,0.0
1787305859.3685637,0.28895418506001247,-1.0055087753536818,0.14941666442162438,"[ 5.76553694e-06 -1.84092750e-07  0.00000000e+00  0.00000000e+00
  0.00000000e+00 -4.75153770e-07 -1.84092750e-07  3.72949161e-06
  0.00000000e+00  0.00000000e+00  0.00000000e+00  6.42339256e-07
  0.00000000e+00  0.00000000e+00  0.00000000e+00  0.00000000e+00
  0.00000000e+00  0.00000000e+00  0.00000000e+00  0.00000000e+00
  0.00000000e+00  0.00000000e+00  0.00000000e+00  0.00000000e+00
  0.00000000e+00  0.00000000e+00  0.00000000e+00  0.00000000e+00
  0.00000000e+00  0.00000000e+00 -4.75153770e-07  6.42339256e-07
  0.00000000e+00  0.00000000e+00  0.00000000e+00  3.01699036e-06]","[[-1.42569430e-04  1.12534629e-03]
 [-6.51321027e-06 -2.51892153e-03]]",[],0.0,0.0
1787305859.4174569,0.28895418506001247,-1.0055087753536818,0.14941666442162438,"[ 5.76553694e-06 -1.84092750e-07  0.00000000e+00  0.00000000e+00
  0.00000000e+00 -4.75153770e-07 -1.84092750e-07  3.72949161e-06
  0.00000000e+00  0.00000000e+00  0.00000000e+00  6.42339256e-07
  0.00000000e+00  0.00000000e+00  0.00000000e+00  0.00000000e+00
  0.00000000e+00  0.00000000e+00  0.00000000e+00  0.00000000e+00
  0.00000000e+00  0.00000000e+00  0.00000000e+00  0.00000000e+00
  0.00000000e+00  0.00000000e+00  0.00000000e+00  0.00000000e+00
  0.00000000e+00  0.00000000e+00 -4.75153770e-07  6.42339256e-07
  0.00000000e+00  0.00000000e+00  0.00000000e+00  3.01699036e-06]","[[-1.42569430e-04  1.12534629e-03]
 [-6.51321027e-06 -2.51892153e-03]]",[],0.0,0.0
1787305859.467444,0.28895418506001247,-1.0055087753536818,0.14941666442162438,"[ 5.76553694e-06 -1.84092750e-07  0.00000000e+00  0.00000000e+00
  0.00000000e+00 -4.75153770e-07 -1.84092750e-07  3.72949161e-06
  0.00000000e+00  0.00000000e+00  0.00000000e+00  6.42339256e-07
  0.00000000e+00  0.00000000e+00  0.00000000e+00  0.00000000e+00
  0.00000000e+00  0.00000000e+00  0.00000000e+00  0.00000000e+00
  0.00000000e+00  0.00000000e+00  0.00000000e+00  0.00000000e+00
  0.00000000e+00  0.00000000e+00  0.00000000e+00  0.00000000e+00
  0.00000000e+00  0.00000000e+00 -4.75153770e-07  6.42339256e-07
  0.00000000e+00  0.00000000e+00  0.00000000e+00  3.01699036e-06]","[[-1.42569430e-04  1.12534629e-03]
 [-6.51321027e-06 -2.51892153e-03]]",[],0.0,0.0
1787305859.51719,0.28895418506001247,-1.0055087753536818,0.14941666442162438,"[ 5.76553694e-06 -1.84092750e-07  0.00000000e+00  0.00000000e+00
  0.00000000e+00 -4.75153770e-07 -1.84092750e-07  3.72949161e-06
  0.00000000e+00  0.00000000e+00  0.00000000e+00  6.42339256e-07
  0.00000000e+00  0.00000000e+00  0.00000000e+00  0.00000000e+00
  0.00000000e+00  0.00000000e+00  0.00000000e+00  0.00000000e+00
  0.00000000e+00  0.00000000e+00  0.00000000e+00  0.00000000e+00
  0.00000000e+00  0.00000000e+00  0.00000000e+00  0.00000000e+00
  0.00000000e+00  0.00000000e+00 -4.75153770e-07  6.42339256e-07
  0.00000000e+00  0.00000000e+00  0.00000000e+00  3.01699036e-06]","[[-1.42569430e-04  1.12534629e-03]
 [-6.51321027e-06 -2.51892153e-03]]",[],0.0,0.0
1787305859.5663888,0.28895418506001247,-1.0055087753536818,0.14941666442162438,"[ 5.76553694e-06 -1.84092750e-07  0.00000000e+00  0.00000000e+00
  0.00000000e+00 -4.75153770e-07 -1.84092750e-07  3.72949161e-06
  0.00000000e+00  0.00000000e+00  0.00000000e+00  6.42339256e-07
  0.00000000e+00  0.00000000e+00  0.00000000e+00  0.00000000e+00
  0.00000000e+00  0.00000000e+00  0.00000000e+00  0.00000000e+00
  0.00000000e+00  0.00000000e+00  0.00000000e+00  0.00000000e+00
  0.00000000e+00  0.00000000e+00  0.00000000e+00  0.00000000e+00
  0.00000000e+00  0.00000000e+00 -4.75153770e-07  6.42339256e-07
  0.00000000e+00  0.00000000e+00  0.00000000e+00  3.01699036e-06]","[[-1.42569430e-04  1.12534629e-03]
 [-6.51321027e-06 -2.51892153e-03]]",[],0.0,0.0
1787305859.6556506,0.28895418506001247,-1.0055087753536818,0.14941666442162438,"[ 5.76553694e-06 -1.84092750e-07  0.00000000e+00  0.00000000e+00
  0.00000000e+00 -4.75153770e-07 -1.84092750e-07  3.72949161e-06
  0.00000000e+00  0.00000000e+00  0.00000000e+00  6.42339256e-07
  0.00000000e+00  0.00000000e+00  0.00000000e+00  0.00000000e+00
  0.00000000e+00  0.00000000e+00  0.00000000e+00  0.00000000e+00
  0.00000000e+00  0.00000000e+00  0.00000000e+00  0.00000000e+00
  0.00000000e+00  0.00000000e+00  0.00000000e+00  0.00000000e+00
  0.00000000e+00  0.00000000e+00 -4.75153770e-07  6.42339256e-07
  0.00000000e+00  0.00000000e+00  0.00000000e+00  3.01699036e-06]","[[-1.42569430e-04  1.12534629e-03]
 [-6.51321027e-06 -2.51892153e-03]]",[],0.0,0.0
1787305859.723571,0.28895418506001247,-1.0055087753536818,0.14941666442162438,"[ 5.76553694e-06 -1.84092750e-07  0.00000000e+00  0.00000000e+00
  0.00000000e+00 -4.75153770e-07 -1.84092750e-07  3.72949161e-06
  0.00000000e+00  0.00000000e+00  0.00000000e+00  6.42339256e-07
  0.00000000e+00  0.00000000e+00  0.00000000e+00  0.00000000e+00
  0.00000000e+00  0.00000000e+00  0.00000000e+00  0.00000000e+00
  0.00000000e+00  0.00000000e+00  0.00000000e+00  0.00000000e+00
  0.00000000e+00  0.00000000e+00  0.00000000e+00  0.00000000e+00
  0.00000000e+00  0.00000000e+00 -4.75153770e-07  6.42339256e-07
  0.00000000e+00  0.00000000e+00  0.00000000e+00  3.01699036e-06]","[[-1.42569430e-04  1.12534629e-03]
 [-6.51321027e-06 -2.51892153e-03]]",[],0.0,0.0
1787305859.7705574,0.28895418506001247,-1.0055087753536818,0.14941666442162438,"[ 5.76553694e-06 -1.84092750e-07  0.00000000e+00  0.00000000e+00
  0.00000000e+00 -4.75153770e-07 -1.84092750e-07  3.72949161e-06
  0.00000000e+00  0.00000000e+00  0.00000000e+00  6.42339256e-07
  0.00000000e+00  0.00000000e+00  0.00000000e+00  0.00000000e+00
  0.00000000e+00  0.00000000e+00  0.00000000e+00  0.00000000e+00
  0.00000000e+00  0.00000000e+00  0.00000000e+00  0.00000000e+00
  0.00000000e+00  0.00000000e+00  0.00000000e+00  0.00000000e+00
  0.00000000e+00  0.00000000e+00 -4.75153770e-07  6.42339256e-07
  0.00000000e+00  0.00000000e+00  0.00000000e+00  3.01699036e-06]","[[-1.42569430e-04  1.12534629e-03]
 [-6.51321027e-06 -2.51892153e-03]]",[],0.0,0.0
1787305859.8276112,0.2791229222467989,-1.0078842391751073,0.1339189199665358,"[ 4.90967303e-06 -1.52519694e-07  0.00000000e+00  0.00000000e+00
  0.00000000e+00 -3.67242446e-07 -1.52519694e-07  3.11379872e-06
  0.00000000e+00  0.00000000e+00  0.00000000e+00  5.39374142e-07
  0.00000000e+00  0.00000000e+00  0.00000000e+00  0.00000000e+00
  0.00000000e+00  0.00000000e+00  0.00000000e+00  0.00000000e+00
  0.00000000e+00  0.00000000e+00  0.00000000e+00  0.00000000e+00
  0.00000000e+00  0.00000000e+00  0.00000000e+00  0.00000000e+00
  0.00000000e+00  0.00000000e+00 -3.67242446e-07  5.39374142e-07
  0.00000000e+00  0.00000000e+00  0.00000000e+00  2.95256649e-06]","[[-1.21967216e-04  8.31117789e-04]
 [-2.85202304e-06 -2.11172324e-03]]",[],0.0,0.0
1787305859.8780391,0.2791229222467989,-1.0078842391751073,0.1339189199665358,"[ 4.90967303e-06 -1.52519694e-07  0.00000000e+00  0.00000000e+00
  0.00000000e+00 -3.67242446e-07 -1.52519694e-07  3.11379872e-06
  0.00000000e+00  0.00000000e+00  0.00000000e+00  5.39374142e-07
  0.00000000e+00  0.00000000e+00  0.00000000e+00  0.00000000e+00
  0.00000000e+00  0.00000000e+00  0.00000000e+00  0.00000000e+00
  0.00000000e+00  0.00000000e+00  0.00000000e+00  0.00000000e+00
  0.00000000e+00  0.00000000e+00  0.00000000e+00  0.00000000e+00
  0.00000000e+00  0.00000000e+00 -3.67242446e-07  5.39374142e-07
  0.00000000e+00  0.00000000e+00  0.00000000e+00  2.95256649e-06]","[[-1.21967216e-04  8.31117789e-04]
 [-2.85202304e-06 -2.11172324e-03]]",[],0.0,0.0
1787305859.9428546,0.2791229222467989,-1.0078842391751073,0.1339189199665358,"[ 4.90967303e-06 -1.52519694e-07  0.00000000e+00  0.00000000e+00
  0.00000000e+00 -3.67242446e-07 -1.52519694e-07  3.11379872e-06
  0.00000000e+00  0.00000000e+00  0.00000000e+00  5.39374142e-07
  0.00000000e+00  0.00000000e+00  0.00000000e+00  0.00000000e+00
  0.00000000e+00  0.00000000e+00  0.00000000e+00  0.00000000e+00
  0.00000000e+00  0.00000000e+00  0.00000000e+00  0.00000000e+00
  0.00000000e+00  0.00000000e+00  0.00000000e+00  0.00000000e+00
  0.00000000e+00  0.00000000e+00 -3.67242446e-07  5.39374142e-07
  0.00000000e+00  0.00000000e+00  0.00000000e+00  2.95256649e-06]","[[-1.21967216e-04  8.31117789e-04]
 [-2.85202304e-06 -2.11172324e-03]]",[],0.0,0.0
1787305859.9670353,0.2791229222467989,-1.0078842391751073,0.1339189199665358,"[ 4.90967303e-06 -1.52519694e-07  0.00000000e+00  0.00000000e+00
  0.00000000e+00 -3.67242446e-07 -1.52519694e-07  3.11379872e-06
  0.00000000e+00  0.00000000e+00  0.00000000e+00  5.39374142e-07
  0.00000000e+00  0.00000000e+00  0.00000000e+00  0.00000000e+00
  0.00000000e+00  0.00000000e+00  0.00000000e+00  0.00000000e+00
  0.00000000e+00  0.00000000e+00  0.00000000e+00  0.00000000e+00
  0.00000000e+00  0.00000000e+00  0.00000000e+00  0.00000000e+00
  0.00000000e+00  0.00000000e+00 -3.67242446e-07  5.39374142e-07
  0.00000000e+00  0.00000000e+00  0.00000000e+00  2.95256649e-06]","[[-1.21967216e-04  8.31117789e-04]
 [-2.85202304e-06 -2.11172324e-03]]",[],0.0,0.0
1787305860.018685,0.2791229222467989,-1.0078842391751073,0.1339189199665358,"[ 4.90967303e-06 -1.52519694e-07  0.00000000e+00  0.00000000e+00
  0.00000000e+00 -3.67242446e-07 -1.52519694e-07  3.11379872e-06
  0.00000000e+00  0.00000000e+00  0.00000000e+00  5.39374142e-07
  0.00000000e+00  0.00000000e+00  0.00000000e+00  0.00000000e+00
  0.00000000e+00  0.00000000e+00  0.00000000e+00  0.00000000e+00
  0.00000000e+00  0.00000000e+00  0.00000000e+00  0.00000000e+00
  0.00000000e+00  0.00000000e+00  0.00000000e+00  0.00000000e+00
  0.00000000e+00  0.00000000e+00 -3.67242446e-07  5.39374142e-07
  0.00000000e+00  0.00000000e+00  0.00000000e+00  2.95256649e-06]","[[-1.21967216e-04  8.31117789e-04]
 [-2.85202304e-06 -2.11172324e-03]]",[],0.0,0.0
1787305860.0679157,0.2791229222467989,-1.0078842391751073,0.1339189199665358,"[ 4.90967303e-06 -1.52519694e-07  0.00000000e+00  0.00000000e+00
  0.00000000e+00 -3.67242446e-07 -1.52519694e-07  3.11379872e-06
  0.00000000e+00  0.00000000e+00  0.00000000e+00  5.39374142e-07
  0.00000000e+00  0.00000000e+00  0.00000000e+00  0.00000000e+00
  0.00000000e+00  0.00000000e+00  0.00000000e+00  0.00000000e+00
  0.00000000e+00  0.00000000e+00  0.00000000e+00  0.00000000e+00
  0.00000000e+00  0.00000000e+00  0.00000000e+00  0.00000000e+00
  0.00000000e+00  0.00000000e+00 -3.67242446e-07  5.39374142e-07
  0.00000000e+00  0.00000000e+00  0.00000000e+00  2.95256649e-06]","[[-1.21967216e-04  8.31117789e-04]
 [-2.85202304e-06 -2.11172324e-03]]",[],0.0,0.0
1787305860.1214895,0.2791229222467989,-1.0078842391751073,0.1339189199665358,"[ 4.90967303e-06 -1.52519694e-07  0.00000000e+00  0.00000000e+00
  0.00000000e+00 -3.67242446e-07 -1.52519694e-07  3.11379872e-06
  0.00000000e+00  0.00000000e+00  0.00000000e+00  5.39374142e-07
  0.00000000e+00  0.00000000e+00  0.00000000e+00  0.00000000e+00
  0.00000000e+00  0.00000000e+00  0.00000000e+00  0.00000000e+00
  0.00000000e+00  0.00000000e+00  0.00000000e+00  0.00000000e+00
  0.00000000e+00  0.00000000e+00  0.00000000e+00  0.00000000e+00
  0.00000000e+00  0.00000000e+00 -3.67242446e-07  5.39374142e-07
  0.00000000e+00  0.00000000e+00  0.00000000e+00  2.95256649e-06]","[[-1.21967216e-04  8.31117789e-04]
 [-2.85202304e-06 -2.11172324e-03]]",[],0.0,0.0
1787305860.1748528,0.2791229222467989,-1.0078842391751073,0.1339189199665358,"[ 4.90967303e-06 -1.52519694e-07  0.00000000e+00  0.00000000e+00
  0.00000000e+00 -3.67242446e-07 -1.52519694e-07  3.11379872e-06
  0.00000000e+00  0.00000000e+00  0.00000000e+00  5.39374142e-07
  0.00000000e+00  0.00000000e+00  0.00000000e+00  0.00000000e+00
  0.00000000e+00  0.00000000e+00  0.00000000e+00  0.00000000e+00
  0.00000000e+00  0.00000000e+00  0.00000000e+00  0.00000000e+00
  0.00000000e+00  0.00000000e+00  0.00000000e+00  0.00000000e+00
  0.00000000e+00  0.00000000e+00 -3.67242446e-07  5.39374142e-07
  0.00000000e+00  0.00000000e+00  0.00000000e+00  2.95256649e-06]","[[-1.21967216e-04  8.31117789e-04]
 [-2.85202304e-06 -2.11172324e-03]]",[],0.0,0.0
1787305860.217144,0.2791229222467989,-1.0078842391751073,0.1339189199665358,"[ 4.90967303e-06 -1.52519694e-07  0.00000000e+00  0.00000000e+00
  0.00000000e+00 -3.67242446e-07 -1.52519694e-07  3.11379872e-06
  0.00000000e+00  0.00000000e+00  0.00000000e+00  5.39374142e-07
  0.00000000e+00  0.00000000e+00  0.00000000e+00  0.00000000e+00
  0.00000000e+00  0.00000000e+00  0.00000000e+00  0.00000000e+00
  0.00000000e+00  0.00000000e+00  0.00000000e+00  0.00000000e+00
  0.00000000e+00  0.00000000e+00  0.00000000e+00  0.00000000e+00
  0.00000000e+00  0.00000000e+00 -3.67242446e-07  5.39374142e-07
  0.00000000e+00  0.00000000e+00  0.00000000e+00  2.95256649e-06]","[[-1.21967216e-04  8.31117789e-04]
 [-2.85202304e-06 -2.11172324e-03]]",[],0.0,0.0
1787305860.275183,0.2791229222467989,-1.0078842391751073,0.1339189199665358,"[ 4.90967303e-06 -1.52519694e-07  0.00000000e+00  0.00000000e+00
  0.00000000e+00 -3.67242446e-07 -1.52519694e-07  3.11379872e-06
  0.00000000e+00  0.00000000e+00  0.00000000e+00  5.39374142e-07
  0.00000000e+00  0.00000000e+00  0.00000000e+00  0.00000000e+00
  0.00000000e+00  0.00000000e+00  0.00000000e+00  0.00000000e+00
  0.00000000e+00  0.00000000e+00  0.00000000e+00  0.00000000e+00
  0.00000000e+00  0.00000000e+00  0.00000000e+00  0.00000000e+00
  0.00000000e+00  0.00000000e+00 -3.67242446e-07  5.39374142e-07
  0.00000000e+00  0.00000000e+00  0.00000000e+00  2.95256649e-06]","[[-1.21967216e-04  8.31117789e-04]
 [-2.85202304e-06 -2.11172324e-03]]",[],0.0,0.0
1787305860.327694,0.2791229222467989,-1.0078842391751073,0.1339189199665358,"[ 4.90967303e-06 -1.52519694e-07  0.00000000e+00  0.00000000e+00
  0.00000000e+00 -3.67242446e-07 -1.52519694e-07  3.11379872e-06
  0.00000000e+00  0.00000000e+00  0.00000000e+00  5.39374142e-07
  0.00000000e+00  0.00000000e+00  0.00000000e+00  0.00000000e+00
  0.00000000e+00  0.00000000e+00  0.00000000e+00  0.00000000e+00
  0.00000000e+00  0.00000000e+00  0.00000000e+00  0.00000000e+00
  0.00000000e+00  0.00000000e+00  0.00000000e+00  0.00000000e+00
  0.00000000e+00  0.00000000e+00 -3.67242446e-07  5.39374142e-07
  0.00000000e+00  0.00000000e+00  0.00000000e+00  2.95256649e-06]","[[-1.21967216e-04  8.31117789e-04]
 [-2.85202304e-06 -2.11172324e-03]]",[],0.0,0.0
1787305860.3715916,0.2791229222467989,-1.0078842391751073,0.1339189199665358,"[ 4.90967303e-06 -1.52519694e-07  0.00000000e+00  0.00000000e+00
  0.00000000e+00 -3.67242446e-07 -1.52519694e-07  3.11379872e-06
  0.00000000e+00  0.00000000e+00  0.00000000e+00  5.39374142e-07
  0.00000000e+00  0.00000000e+00  0.00000000e+00  0.00000000e+00
  0.00000000e+00  0.00000000e+00  0.00000000e+00  0.00000000e+00
  0.00000000e+00  0.00000000e+00  0.00000000e+00  0.00000000e+00
  0.00000000e+00  0.00000000e+00  0.00000000e+00  0.00000000e+00
  0.00000000e+00  0.00000000e+00 -3.67242446e-07  5.39374142e-07
  0.00000000e+00  0.00000000e+00  0.00000000e+00  2.95256649e-06]","[[-1.21967216e-04  8.31117789e-04]
 [-2.85202304e-06 -2.11172324e-03]]",[],0.0,0.0
1787305860.4448833,0.2791229222467989,-1.0078842391751073,0.1339189199665358,"[ 4.90967303e-06 -1.52519694e-07  0.00000000e+00  0.00000000e+00
  0.00000000e+00 -3.67242446e-07 -1.52519694e-07  3.11379872e-06
  0.00000000e+00  0.00000000e+00  0.00000000e+00  5.39374142e-07
  0.00000000e+00  0.00000000e+00  0.00000000e+00  0.00000000e+00
  0.00000000e+00  0.00000000e+00  0.00000000e+00  0.00000000e+00
  0.00000000e+00  0.00000000e+00  0.00000000e+00  0.00000000e+00
  0.00000000e+00  0.00000000e+00  0.00000000e+00  0.00000000e+00
  0.00000000e+00  0.00000000e+00 -3.67242446e-07  5.39374142e-07
  0.00000000e+00  0.00000000e+00  0.00000000e+00  2.95256649e-06]","[[-1.21967216e-04  8.31117789e-04]
 [-2.85202304e-06 -2.11172324e-03]]",[],0.0,0.0
1787305860.4745755,0.2791229222467989,-1.0078842391751073,0.1339189199665358,"[ 4.90967303e-06 -1.52519694e-07  0.00000000e+00  0.00000000e+00
  0.00000000e+00 -3.67242446e-07 -1.52519694e-07  3.11379872e-06
  0.00000000e+00  0.00000000e+00  0.00000000e+00  5.39374142e-07
  0.00000000e+00  0.00000000e+00  0.00000000e+00  0.00000000e+00
  0.00000000e+00  0.00000000e+00  0.00000000e+00  0.00000000e+00
  0.00000000e+00  0.00000000e+00  0.00000000e+00  0.00000000e+00
  0.00000000e+00  0.00000000e+00  0.00000000e+00  0.00000000e+00
  0.00000000e+00  0.00000000e+00 -3.67242446e-07  5.39374142e-07
  0.00000000e+00  0.00000000e+00  0.00000000e+00  2.95256649e-06]","[[-1.21967216e-04  8.31117789e-04]
 [-2.85202304e-06 -2.11172324e-03]]",[],0.0,0.0
1787305860.518846,0.2791229222467989,-1.0078842391751073,0.1339189199665358,"[ 4.90967303e-06 -1.52519694e-07  0.00000000e+00  0.00000000e+00
  0.00000000e+00 -3.67242446e-07 -1.52519694e-07  3.11379872e-06
  0.00000000e+00  0.00000000e+00  0.00000000e+00  5.39374142e-07
  0.00000000e+00  0.00000000e+00  0.00000000e+00  0.00000000e+00
  0.00000000e+00  0.00000000e+00  0.00000000e+00  0.00000000e+00
  0.00000000e+00  0.00000000e+00  0.00000000e+00  0.00000000e+00
  0.00000000e+00  0.00000000e+00  0.00000000e+00  0.00000000e+00
  0.00000000e+00  0.00000000e+00 -3.67242446e-07  5.39374142e-07
  0.00000000e+00  0.00000000e+00  0.00000000e+00  2.95256649e-06]","[[-1.21967216e-04  8.31117789e-04]
 [-2.85202304e-06 -2.11172324e-03]]",[],0.0,0.0
1787305860.5682034,0.2791229222467989,-1.0078842391751073,0.1339189199665358,"[ 4.90967303e-06 -1.52519694e-07  0.00000000e+00  0.00000000e+00
  0.00000000e+00 -3.67242446e-07 -1.52519694e-07  3.11379872e-06
  0.00000000e+00  0.00000000e+00  0.00000000e+00  5.39374142e-07
  0.00000000e+00  0.00000000e+00  0.00000000e+00  0.00000000e+00
  0.00000000e+00  0.00000000e+00  0.00000000e+00  0.00000000e+00
  0.00000000e+00  0.00000000e+00  0.00000000e+00  0.00000000e+00
  0.00000000e+00  0.00000000e+00  0.00000000e+00  0.00000000e+00
  0.00000000e+00  0.00000000e+00 -3.67242446e-07  5.39374142e-07
  0.00000000e+00  0.00000000e+00  0.00000000e+00  2.95256649e-06]","[[-1.21967216e-04  8.31117789e-04]
 [-2.85202304e-06 -2.11172324e-03]]",[],0.0,0.0
1787305860.6179059,0.27129759784844176,-1.0082966983383403,0.12391591435757787,"[ 4.33524487e-06 -1.17766756e-07  0.00000000e+00  0.00000000e+00
  0.00000000e+00 -3.47186818e-07 -1.17766756e-07  2.69928718e-06
  0.00000000e+00  0.00000000e+00  0.00000000e+00  4.49043298e-07
  0.00000000e+00  0.00000000e+00  0.00000000e+00  0.00000000e+00
  0.00000000e+00  0.00000000e+00  0.00000000e+00  0.00000000e+00
  0.00000000e+00  0.00000000e+00  0.00000000e+00  0.00000000e+00
  0.00000000e+00  0.00000000e+00  0.00000000e+00  0.00000000e+00
  0.00000000e+00  0.00000000e+00 -3.47186818e-07  4.49043298e-07
  0.00000000e+00  0.00000000e+00  0.00000000e+00  2.97446855e-06]","[[-1.08094287e-04  7.06291588e-04]
 [-4.66363129e-07 -1.80301940e-03]]",[],0.0,0.0
1787305860.6945322,0.27129759784844176,-1.0082966983383403,0.12391591435757787,"[ 4.33524487e-06 -1.17766756e-07  0.00000000e+00  0.00000000e+00
  0.00000000e+00 -3.47186818e-07 -1.17766756e-07  2.69928718e-06
  0.00000000e+00  0.00000000e+00  0.00000000e+00  4.49043298e-07
  0.00000000e+00  0.00000000e+00  0.00000000e+00  0.00000000e+00
  0.00000000e+00  0.00000000e+00  0.00000000e+00  0.00000000e+00
  0.00000000e+00  0.00000000e+00  0.00000000e+00  0.00000000e+00
  0.00000000e+00  0.00000000e+00  0.00000000e+00  0.00000000e+00
  0.00000000e+00  0.00000000e+00 -3.47186818e-07  4.49043298e-07
  0.00000000e+00  0.00000000e+00  0.00000000e+00  2.97446855e-06]","[[-1.08094287e-04  7.06291588e-04]
 [-4.66363129e-07 -1.80301940e-03]]",[],0.0,0.0
1787305860.7186332,0.27129759784844176,-1.0082966983383403,0.12391591435757787,"[ 4.33524487e-06 -1.17766756e-07  0.00000000e+00  0.00000000e+00
  0.00000000e+00 -3.47186818e-07 -1.17766756e-07  2.69928718e-06
  0.00000000e+00  0.00000000e+00  0.00000000e+00  4.49043298e-07
  0.00000000e+00  0.00000000e+00  0.00000000e+00  0.00000000e+00
  0.00000000e+00  0.00000000e+00  0.00000000e+00  0.00000000e+00
  0.00000000e+00  0.00000000e+00  0.00000000e+00  0.00000000e+00
  0.00000000e+00  0.00000000e+00  0.00000000e+00  0.00000000e+00
  0.00000000e+00  0.00000000e+00 -3.47186818e-07  4.49043298e-07
  0.00000000e+00  0.00000000e+00  0.00000000e+00  2.97446855e-06]","[[-1.08094287e-04  7.06291588e-04]
 [-4.66363129e-07 -1.80301940e-03]]",[],0.0,0.0
1787305860.788719,0.27129759784844176,-1.0082966983383403,0.12391591435757787,"[ 4.33524487e-06 -1.17766756e-07  0.00000000e+00  0.00000000e+00
  0.00000000e+00 -3.47186818e-07 -1.17766756e-07  2.69928718e-06
  0.00000000e+00  0.00000000e+00  0.00000000e+00  4.49043298e-07
  0.00000000e+00  0.00000000e+00  0.00000000e+00  0.00000000e+00
  0.00000000e+00  0.00000000e+00  0.00000000e+00  0.00000000e+00
  0.00000000e+00  0.00000000e+00  0.00000000e+00  0.00000000e+00
  0.00000000e+00  0.00000000e+00  0.00000000e+00  0.00000000e+00
  0.00000000e+00  0.00000000e+00 -3.47186818e-07  4.49043298e-07
  0.00000000e+00  0.00000000e+00  0.00000000e+00  2.97446855e-06]","[[-1.08094287e-04  7.06291588e-04]
 [-4.66363129e-07 -1.80301940e-03]]",[],0.0,0.0
1787305860.8477151,0.27129759784844176,-1.0082966983383403,0.12391591435757787,"[ 4.33524487e-06 -1.17766756e-07  0.00000000e+00  0.00000000e+00
  0.00000000e+00 -3.47186818e-07 -1.17766756e-07  2.69928718e-06
  0.00000000e+00  0.00000000e+00  0.00000000e+00  4.49043298e-07
  0.00000000e+00  0.00000000e+00  0.00000000e+00  0.00000000e+00
  0.00000000e+00  0.00000000e+00  0.00000000e+00  0.00000000e+00
  0.00000000e+00  0.00000000e+00  0.00000000e+00  0.00000000e+00
  0.00000000e+00  0.00000000e+00  0.00000000e+00  0.00000000e+00
  0.00000000e+00  0.00000000e+00 -3.47186818e-07  4.49043298e-07
  0.00000000e+00  0.00000000e+00  0.00000000e+00  2.97446855e-06]","[[-1.08094287e-04  7.06291588e-04]
 [-4.66363129e-07 -1.80301940e-03]]",[],0.0,0.0
1787305860.874396,0.27129759784844176,-1.0082966983383403,0.12391591435757787,"[ 4.33524487e-06 -1.17766756e-07  0.00000000e+00  0.00000000e+00
  0.00000000e+00 -3.47186818e-07 -1.17766756e-07  2.69928718e-06
  0.00000000e+00  0.00000000e+00  0.00000000e+00  4.49043298e-07
  0.00000000e+00  0.00000000e+00  0.00000000e+00  0.00000000e+00
  0.00000000e+00  0.00000000e+00  0.00000000e+00  0.00000000e+00
  0.00000000e+00  0.00000000e+00  0.00000000e+00  0.00000000e+00
  0.00000000e+00  0.00000000e+00  0.00000000e+00  0.00000000e+00
  0.00000000e+00  0.00000000e+00 -3.47186818e-07  4.49043298e-07
  0.00000000e+00  0.00000000e+00  0.00000000e+00  2.97446855e-06]","[[-1.08094287e-04  7.06291588e-04]
 [-4.66363129e-07 -1.80301940e-03]]",[],0.0,0.0
1787305860.9291291,0.27129759784844176,-1.0082966983383403,0.12391591435757787,"[ 4.33524487e-06 -1.17766756e-07  0.00000000e+00  0.00000000e+00
  0.00000000e+00 -3.47186818e-07 -1.17766756e-07  2.69928718e-06
  0.00000000e+00  0.00000000e+00  0.00000000e+00  4.49043298e-07
  0.00000000e+00  0.00000000e+00  0.00000000e+00  0.00000000e+00
  0.00000000e+00  0.00000000e+00  0.00000000e+00  0.00000000e+00
  0.00000000e+00  0.00000000e+00  0.00000000e+00  0.00000000e+00
  0.00000000e+00  0.00000000e+00  0.00000000e+00  0.00000000e+00
  0.00000000e+00  0.00000000e+00 -3.47186818e-07  4.49043298e-07
  0.00000000e+00  0.00000000e+00  0.00000000e+00  2.97446855e-06]","[[-1.08094287e-04  7.06291588e-04]
 [-4.66363129e-07 -1.80301940e-03]]",[],0.0,0.0
1787305860.9670327,0.27129759784844176,-1.0082966983383403,0.12391591435757787,"[ 4.33524487e-06 -1.17766756e-07  0.00000000e+00  0.00000000e+00
  0.00000000e+00 -3.47186818e-07 -1.17766756e-07  2.69928718e-06
  0.00000000e+00  0.00000000e+00  0.00000000e+00  4.49043298e-07
  0.00000000e+00  0.00000000e+00  0.00000000e+00  0.00000000e+00
  0.00000000e+00  0.00000000e+00  0.00000000e+00  0.00000000e+00
  0.00000000e+00  0.00000000e+00  0.00000000e+00  0.00000000e+00
  0.00000000e+00  0.00000000e+00  0.00000000e+00  0.00000000e+00
  0.00000000e+00  0.00000000e+00 -3.47186818e-07  4.49043298e-07
  0.00000000e+00  0.00000000e+00  0.00000000e+00  2.97446855e-06]","[[-1.08094287e-04  7.06291588e-04]
 [-4.66363129e-07 -1.80301940e-03]]",[],0.0,0.0
1787305861.0167928,0.27129759784844176,-1.0082966983383403,0.12391591435757787,"[ 4.33524487e-06 -1.17766756e-07  0.00000000e+00  0.00000000e+00
  0.00000000e+00 -3.47186818e-07 -1.17766756e-07  2.69928718e-06
  0.00000000e+00  0.00000000e+00  0.00000000e+00  4.49043298e-07
  0.00000000e+00  0.00000000e+00  0.00000000e+00  0.00000000e+00
  0.00000000e+00  0.00000000e+00  0.00000000e+00  0.00000000e+00
  0.00000000e+00  0.00000000e+00  0.00000000e+00  0.00000000e+00
  0.00000000e+00  0.00000000e+00  0.00000000e+00  0.00000000e+00
  0.00000000e+00  0.00000000e+00 -3.47186818e-07  4.49043298e-07
  0.00000000e+00  0.00000000e+00  0.00000000e+00  2.97446855e-06]","[[-1.08094287e-04  7.06291588e-04]
 [-4.66363129e-07 -1.80301940e-03]]",[],0.0,0.0
1787305861.0686684,0.27129759784844176,-1.0082966983383403,0.12391591435757787,"[ 4.33524487e-06 -1.17766756e-07  0.00000000e+00  0.00000000e+00
  0.00000000e+00 -3.47186818e-07 -1.17766756e-07  2.69928718e-06
  0.00000000e+00  0.00000000e+00  0.00000000e+00  4.49043298e-07
  0.00000000e+00  0.00000000e+00  0.00000000e+00  0.00000000e+00
  0.00000000e+00  0.00000000e+00  0.00000000e+00  0.00000000e+00
  0.00000000e+00  0.00000000e+00  0.00000000e+00  0.00000000e+00
  0.00000000e+00  0.00000000e+00  0.00000000e+00  0.00000000e+00
  0.00000000e+00  0.00000000e+00 -3.47186818e-07  4.49043298e-07
  0.00000000e+00  0.00000000e+00  0.00000000e+00  2.97446855e-06]","[[-1.08094287e-04  7.06291588e-04]
 [-4.66363129e-07 -1.80301940e-03]]",[],0.0,0.0
1787305861.119877,0.27129759784844176,-1.0082966983383403,0.12391591435757787,"[ 4.33524487e-06 -1.17766756e-07  0.00000000e+00  0.00000000e+00
  0.00000000e+00 -3.47186818e-07 -1.17766756e-07  2.69928718e-06
  0.00000000e+00  0.00000000e+00  0.00000000e+00  4.49043298e-07
  0.00000000e+00  0.00000000e+00  0.00000000e+00  0.00000000e+00
  0.00000000e+00  0.00000000e+00  0.00000000e+00  0.00000000e+00
  0.00000000e+00  0.00000000e+00  0.00000000e+00  0.00000000e+00
  0.00000000e+00  0.00000000e+00  0.00000000e+00  0.00000000e+00
  0.00000000e+00  0.00000000e+00 -3.47186818e-07  4.49043298e-07
  0.00000000e+00  0.00000000e+00  0.00000000e+00  2.97446855e-06]","[[-1.08094287e-04  7.06291588e-04]
 [-4.66363129e-07 -1.80301940e-03]]",[],0.0,0.0
1787305861.2036648,0.27129759784844176,-1.0082966983383403,0.12391591435757787,"[ 4.33524487e-06 -1.17766756e-07  0.00000000e+00  0.00000000e+00
  0.00000000e+00 -3.47186818e-07 -1.17766756e-07  2.69928718e-06
  0.00000000e+00  0.00000000e+00  0.00000000e+00  4.49043298e-07
  0.00000000e+00  0.00000000e+00  0.00000000e+00  0.00000000e+00
  0.00000000e+00  0.00000000e+00  0.00000000e+00  0.00000000e+00
  0.00000000e+00  0.00000000e+00  0.00000000e+00  0.00000000e+00
  0.00000000e+00  0.00000000e+00  0.00000000e+00  0.00000000e+00
  0.00000000e+00  0.00000000e+00 -3.47186818e-07  4.49043298e-07
  0.00000000e+00  0.00000000e+00  0.00000000e+00  2.97446855e-06]","[[-1.08094287e-04  7.06291588e-04]
 [-4.66363129e-07 -1.80301940e-03]]",[],0.0,0.0
1787305861.2167687,0.27129759784844176,-1.0082966983383403,0.12391591435757787,"[ 4.33524487e-06 -1.17766756e-07  0.00000000e+00  0.00000000e+00
  0.00000000e+00 -3.47186818e-07 -1.17766756e-07  2.69928718e-06
  0.00000000e+00  0.00000000e+00  0.00000000e+00  4.49043298e-07
  0.00000000e+00  0.00000000e+00  0.00000000e+00  0.00000000e+00
  0.00000000e+00  0.00000000e+00  0.00000000e+00  0.00000000e+00
  0.00000000e+00  0.00000000e+00  0.00000000e+00  0.00000000e+00
  0.00000000e+00  0.00000000e+00  0.00000000e+00  0.00000000e+00
  0.00000000e+00  0.00000000e+00 -3.47186818e-07  4.49043298e-07
  0.00000000e+00  0.00000000e+00  0.00000000e+00  2.97446855e-06]","[[-1.08094287e-04  7.06291588e-04]
 [-4.66363129e-07 -1.80301940e-03]]",[],0.0,0.0
1787305861.2704744,0.27129759784844176,-1.0082966983383403,0.12391591435757787,"[ 4.33524487e-06 -1.17766756e-07  0.00000000e+00  0.00000000e+00
  0.00000000e+00 -3.47186818e-07 -1.17766756e-07  2.69928718e-06
  0.00000000e+00  0.00000000e+00  0.00000000e+00  4.49043298e-07
  0.00000000e+00  0.00000000e+00  0.00000000e+00  0.00000000e+00
  0.00000000e+00  0.00000000e+00  0.00000000e+00  0.00000000e+00
  0.00000000e+00  0.00000000e+00  0.00000000e+00  0.00000000e+00
  0.00000000e+00  0.00000000e+00  0.00000000e+00  0.00000000e+00
  0.00000000e+00  0.00000000e+00 -3.47186818e-07  4.49043298e-07
  0.00000000e+00  0.00000000e+00  0.00000000e+00  2.97446855e-06]","[[-1.08094287e-04  7.06291588e-04]
 [-4.66363129e-07 -1.80301940e-03]]",[],0.0,0.0
1787305861.316501,0.27129759784844176,-1.0082966983383403,0.12391591435757787,"[ 4.33524487e-06 -1.17766756e-07  0.00000000e+00  0.00000000e+00
  0.00000000e+00 -3.47186818e-07 -1.17766756e-07  2.69928718e-06
  0.00000000e+00  0.00000000e+00  0.00000000e+00  4.49043298e-07
  0.00000000e+00  0.00000000e+00  0.00000000e+00  0.00000000e+00
  0.00000000e+00  0.00000000e+00  0.00000000e+00  0.00000000e+00
  0.00000000e+00  0.00000000e+00  0.00000000e+00  0.00000000e+00
  0.00000000e+00  0.00000000e+00  0.00000000e+00  0.00000000e+00
  0.00000000e+00  0.00000000e+00 -3.47186818e-07  4.49043298e-07
  0.00000000e+00  0.00000000e+00  0.00000000e+00  2.97446855e-06]","[[-1.08094287e-04  7.06291588e-04]
 [-4.66363129e-07 -1.80301940e-03]]",[],0.0,0.0
1787305861.3863626,0.26603880043456396,-1.0098904740642378,0.10913762795220854,"[ 3.94047901e-06 -9.84267980e-08  0.00000000e+00  0.00000000e+00
  0.00000000e+00 -2.85879694e-07 -9.84267980e-08  2.35998320e-06
  0.00000000e+00  0.00000000e+00  0.00000000e+00  4.21878275e-07
  0.00000000e+00  0.00000000e+00  0.00000000e+00  0.00000000e+00
  0.00000000e+00  0.00000000e+00  0.00000000e+00  0.00000000e+00
  0.00000000e+00  0.00000000e+00  0.00000000e+00  0.00000000e+00
  0.00000000e+00  0.00000000e+00  0.00000000e+00  0.00000000e+00
  0.00000000e+00  0.00000000e+00 -2.85879694e-07  4.21878275e-07
  0.00000000e+00  0.00000000e+00  0.00000000e+00  2.91941177e-06]","[[-1.08094287e-04  7.06291588e-04]
 [-4.66363129e-07 -1.80301940e-03]]",[],0.0,0.0
1787305862.050137,0.26603880043456396,-1.0098904740642378,0.10913762795220854,"[ 3.94047901e-06 -9.84267980e-08  0.00000000e+00  0.00000000e+00
  0.00000000e+00 -2.85879694e-07 -9.84267980e-08  2.35998320e-06
  0.00000000e+00  0.00000000e+00  0.00000000e+00  4.21878275e-07
  0.00000000e+00  0.00000000e+00  0.00000000e+00  0.00000000e+00
  0.00000000e+00  0.00000000e+00  0.00000000e+00  0.00000000e+00
  0.00000000e+00  0.00000000e+00  0.00000000e+00  0.00000000e+00
  0.00000000e+00  0.00000000e+00  0.00000000e+00  0.00000000e+00
  0.00000000e+00  0.00000000e+00 -2.85879694e-07  4.21878275e-07
  0.00000000e+00  0.00000000e+00  0.00000000e+00  2.91941177e-06]","[[-9.82327909e-05  5.95156558e-04]
 [-7.48391697e-07 -1.62262538e-03]]",[],0.0,0.0
1787305862.0720077,0.2612434502938503,-1.0115257535968607,0.09856676228762226,"[ 3.60549524e-06 -9.17795667e-08  0.00000000e+00  0.00000000e+00
  0.00000000e+00 -2.04100118e-07 -9.17795667e-08  2.10194279e-06
  0.00000000e+00  0.00000000e+00  0.00000000e+00  3.60355084e-07
  0.00000000e+00  0.00000000e+00  0.00000000e+00  0.00000000e+00
  0.00000000e+00  0.00000000e+00  0.00000000e+00  0.00000000e+00
  0.00000000e+00  0.00000000e+00  0.00000000e+00  0.00000000e+00
  0.00000000e+00  0.00000000e+00  0.00000000e+00  0.00000000e+00
  0.00000000e+00  0.00000000e+00 -2.04100118e-07  3.60355084e-07
  0.00000000e+00  0.00000000e+00  0.00000000e+00  2.86821659e-06]","[[-8.99879268e-05  4.26401643e-04]
 [ 3.22204277e-07 -1.41952177e-03]]",[],0.0,0.0
1787305862.1167216,0.2612434502938503,-1.0115257535968607,0.09856676228762226,"[ 3.60549524e-06 -9.17795667e-08  0.00000000e+00  0.00000000e+00
  0.00000000e+00 -2.04100118e-07 -9.17795667e-08  2.10194279e-06
  0.00000000e+00  0.00000000e+00  0.00000000e+00  3.60355084e-07
  0.00000000e+00  0.00000000e+00  0.00000000e+00  0.00000000e+00
  0.00000000e+00  0.00000000e+00  0.00000000e+00  0.00000000e+00
  0.00000000e+00  0.00000000e+00  0.00000000e+00  0.00000000e+00
  0.00000000e+00  0.00000000e+00  0.00000000e+00  0.00000000e+00
  0.00000000e+00  0.00000000e+00 -2.04100118e-07  3.60355084e-07
  0.00000000e+00  0.00000000e+00  0.00000000e+00  2.86821659e-06]","[[-8.99879268e-05  4.26401643e-04]
 [ 3.22204277e-07 -1.41952177e-03]]",[],0.0,0.0
1787305862.167789,0.2612434502938503,-1.0115257535968607,0.09856676228762226,"[ 3.60549524e-06 -9.17795667e-08  0.00000000e+00  0.00000000e+00
  0.00000000e+00 -2.04100118e-07 -9.17795667e-08  2.10194279e-06
  0.00000000e+00  0.00000000e+00  0.00000000e+00  3.60355084e-07
  0.00000000e+00  0.00000000e+00  0.00000000e+00  0.00000000e+00
  0.00000000e+00  0.00000000e+00  0.00000000e+00  0.00000000e+00
  0.00000000e+00  0.00000000e+00  0.00000000e+00  0.00000000e+00
  0.00000000e+00  0.00000000e+00  0.00000000e+00  0.00000000e+00
  0.00000000e+00  0.00000000e+00 -2.04100118e-07  3.60355084e-07
  0.00000000e+00  0.00000000e+00  0.00000000e+00  2.86821659e-06]","[[-8.99879268e-05  4.26401643e-04]
 [ 3.22204277e-07 -1.41952177e-03]]",[],0.0,0.0
1787305862.2200627,0.2612434502938503,-1.0115257535968607,0.09856676228762226,"[ 3.60549524e-06 -9.17795667e-08  0.00000000e+00  0.00000000e+00
  0.00000000e+00 -2.04100118e-07 -9.17795667e-08  2.10194279e-06
  0.00000000e+00  0.00000000e+00  0.00000000e+00  3.60355084e-07
  0.00000000e+00  0.00000000e+00  0.00000000e+00  0.00000000e+00
  0.00000000e+00  0.00000000e+00  0.00000000e+00  0.00000000e+00
  0.00000000e+00  0.00000000e+00  0.00000000e+00  0.00000000e+00
  0.00000000e+00  0.00000000e+00  0.00000000e+00  0.00000000e+00
  0.00000000e+00  0.00000000e+00 -2.04100118e-07  3.60355084e-07
  0.00000000e+00  0.00000000e+00  0.00000000e+00  2.86821659e-06]","[[-8.99879268e-05  4.26401643e-04]
 [ 3.22204277e-07 -1.41952177e-03]]",[],0.0,0.0
1787305862.273547,0.2612434502938503,-1.0115257535968607,0.09856676228762226,"[ 3.60549524e-06 -9.17795667e-08  0.00000000e+00  0.00000000e+00
  0.00000000e+00 -2.04100118e-07 -9.17795667e-08  2.10194279e-06
  0.00000000e+00  0.00000000e+00  0.00000000e+00  3.60355084e-07
  0.00000000e+00  0.00000000e+00  0.00000000e+00  0.00000000e+00
  0.00000000e+00  0.00000000e+00  0.00000000e+00  0.00000000e+00
  0.00000000e+00  0.00000000e+00  0.00000000e+00  0.00000000e+00
  0.00000000e+00  0.00000000e+00  0.00000000e+00  0.00000000e+00
  0.00000000e+00  0.00000000e+00 -2.04100118e-07  3.60355084e-07
  0.00000000e+00  0.00000000e+00  0.00000000e+00  2.86821659e-06]","[[-8.99879268e-05  4.26401643e-04]
 [ 3.22204277e-07 -1.41952177e-03]]",[],0.0,0.0
1787305862.3219595,0.2612434502938503,-1.0115257535968607,0.09856676228762226,"[ 3.60549524e-06 -9.17795667e-08  0.00000000e+00  0.00000000e+00
  0.00000000e+00 -2.04100118e-07 -9.17795667e-08  2.10194279e-06
  0.00000000e+00  0.00000000e+00  0.00000000e+00  3.60355084e-07
  0.00000000e+00  0.00000000e+00  0.00000000e+00  0.00000000e+00
  0.00000000e+00  0.00000000e+00  0.00000000e+00  0.00000000e+00
  0.00000000e+00  0.00000000e+00  0.00000000e+00  0.00000000e+00
  0.00000000e+00  0.00000000e+00  0.00000000e+00  0.00000000e+00
  0.00000000e+00  0.00000000e+00 -2.04100118e-07  3.60355084e-07
  0.00000000e+00  0.00000000e+00  0.00000000e+00  2.86821659e-06]","[[-8.99879268e-05  4.26401643e-04]
 [ 3.22204277e-07 -1.41952177e-03]]",[],0.0,0.0
1787305862.3668957,0.2612434502938503,-1.0115257535968607,0.09856676228762226,"[ 3.60549524e-06 -9.17795667e-08  0.00000000e+00  0.00000000e+00
  0.00000000e+00 -2.04100118e-07 -9.17795667e-08  2.10194279e-06
  0.00000000e+00  0.00000000e+00  0.00000000e+00  3.60355084e-07
  0.00000000e+00  0.00000000e+00  0.00000000e+00  0.00000000e+00
  0.00000000e+00  0.00000000e+00  0.00000000e+00  0.00000000e+00
  0.00000000e+00  0.00000000e+00  0.00000000e+00  0.00000000e+00
  0.00000000e+00  0.00000000e+00  0.00000000e+00  0.00000000e+00
  0.00000000e+00  0.00000000e+00 -2.04100118e-07  3.60355084e-07
  0.00000000e+00  0.00000000e+00  0.00000000e+00  2.86821659e-06]","[[-8.99879268e-05  4.26401643e-04]
 [ 3.22204277e-07 -1.41952177e-03]]",[],0.0,0.0
1787305862.4230256,0.2612434502938503,-1.0115257535968607,0.09856676228762226,"[ 3.60549524e-06 -9.17795667e-08  0.00000000e+00  0.00000000e+00
  0.00000000e+00 -2.04100118e-07 -9.17795667e-08  2.10194279e-06
  0.00000000e+00  0.00000000e+00  0.00000000e+00  3.60355084e-07
  0.00000000e+00  0.00000000e+00  0.00000000e+00  0.00000000e+00
  0.00000000e+00  0.00000000e+00  0.00000000e+00  0.00000000e+00
  0.00000000e+00  0.00000000e+00  0.00000000e+00  0.00000000e+00
  0.00000000e+00  0.00000000e+00  0.00000000e+00  0.00000000e+00
  0.00000000e+00  0.00000000e+00 -2.04100118e-07  3.60355084e-07
  0.00000000e+00  0.00000000e+00  0.00000000e+00  2.86821659e-06]","[[-8.99879268e-05  4.26401643e-04]
 [ 3.22204277e-07 -1.41952177e-03]]",[],0.0,0.0
1787305862.5127861,0.2612434502938503,-1.0115257535968607,0.09856676228762226,"[ 3.60549524e-06 -9.17795667e-08  0.00000000e+00  0.00000000e+00
  0.00000000e+00 -2.04100118e-07 -9.17795667e-08  2.10194279e-06
  0.00000000e+00  0.00000000e+00  0.00000000e+00  3.60355084e-07
  0.00000000e+00  0.00000000e+00  0.00000000e+00  0.00000000e+00
  0.00000000e+00  0.00000000e+00  0.00000000e+00  0.00000000e+00
  0.00000000e+00  0.00000000e+00  0.00000000e+00  0.00000000e+00
  0.00000000e+00  0.00000000e+00  0.00000000e+00  0.00000000e+00
  0.00000000e+00  0.00000000e+00 -2.04100118e-07  3.60355084e-07
  0.00000000e+00  0.00000000e+00  0.00000000e+00  2.86821659e-06]","[[-8.99879268e-05  4.26401643e-04]
 [ 3.22204277e-07 -1.41952177e-03]]",[],0.0,0.0
1787305862.517834,0.2612434502938503,-1.0115257535968607,0.09856676228762226,"[ 3.60549524e-06 -9.17795667e-08  0.00000000e+00  0.00000000e+00
  0.00000000e+00 -2.04100118e-07 -9.17795667e-08  2.10194279e-06
  0.00000000e+00  0.00000000e+00  0.00000000e+00  3.60355084e-07
  0.00000000e+00  0.00000000e+00  0.00000000e+00  0.00000000e+00
  0.00000000e+00  0.00000000e+00  0.00000000e+00  0.00000000e+00
  0.00000000e+00  0.00000000e+00  0.00000000e+00  0.00000000e+00
  0.00000000e+00  0.00000000e+00  0.00000000e+00  0.00000000e+00
  0.00000000e+00  0.00000000e+00 -2.04100118e-07  3.60355084e-07
  0.00000000e+00  0.00000000e+00  0.00000000e+00  2.86821659e-06]","[[-8.99879268e-05  4.26401643e-04]
 [ 3.22204277e-07 -1.41952177e-03]]",[],0.0,0.0
1787305862.5777795,0.2612434502938503,-1.0115257535968607,0.09856676228762226,"[ 3.60549524e-06 -9.17795667e-08  0.00000000e+00  0.00000000e+00
  0.00000000e+00 -2.04100118e-07 -9.17795667e-08  2.10194279e-06
  0.00000000e+00  0.00000000e+00  0.00000000e+00  3.60355084e-07
  0.00000000e+00  0.00000000e+00  0.00000000e+00  0.00000000e+00
  0.00000000e+00  0.00000000e+00  0.00000000e+00  0.00000000e+00
  0.00000000e+00  0.00000000e+00  0.00000000e+00  0.00000000e+00
  0.00000000e+00  0.00000000e+00  0.00000000e+00  0.00000000e+00
  0.00000000e+00  0.00000000e+00 -2.04100118e-07  3.60355084e-07
  0.00000000e+00  0.00000000e+00  0.00000000e+00  2.86821659e-06]","[[-8.99879268e-05  4.26401643e-04]
 [ 3.22204277e-07 -1.41952177e-03]]",[],0.0,0.0
1787305862.6203275,0.2612434502938503,-1.0115257535968607,0.09856676228762226,"[ 3.60549524e-06 -9.17795667e-08  0.00000000e+00  0.00000000e+00
  0.00000000e+00 -2.04100118e-07 -9.17795667e-08  2.10194279e-06
  0.00000000e+00  0.00000000e+00  0.00000000e+00  3.60355084e-07
  0.00000000e+00  0.00000000e+00  0.00000000e+00  0.00000000e+00
  0.00000000e+00  0.00000000e+00  0.00000000e+00  0.00000000e+00
  0.00000000e+00  0.00000000e+00  0.00000000e+00  0.00000000e+00
  0.00000000e+00  0.00000000e+00  0.00000000e+00  0.00000000e+00
  0.00000000e+00  0.00000000e+00 -2.04100118e-07  3.60355084e-07
  0.00000000e+00  0.00000000e+00  0.00000000e+00  2.86821659e-06]","[[-8.99879268e-05  4.26401643e-04]
 [ 3.22204277e-07 -1.41952177e-03]]",[],0.0,0.0
1787305862.6924937,0.2612434502938503,-1.0115257535968607,0.09856676228762226,"[ 3.60549524e-06 -9.17795667e-08  0.00000000e+00  0.00000000e+00
  0.00000000e+00 -2.04100118e-07 -9.17795667e-08  2.10194279e-06
  0.00000000e+00  0.00000000e+00  0.00000000e+00  3.60355084e-07
  0.00000000e+00  0.00000000e+00  0.00000000e+00  0.00000000e+00
  0.00000000e+00  0.00000000e+00  0.00000000e+00  0.00000000e+00
  0.00000000e+00  0.00000000e+00  0.00000000e+00  0.00000000e+00
  0.00000000e+00  0.00000000e+00  0.00000000e+00  0.00000000e+00
  0.00000000e+00  0.00000000e+00 -2.04100118e-07  3.60355084e-07
  0.00000000e+00  0.00000000e+00  0.00000000e+00  2.86821659e-06]","[[-8.99879268e-05  4.26401643e-04]
 [ 3.22204277e-07 -1.41952177e-03]]",[],0.0,0.0
1787305862.7448168,0.2612434502938503,-1.0115257535968607,0.09856676228762226,"[ 3.60549524e-06 -9.17795667e-08  0.00000000e+00  0.00000000e+00
  0.00000000e+00 -2.04100118e-07 -9.17795667e-08  2.10194279e-06
  0.00000000e+00  0.00000000e+00  0.00000000e+00  3.60355084e-07
  0.00000000e+00  0.00000000e+00  0.00000000e+00  0.00000000e+00
  0.00000000e+00  0.00000000e+00  0.00000000e+00  0.00000000e+00
  0.00000000e+00  0.00000000e+00  0.00000000e+00  0.00000000e+00
  0.00000000e+00  0.00000000e+00  0.00000000e+00  0.00000000e+00
  0.00000000e+00  0.00000000e+00 -2.04100118e-07  3.60355084e-07
  0.00000000e+00  0.00000000e+00  0.00000000e+00  2.86821659e-06]","[[-8.99879268e-05  4.26401643e-04]
 [ 3.22204277e-07 -1.41952177e-03]]",[],0.0,0.0
1787305862.7926366,0.2612434502938503,-1.0115257535968607,0.09856676228762226,"[ 3.60549524e-06 -9.17795667e-08  0.00000000e+00  0.00000000e+00
  0.00000000e+00 -2.04100118e-07 -9.17795667e-08  2.10194279e-06
  0.00000000e+00  0.00000000e+00  0.00000000e+00  3.60355084e-07
  0.00000000e+00  0.00000000e+00  0.00000000e+00  0.00000000e+00
  0.00000000e+00  0.00000000e+00  0.00000000e+00  0.00000000e+00
  0.00000000e+00  0.00000000e+00  0.00000000e+00  0.00000000e+00
  0.00000000e+00  0.00000000e+00  0.00000000e+00  0.00000000e+00
  0.00000000e+00  0.00000000e+00 -2.04100118e-07  3.60355084e-07
  0.00000000e+00  0.00000000e+00  0.00000000e+00  2.86821659e-06]","[[-8.99879268e-05  4.26401643e-04]
 [ 3.22204277e-07 -1.41952177e-03]]",[],0.0,0.0
1787305862.8411806,0.2557740577916959,-1.013167216231676,0.08319633758922773,"[ 3.35920555e-06 -7.84887802e-08  0.00000000e+00  0.00000000e+00
  0.00000000e+00 -1.85116262e-07 -7.84887802e-08  1.89055239e-06
  0.00000000e+00  0.00000000e+00  0.00000000e+00  3.25270486e-07
  0.00000000e+00  0.00000000e+00  0.00000000e+00  0.00000000e+00
  0.00000000e+00  0.00000000e+00  0.00000000e+00  0.00000000e+00
  0.00000000e+00  0.00000000e+00  0.00000000e+00  0.00000000e+00
  0.00000000e+00  0.00000000e+00  0.00000000e+00  0.00000000e+00
  0.00000000e+00  0.00000000e+00 -1.85116262e-07  3.25270486e-07
  0.00000000e+00  0.00000000e+00  0.00000000e+00  2.88481532e-06]","[[-8.38614382e-05  3.82484309e-04]
 [ 3.20630531e-07 -1.27827916e-03]]",[],0.0,0.0
1787305862.8788848,0.2557740577916959,-1.013167216231676,0.08319633758922773,"[ 3.35920555e-06 -7.84887802e-08  0.00000000e+00  0.00000000e+00
  0.00000000e+00 -1.85116262e-07 -7.84887802e-08  1.89055239e-06
  0.00000000e+00  0.00000000e+00  0.00000000e+00  3.25270486e-07
  0.00000000e+00  0.00000000e+00  0.00000000e+00  0.00000000e+00
  0.00000000e+00  0.00000000e+00  0.00000000e+00  0.00000000e+00
  0.00000000e+00  0.00000000e+00  0.00000000e+00  0.00000000e+00
  0.00000000e+00  0.00000000e+00  0.00000000e+00  0.00000000e+00
  0.00000000e+00  0.00000000e+00 -1.85116262e-07  3.25270486e-07
  0.00000000e+00  0.00000000e+00  0.00000000e+00  2.88481532e-06]","[[-8.38614382e-05  3.82484309e-04]
 [ 3.20630531e-07 -1.27827916e-03]]",[],0.0,0.0
1787305863.3078473,0.2557740577916959,-1.013167216231676,0.08319633758922773,"[ 3.35920555e-06 -7.84887802e-08  0.00000000e+00  0.00000000e+00
  0.00000000e+00 -1.85116262e-07 -7.84887802e-08  1.89055239e-06
  0.00000000e+00  0.00000000e+00  0.00000000e+00  3.25270486e-07
  0.00000000e+00  0.00000000e+00  0.00000000e+00  0.00000000e+00
  0.00000000e+00  0.00000000e+00  0.00000000e+00  0.00000000e+00
  0.00000000e+00  0.00000000e+00  0.00000000e+00  0.00000000e+00
  0.00000000e+00  0.00000000e+00  0.00000000e+00  0.00000000e+00
  0.00000000e+00  0.00000000e+00 -1.85116262e-07  3.25270486e-07
  0.00000000e+00  0.00000000e+00  0.00000000e+00  2.88481532e-06]","[[-8.38614382e-05  3.82484309e-04]
 [ 3.20630531e-07 -1.27827916e-03]]",[],0.0,0.0
1787305863.3935626,0.2557740577916959,-1.013167216231676,0.08319633758922773,"[ 3.35920555e-06 -7.84887802e-08  0.00000000e+00  0.00000000e+00
  0.00000000e+00 -1.85116262e-07 -7.84887802e-08  1.89055239e-06
  0.00000000e+00  0.00000000e+00  0.00000000e+00  3.25270486e-07
  0.00000000e+00  0.00000000e+00  0.00000000e+00  0.00000000e+00
  0.00000000e+00  0.00000000e+00  0.00000000e+00  0.00000000e+00
  0.00000000e+00  0.00000000e+00  0.00000000e+00  0.00000000e+00
  0.00000000e+00  0.00000000e+00  0.00000000e+00  0.00000000e+00
  0.00000000e+00  0.00000000e+00 -1.85116262e-07  3.25270486e-07
  0.00000000e+00  0.00000000e+00  0.00000000e+00  2.88481532e-06]","[[-8.38614382e-05  3.82484309e-04]
 [ 3.20630531e-07 -1.27827916e-03]]",[],0.0,0.0
1787305863.4668741,0.2557740577916959,-1.013167216231676,0.08319633758922773,"[ 3.35920555e-06 -7.84887802e-08  0.00000000e+00  0.00000000e+00
  0.00000000e+00 -1.85116262e-07 -7.84887802e-08  1.89055239e-06
  0.00000000e+00  0.00000000e+00  0.00000000e+00  3.25270486e-07
  0.00000000e+00  0.00000000e+00  0.00000000e+00  0.00000000e+00
  0.00000000e+00  0.00000000e+00  0.00000000e+00  0.00000000e+00
  0.00000000e+00  0.00000000e+00  0.00000000e+00  0.00000000e+00
  0.00000000e+00  0.00000000e+00  0.00000000e+00  0.00000000e+00
  0.00000000e+00  0.00000000e+00 -1.85116262e-07  3.25270486e-07
  0.00000000e+00  0.00000000e+00  0.00000000e+00  2.88481532e-06]","[[-8.38614382e-05  3.82484309e-04]
 [ 3.20630531e-07 -1.27827916e-03]]",[],0.0,0.0
1787305864.179071,0.2478848297035927,-1.0153395988331249,0.07443720275302733,"[ 3.10862266e-06 -7.25852764e-08  0.00000000e+00  0.00000000e+00
  0.00000000e+00 -2.00978479e-07 -7.25852764e-08  1.71671351e-06
  0.00000000e+00  0.00000000e+00  0.00000000e+00  3.02592500e-07
  0.00000000e+00  0.00000000e+00  0.00000000e+00  0.00000000e+00
  0.00000000e+00  0.00000000e+00  0.00000000e+00  0.00000000e+00
  0.00000000e+00  0.00000000e+00  0.00000000e+00  0.00000000e+00
  0.00000000e+00  0.00000000e+00  0.00000000e+00  0.00000000e+00
  0.00000000e+00  0.00000000e+00 -2.00978479e-07  3.02592500e-07
  0.00000000e+00  0.00000000e+00  0.00000000e+00  2.77396497e-06]","[[-7.76953784e-05  3.72310860e-04]
 [ 1.41624232e-06 -1.17593351e-03]]",[],0.0,0.0
1787305864.7975254,0.24027140348969175,-1.0174798717445541,0.062185567504252415,"[ 2.92682529e-06 -6.61021048e-08  0.00000000e+00  0.00000000e+00
  0.00000000e+00 -1.47154553e-07 -6.61021048e-08  1.57274668e-06
  0.00000000e+00  0.00000000e+00  0.00000000e+00  2.84663111e-07
  0.00000000e+00  0.00000000e+00  0.00000000e+00  0.00000000e+00
  0.00000000e+00  0.00000000e+00  0.00000000e+00  0.00000000e+00
  0.00000000e+00  0.00000000e+00  0.00000000e+00  0.00000000e+00
  0.00000000e+00  0.00000000e+00  0.00000000e+00  0.00000000e+00
  0.00000000e+00  0.00000000e+00 -1.47154553e-07  2.84663111e-07
  0.00000000e+00  0.00000000e+00  0.00000000e+00  2.79153399e-06]","[[-7.28969744e-05  3.45640236e-04]
 [-9.76616711e-07 -1.08639419e-03]]",[],0.0,0.0
1787305864.821954,0.2335772802516094,-1.0196575532361065,0.04812117912710924,"[ 2.77232632e-06 -6.70675894e-08  0.00000000e+00  0.00000000e+00
  0.00000000e+00 -1.46079183e-07 -6.70675894e-08  1.45540472e-06
  0.00000000e+00  0.00000000e+00  0.00000000e+00  2.50586835e-07
  0.00000000e+00  0.00000000e+00  0.00000000e+00  0.00000000e+00
  0.00000000e+00  0.00000000e+00  0.00000000e+00  0.00000000e+00
  0.00000000e+00  0.00000000e+00  0.00000000e+00  0.00000000e+00
  0.00000000e+00  0.00000000e+00  0.00000000e+00  0.00000000e+00
  0.00000000e+00  0.00000000e+00 -1.46079183e-07  2.50586835e-07
  0.00000000e+00  0.00000000e+00  0.00000000e+00  2.73724809e-06]","[[-6.92872871e-05  2.79048739e-04]
 [ 1.30298501e-06 -9.85035262e-04]]",[],0.0,0.0
1787305865.4860146,0.2335772802516094,-1.0196575532361065,0.04812117912710924,"[ 2.77232632e-06 -6.70675894e-08  0.00000000e+00  0.00000000e+00
  0.00000000e+00 -1.46079183e-07 -6.70675894e-08  1.45540472e-06
  0.00000000e+00  0.00000000e+00  0.00000000e+00  2.50586835e-07
  0.00000000e+00  0.00000000e+00  0.00000000e+00  0.00000000e+00
  0.00000000e+00  0.00000000e+00  0.00000000e+00  0.00000000e+00
  0.00000000e+00  0.00000000e+00  0.00000000e+00  0.00000000e+00
  0.00000000e+00  0.00000000e+00  0.00000000e+00  0.00000000e+00
  0.00000000e+00  0.00000000e+00 -1.46079183e-07  2.50586835e-07
  0.00000000e+00  0.00000000e+00  0.00000000e+00  2.73724809e-06]","[[-6.92872871e-05  2.79048739e-04]
 [ 1.30298501e-06 -9.85035262e-04]]",[],0.0,0.0
1787305866.1333997,0.22734628855901803,-1.0218448550568915,0.03581396355080191,"[ 2.64503833e-06 -6.70154166e-08  0.00000000e+00  0.00000000e+00
  0.00000000e+00 -1.56853617e-07 -6.70154166e-08  1.35125254e-06
  0.00000000e+00  0.00000000e+00  0.00000000e+00  2.53290563e-07
  0.00000000e+00  0.00000000e+00  0.00000000e+00  0.00000000e+00
  0.00000000e+00  0.00000000e+00  0.00000000e+00  0.00000000e+00
  0.00000000e+00  0.00000000e+00  0.00000000e+00  0.00000000e+00
  0.00000000e+00  0.00000000e+00  0.00000000e+00  0.00000000e+00
  0.00000000e+00  0.00000000e+00 -1.56853617e-07  2.53290563e-07
  0.00000000e+00  0.00000000e+00  0.00000000e+00  2.79796746e-06]","[[-6.61238142e-05  2.87029639e-04]
 [ 1.63319293e-06 -9.49256897e-04]]",[],0.0,0.0
1787305866.170418,0.22117534734511035,-1.0236709774672925,0.022490621292168726,"[ 2.53444322e-06 -7.10973756e-08  0.00000000e+00  0.00000000e+00
  0.00000000e+00 -1.36293506e-07 -7.10973756e-08  1.26398910e-06
  0.00000000e+00  0.00000000e+00  0.00000000e+00  2.30847982e-07
  0.00000000e+00  0.00000000e+00  0.00000000e+00  0.00000000e+00
  0.00000000e+00  0.00000000e+00  0.00000000e+00  0.00000000e+00
  0.00000000e+00  0.00000000e+00  0.00000000e+00  0.00000000e+00
  0.00000000e+00  0.00000000e+00  0.00000000e+00  0.00000000e+00
  0.00000000e+00  0.00000000e+00 -1.36293506e-07  2.30847982e-07
  0.00000000e+00  0.00000000e+00  0.00000000e+00  2.85079579e-06]","[[-6.33845916e-05  2.18813288e-04]
 [ 2.87347380e-06 -8.74120673e-04]]",[],0.0,0.0
1787305866.320005,0.22117534734511035,-1.0236709774672925,0.022490621292168726,"[ 2.53444322e-06 -7.10973756e-08  0.00000000e+00  0.00000000e+00
  0.00000000e+00 -1.36293506e-07 -7.10973756e-08  1.26398910e-06
  0.00000000e+00  0.00000000e+00  0.00000000e+00  2.30847982e-07
  0.00000000e+00  0.00000000e+00  0.00000000e+00  0.00000000e+00
  0.00000000e+00  0.00000000e+00  0.00000000e+00  0.00000000e+00
  0.00000000e+00  0.00000000e+00  0.00000000e+00  0.00000000e+00
  0.00000000e+00  0.00000000e+00  0.00000000e+00  0.00000000e+00
  0.00000000e+00  0.00000000e+00 -1.36293506e-07  2.30847982e-07
  0.00000000e+00  0.00000000e+00  0.00000000e+00  2.85079579e-06]","[[-6.33845916e-05  2.18813288e-04]
 [ 2.87347380e-06 -8.74120673e-04]]",[],0.0,0.0
1787305866.8969672,0.22117534734511035,-1.0236709774672925,0.022490621292168726,"[ 2.53444322e-06 -7.10973756e-08  0.00000000e+00  0.00000000e+00
  0.00000000e+00 -1.36293506e-07 -7.10973756e-08  1.26398910e-06
  0.00000000e+00  0.00000000e+00  0.00000000e+00  2.30847982e-07
  0.00000000e+00  0.00000000e+00  0.00000000e+00  0.00000000e+00
  0.00000000e+00  0.00000000e+00  0.00000000e+00  0.00000000e+00
  0.00000000e+00  0.00000000e+00  0.00000000e+00  0.00000000e+00
  0.00000000e+00  0.00000000e+00  0.00000000e+00  0.00000000e+00
  0.00000000e+00  0.00000000e+00 -1.36293506e-07  2.30847982e-07
  0.00000000e+00  0.00000000e+00  0.00000000e+00  2.85079579e-06]","[[-6.33845916e-05  2.18813288e-04]
 [ 2.87347380e-06 -8.74120673e-04]]",[],0.0,0.0
1787305867.4181783,0.21491517755140815,-1.0258045026279297,0.004038017448307674,"[ 2.49071392e-06 -7.53622074e-08  0.00000000e+00  0.00000000e+00
  0.00000000e+00 -8.62288100e-08 -7.53622074e-08  1.18594831e-06
  0.00000000e+00  0.00000000e+00  0.00000000e+00  1.98864644e-07
  0.00000000e+00  0.00000000e+00  0.00000000e+00  0.00000000e+00
  0.00000000e+00  0.00000000e+00  0.00000000e+00  0.00000000e+00
  0.00000000e+00  0.00000000e+00  0.00000000e+00  0.00000000e+00
  0.00000000e+00  0.00000000e+00  0.00000000e+00  0.00000000e+00
  0.00000000e+00  0.00000000e+00 -8.62288100e-08  1.98864644e-07
  0.00000000e+00  0.00000000e+00  0.00000000e+00  2.89256563e-06]","[[-6.22958469e-05  1.38737516e-04]
 [ 2.89807903e-06 -7.90065086e-04]]",[],0.0,0.0
1787305867.5843196,0.20699881246059212,-1.0277540020227505,-0.012708832489886746,"[ 2.35941494e-06 -8.07168782e-08  0.00000000e+00  0.00000000e+00
  0.00000000e+00 -8.72259476e-08 -8.07168782e-08  1.11806868e-06
  0.00000000e+00  0.00000000e+00  0.00000000e+00  2.04336729e-07
  0.00000000e+00  0.00000000e+00  0.00000000e+00  0.00000000e+00
  0.00000000e+00  0.00000000e+00  0.00000000e+00  0.00000000e+00
  0.00000000e+00  0.00000000e+00  0.00000000e+00  0.00000000e+00
  0.00000000e+00  0.00000000e+00  0.00000000e+00  0.00000000e+00
  0.00000000e+00  0.00000000e+00 -8.72259476e-08  2.04336729e-07
  0.00000000e+00  0.00000000e+00  0.00000000e+00  2.60191026e-06]","[[-5.90110923e-05  1.28223845e-04]
 [ 3.45285586e-06 -7.76150761e-04]]",[],0.0,0.0
1787305868.1087728,0.20699881246059212,-1.0277540020227505,-0.012708832489886746,"[ 2.35941494e-06 -8.07168782e-08  0.00000000e+00  0.00000000e+00
  0.00000000e+00 -8.72259476e-08 -8.07168782e-08  1.11806868e-06
  0.00000000e+00  0.00000000e+00  0.00000000e+00  2.04336729e-07
  0.00000000e+00  0.00000000e+00  0.00000000e+00  0.00000000e+00
  0.00000000e+00  0.00000000e+00  0.00000000e+00  0.00000000e+00
  0.00000000e+00  0.00000000e+00  0.00000000e+00  0.00000000e+00
  0.00000000e+00  0.00000000e+00  0.00000000e+00  0.00000000e+00
  0.00000000e+00  0.00000000e+00 -8.72259476e-08  2.04336729e-07
  0.00000000e+00  0.00000000e+00  0.00000000e+00  2.60191026e-06]","[[-5.90110923e-05  1.28223845e-04]
 [ 3.45285586e-06 -7.76150761e-04]]",[],0.0,0.0
1787305868.1159723,0.2006989266341742,-1.0299606608018814,-0.032872734656494096,"[ 2.31278439e-06 -8.65779885e-08  0.00000000e+00  0.00000000e+00
  0.00000000e+00 -8.71237115e-08 -8.65779885e-08  1.05666934e-06
  0.00000000e+00  0.00000000e+00  0.00000000e+00  1.91978814e-07
  0.00000000e+00  0.00000000e+00  0.00000000e+00  0.00000000e+00
  0.00000000e+00  0.00000000e+00  0.00000000e+00  0.00000000e+00
  0.00000000e+00  0.00000000e+00  0.00000000e+00  0.00000000e+00
  0.00000000e+00  0.00000000e+00  0.00000000e+00  0.00000000e+00
  0.00000000e+00  0.00000000e+00 -8.71237115e-08  1.91978814e-07
  0.00000000e+00  0.00000000e+00  0.00000000e+00  2.77141181e-06]","[[-5.78325360e-05  1.16126074e-04]
 [ 3.96200179e-06 -7.28029070e-04]]",[],0.0,0.0
1787305868.795704,0.2006989266341742,-1.0299606608018814,-0.032872734656494096,"[ 2.31278439e-06 -8.65779885e-08  0.00000000e+00  0.00000000e+00
  0.00000000e+00 -8.71237115e-08 -8.65779885e-08  1.05666934e-06
  0.00000000e+00  0.00000000e+00  0.00000000e+00  1.91978814e-07
  0.00000000e+00  0.00000000e+00  0.00000000e+00  0.00000000e+00
  0.00000000e+00  0.00000000e+00  0.00000000e+00  0.00000000e+00
  0.00000000e+00  0.00000000e+00  0.00000000e+00  0.00000000e+00
  0.00000000e+00  0.00000000e+00  0.00000000e+00  0.00000000e+00
  0.00000000e+00  0.00000000e+00 -8.71237115e-08  1.91978814e-07
  0.00000000e+00  0.00000000e+00  0.00000000e+00  2.77141181e-06]","[[-5.78325360e-05  1.16126074e-04]
 [ 3.96200179e-06 -7.28029070e-04]]",[],0.0,0.0
1787305868.8243759,0.19339811207272647,-1.0316743090351777,-0.05064986670988692,"[ 2.26594892e-06 -9.44362155e-08  0.00000000e+00  0.00000000e+00
  0.00000000e+00 -6.43236794e-08 -9.44362155e-08  1.00369524e-06
  0.00000000e+00  0.00000000e+00  0.00000000e+00  1.84365719e-07
  0.00000000e+00  0.00000000e+00  0.00000000e+00  0.00000000e+00
  0.00000000e+00  0.00000000e+00  0.00000000e+00  0.00000000e+00
  0.00000000e+00  0.00000000e+00  0.00000000e+00  0.00000000e+00
  0.00000000e+00  0.00000000e+00  0.00000000e+00  0.00000000e+00
  0.00000000e+00  0.00000000e+00 -6.43236794e-08  1.84365719e-07
  0.00000000e+00  0.00000000e+00  0.00000000e+00  2.82675381e-06]","[[-5.66507106e-05  7.01183316e-05]
 [ 4.41950059e-06 -6.94094274e-04]]",[],0.0,0.0
1787305868.8716362,0.19339811207272647,-1.0316743090351777,-0.05064986670988692,"[ 2.26594892e-06 -9.44362155e-08  0.00000000e+00  0.00000000e+00
  0.00000000e+00 -6.43236794e-08 -9.44362155e-08  1.00369524e-06
  0.00000000e+00  0.00000000e+00  0.00000000e+00  1.84365719e-07
  0.00000000e+00  0.00000000e+00  0.00000000e+00  0.00000000e+00
  0.00000000e+00  0.00000000e+00  0.00000000e+00  0.00000000e+00
  0.00000000e+00  0.00000000e+00  0.00000000e+00  0.00000000e+00
  0.00000000e+00  0.00000000e+00  0.00000000e+00  0.00000000e+00
  0.00000000e+00  0.00000000e+00 -6.43236794e-08  1.84365719e-07
  0.00000000e+00  0.00000000e+00  0.00000000e+00  2.82675381e-06]","[[-5.66507106e-05  7.01183316e-05]
 [ 4.41950059e-06 -6.94094274e-04]]",[],0.0,0.0
1787305868.920248,0.19339811207272647,-1.0316743090351777,-0.05064986670988692,"[ 2.26594892e-06 -9.44362155e-08  0.00000000e+00  0.00000000e+00
  0.00000000e+00 -6.43236794e-08 -9.44362155e-08  1.00369524e-06
  0.00000000e+00  0.00000000e+00  0.00000000e+00  1.84365719e-07
  0.00000000e+00  0.00000000e+00  0.00000000e+00  0.00000000e+00
  0.00000000e+00  0.00000000e+00  0.00000000e+00  0.00000000e+00
  0.00000000e+00  0.00000000e+00  0.00000000e+00  0.00000000e+00
  0.00000000e+00  0.00000000e+00  0.00000000e+00  0.00000000e+00
  0.00000000e+00  0.00000000e+00 -6.43236794e-08  1.84365719e-07
  0.00000000e+00  0.00000000e+00  0.00000000e+00  2.82675381e-06]","[[-5.66507106e-05  7.01183316e-05]
 [ 4.41950059e-06 -6.94094274e-04]]",[],0.0,0.0
1787305868.9732351,0.19339811207272647,-1.0316743090351777,-0.05064986670988692,"[ 2.26594892e-06 -9.44362155e-08  0.00000000e+00  0.00000000e+00
  0.00000000e+00 -6.43236794e-08 -9.44362155e-08  1.00369524e-06
  0.00000000e+00  0.00000000e+00  0.00000000e+00  1.84365719e-07
  0.00000000e+00  0.00000000e+00  0.00000000e+00  0.00000000e+00
  0.00000000e+00  0.00000000e+00  0.00000000e+00  0.00000000e+00
  0.00000000e+00  0.00000000e+00  0.00000000e+00  0.00000000e+00
  0.00000000e+00  0.00000000e+00  0.00000000e+00  0.00000000e+00
  0.00000000e+00  0.00000000e+00 -6.43236794e-08  1.84365719e-07
  0.00000000e+00  0.00000000e+00  0.00000000e+00  2.82675381e-06]","[[-5.66507106e-05  7.01183316e-05]
 [ 4.41950059e-06 -6.94094274e-04]]",[],0.0,0.0
1787305869.0165343,0.19339811207272647,-1.0316743090351777,-0.05064986670988692,"[ 2.26594892e-06 -9.44362155e-08  0.00000000e+00  0.00000000e+00
  0.00000000e+00 -6.43236794e-08 -9.44362155e-08  1.00369524e-06
  0.00000000e+00  0.00000000e+00  0.00000000e+00  1.84365719e-07
  0.00000000e+00  0.00000000e+00  0.00000000e+00  0.00000000e+00
  0.00000000e+00  0.00000000e+00  0.00000000e+00  0.00000000e+00
  0.00000000e+00  0.00000000e+00  0.00000000e+00  0.00000000e+00
  0.00000000e+00  0.00000000e+00  0.00000000e+00  0.00000000e+00
  0.00000000e+00  0.00000000e+00 -6.43236794e-08  1.84365719e-07
  0.00000000e+00  0.00000000e+00  0.00000000e+00  2.82675381e-06]","[[-5.66507106e-05  7.01183316e-05]
 [ 4.41950059e-06 -6.94094274e-04]]",[],0.0,0.0
1787305869.0665896,0.19339811207272647,-1.0316743090351777,-0.05064986670988692,"[ 2.26594892e-06 -9.44362155e-08  0.00000000e+00  0.00000000e+00
  0.00000000e+00 -6.43236794e-08 -9.44362155e-08  1.00369524e-06
  0.00000000e+00  0.00000000e+00  0.00000000e+00  1.84365719e-07
  0.00000000e+00  0.00000000e+00  0.00000000e+00  0.00000000e+00
  0.00000000e+00  0.00000000e+00  0.00000000e+00  0.00000000e+00
  0.00000000e+00  0.00000000e+00  0.00000000e+00  0.00000000e+00
  0.00000000e+00  0.00000000e+00  0.00000000e+00  0.00000000e+00
  0.00000000e+00  0.00000000e+00 -6.43236794e-08  1.84365719e-07
  0.00000000e+00  0.00000000e+00  0.00000000e+00  2.82675381e-06]","[[-5.66507106e-05  7.01183316e-05]
 [ 4.41950059e-06 -6.94094274e-04]]",[],0.0,0.0
1787305869.124262,0.19339811207272647,-1.0316743090351777,-0.05064986670988692,"[ 2.26594892e-06 -9.44362155e-08  0.00000000e+00  0.00000000e+00
  0.00000000e+00 -6.43236794e-08 -9.44362155e-08  1.00369524e-06
  0.00000000e+00  0.00000000e+00  0.00000000e+00  1.84365719e-07
  0.00000000e+00  0.00000000e+00  0.00000000e+00  0.00000000e+00
  0.00000000e+00  0.00000000e+00  0.00000000e+00  0.00000000e+00
  0.00000000e+00  0.00000000e+00  0.00000000e+00  0.00000000e+00
  0.00000000e+00  0.00000000e+00  0.00000000e+00  0.00000000e+00
  0.00000000e+00  0.00000000e+00 -6.43236794e-08  1.84365719e-07
  0.00000000e+00  0.00000000e+00  0.00000000e+00  2.82675381e-06]","[[-5.66507106e-05  7.01183316e-05]
 [ 4.41950059e-06 -6.94094274e-04]]",[],0.0,0.0
1787305869.1767008,0.19339811207272647,-1.0316743090351777,-0.05064986670988692,"[ 2.26594892e-06 -9.44362155e-08  0.00000000e+00  0.00000000e+00
  0.00000000e+00 -6.43236794e-08 -9.44362155e-08  1.00369524e-06
  0.00000000e+00  0.00000000e+00  0.00000000e+00  1.84365719e-07
  0.00000000e+00  0.00000000e+00  0.00000000e+00  0.00000000e+00
  0.00000000e+00  0.00000000e+00  0.00000000e+00  0.00000000e+00
  0.00000000e+00  0.00000000e+00  0.00000000e+00  0.00000000e+00
  0.00000000e+00  0.00000000e+00  0.00000000e+00  0.00000000e+00
  0.00000000e+00  0.00000000e+00 -6.43236794e-08  1.84365719e-07
  0.00000000e+00  0.00000000e+00  0.00000000e+00  2.82675381e-06]","[[-5.66507106e-05  7.01183316e-05]
 [ 4.41950059e-06 -6.94094274e-04]]",[],0.0,0.0
1787305869.2195501,0.19339811207272647,-1.0316743090351777,-0.05064986670988692,"[ 2.26594892e-06 -9.44362155e-08  0.00000000e+00  0.00000000e+00
  0.00000000e+00 -6.43236794e-08 -9.44362155e-08  1.00369524e-06
  0.00000000e+00  0.00000000e+00  0.00000000e+00  1.84365719e-07
  0.00000000e+00  0.00000000e+00  0.00000000e+00  0.00000000e+00
  0.00000000e+00  0.00000000e+00  0.00000000e+00  0.00000000e+00
  0.00000000e+00  0.00000000e+00  0.00000000e+00  0.00000000e+00
  0.00000000e+00  0.00000000e+00  0.00000000e+00  0.00000000e+00
  0.00000000e+00  0.00000000e+00 -6.43236794e-08  1.84365719e-07
  0.00000000e+00  0.00000000e+00  0.00000000e+00  2.82675381e-06]","[[-5.66507106e-05  7.01183316e-05]
 [ 4.41950059e-06 -6.94094274e-04]]",[],0.0,0.0
1787305869.279158,0.19339811207272647,-1.0316743090351777,-0.05064986670988692,"[ 2.26594892e-06 -9.44362155e-08  0.00000000e+00  0.00000000e+00
  0.00000000e+00 -6.43236794e-08 -9.44362155e-08  1.00369524e-06
  0.00000000e+00  0.00000000e+00  0.00000000e+00  1.84365719e-07
  0.00000000e+00  0.00000000e+00  0.00000000e+00  0.00000000e+00
  0.00000000e+00  0.00000000e+00  0.00000000e+00  0.00000000e+00
  0.00000000e+00  0.00000000e+00  0.00000000e+00  0.00000000e+00
  0.00000000e+00  0.00000000e+00  0.00000000e+00  0.00000000e+00
  0.00000000e+00  0.00000000e+00 -6.43236794e-08  1.84365719e-07
  0.00000000e+00  0.00000000e+00  0.00000000e+00  2.82675381e-06]","[[-5.66507106e-05  7.01183316e-05]
 [ 4.41950059e-06 -6.94094274e-04]]",[],0.0,0.0
1787305869.3169818,0.19339811207272647,-1.0316743090351777,-0.05064986670988692,"[ 2.26594892e-06 -9.44362155e-08  0.00000000e+00  0.00000000e+00
  0.00000000e+00 -6.43236794e-08 -9.44362155e-08  1.00369524e-06
  0.00000000e+00  0.00000000e+00  0.00000000e+00  1.84365719e-07
  0.00000000e+00  0.00000000e+00  0.00000000e+00  0.00000000e+00
  0.00000000e+00  0.00000000e+00  0.00000000e+00  0.00000000e+00
  0.00000000e+00  0.00000000e+00  0.00000000e+00  0.00000000e+00
  0.00000000e+00  0.00000000e+00  0.00000000e+00  0.00000000e+00
  0.00000000e+00  0.00000000e+00 -6.43236794e-08  1.84365719e-07
  0.00000000e+00  0.00000000e+00  0.00000000e+00  2.82675381e-06]","[[-5.66507106e-05  7.01183316e-05]
 [ 4.41950059e-06 -6.94094274e-04]]",[],0.0,0.0
1787305869.367215,0.19339811207272647,-1.0316743090351777,-0.05064986670988692,"[ 2.26594892e-06 -9.44362155e-08  0.00000000e+00  0.00000000e+00
  0.00000000e+00 -6.43236794e-08 -9.44362155e-08  1.00369524e-06
  0.00000000e+00  0.00000000e+00  0.00000000e+00  1.84365719e-07
  0.00000000e+00  0.00000000e+00  0.00000000e+00  0.00000000e+00
  0.00000000e+00  0.00000000e+00  0.00000000e+00  0.00000000e+00
  0.00000000e+00  0.00000000e+00  0.00000000e+00  0.00000000e+00
  0.00000000e+00  0.00000000e+00  0.00000000e+00  0.00000000e+00
  0.00000000e+00  0.00000000e+00 -6.43236794e-08  1.84365719e-07
  0.00000000e+00  0.00000000e+00  0.00000000e+00  2.82675381e-06]","[[-5.66507106e-05  7.01183316e-05]
 [ 4.41950059e-06 -6.94094274e-04]]",[],0.0,0.0
1787305869.417258,0.19339811207272647,-1.0316743090351777,-0.05064986670988692,"[ 2.26594892e-06 -9.44362155e-08  0.00000000e+00  0.00000000e+00
  0.00000000e+00 -6.43236794e-08 -9.44362155e-08  1.00369524e-06
  0.00000000e+00  0.00000000e+00  0.00000000e+00  1.84365719e-07
  0.00000000e+00  0.00000000e+00  0.00000000e+00  0.00000000e+00
  0.00000000e+00  0.00000000e+00  0.00000000e+00  0.00000000e+00
  0.00000000e+00  0.00000000e+00  0.00000000e+00  0.00000000e+00
  0.00000000e+00  0.00000000e+00  0.00000000e+00  0.00000000e+00
  0.00000000e+00  0.00000000e+00 -6.43236794e-08  1.84365719e-07
  0.00000000e+00  0.00000000e+00  0.00000000e+00  2.82675381e-06]","[[-5.66507106e-05  7.01183316e-05]
 [ 4.41950059e-06 -6.94094274e-04]]",[],0.0,0.0
1787305869.4664695,0.19339811207272647,-1.0316743090351777,-0.05064986670988692,"[ 2.26594892e-06 -9.44362155e-08  0.00000000e+00  0.00000000e+00
  0.00000000e+00 -6.43236794e-08 -9.44362155e-08  1.00369524e-06
  0.00000000e+00  0.00000000e+00  0.00000000e+00  1.84365719e-07
  0.00000000e+00  0.00000000e+00  0.00000000e+00  0.00000000e+00
  0.00000000e+00  0.00000000e+00  0.00000000e+00  0.00000000e+00
  0.00000000e+00  0.00000000e+00  0.00000000e+00  0.00000000e+00
  0.00000000e+00  0.00000000e+00  0.00000000e+00  0.00000000e+00
  0.00000000e+00  0.00000000e+00 -6.43236794e-08  1.84365719e-07
  0.00000000e+00  0.00000000e+00  0.00000000e+00  2.82675381e-06]","[[-5.66507106e-05  7.01183316e-05]
 [ 4.41950059e-06 -6.94094274e-04]]",[],0.0,0.0
1787305869.5216637,0.19339811207272647,-1.0316743090351777,-0.05064986670988692,"[ 2.26594892e-06 -9.44362155e-08  0.00000000e+00  0.00000000e+00
  0.00000000e+00 -6.43236794e-08 -9.44362155e-08  1.00369524e-06
  0.00000000e+00  0.00000000e+00  0.00000000e+00  1.84365719e-07
  0.00000000e+00  0.00000000e+00  0.00000000e+00  0.00000000e+00
  0.00000000e+00  0.00000000e+00  0.00000000e+00  0.00000000e+00
  0.00000000e+00  0.00000000e+00  0.00000000e+00  0.00000000e+00
  0.00000000e+00  0.00000000e+00  0.00000000e+00  0.00000000e+00
  0.00000000e+00  0.00000000e+00 -6.43236794e-08  1.84365719e-07
  0.00000000e+00  0.00000000e+00  0.00000000e+00  2.82675381e-06]","[[-5.66507106e-05  7.01183316e-05]
 [ 4.41950059e-06 -6.94094274e-04]]",[],0.0,0.0
1787305869.5674286,0.19339811207272647,-1.0316743090351777,-0.05064986670988692,"[ 2.26594892e-06 -9.44362155e-08  0.00000000e+00  0.00000000e+00
  0.00000000e+00 -6.43236794e-08 -9.44362155e-08  1.00369524e-06
  0.00000000e+00  0.00000000e+00  0.00000000e+00  1.84365719e-07
  0.00000000e+00  0.00000000e+00  0.00000000e+00  0.00000000e+00
  0.00000000e+00  0.00000000e+00  0.00000000e+00  0.00000000e+00
  0.00000000e+00  0.00000000e+00  0.00000000e+00  0.00000000e+00
  0.00000000e+00  0.00000000e+00  0.00000000e+00  0.00000000e+00
  0.00000000e+00  0.00000000e+00 -6.43236794e-08  1.84365719e-07
  0.00000000e+00  0.00000000e+00  0.00000000e+00  2.82675381e-06]","[[-5.66507106e-05  7.01183316e-05]
 [ 4.41950059e-06 -6.94094274e-04]]",[],0.0,0.0
1787305869.6227624,0.19339811207272647,-1.0316743090351777,-0.05064986670988692,"[ 2.26594892e-06 -9.44362155e-08  0.00000000e+00  0.00000000e+00
  0.00000000e+00 -6.43236794e-08 -9.44362155e-08  1.00369524e-06
  0.00000000e+00  0.00000000e+00  0.00000000e+00  1.84365719e-07
  0.00000000e+00  0.00000000e+00  0.00000000e+00  0.00000000e+00
  0.00000000e+00  0.00000000e+00  0.00000000e+00  0.00000000e+00
  0.00000000e+00  0.00000000e+00  0.00000000e+00  0.00000000e+00
  0.00000000e+00  0.00000000e+00  0.00000000e+00  0.00000000e+00
  0.00000000e+00  0.00000000e+00 -6.43236794e-08  1.84365719e-07
  0.00000000e+00  0.00000000e+00  0.00000000e+00  2.82675381e-06]","[[-5.66507106e-05  7.01183316e-05]
 [ 4.41950059e-06 -6.94094274e-04]]",[],0.0,0.0
1787305869.6690392,0.1861750518431448,-1.0328844430376518,-0.06611401666472848,"[ 2.30678580e-06 -1.06525730e-07  0.00000000e+00  0.00000000e+00
  0.00000000e+00 -9.30315562e-08 -1.06525730e-07  9.56840166e-07
  0.00000000e+00  0.00000000e+00  0.00000000e+00  1.71830603e-07
  0.00000000e+00  0.00000000e+00  0.00000000e+00  0.00000000e+00
  0.00000000e+00  0.00000000e+00  0.00000000e+00  0.00000000e+00
  0.00000000e+00  0.00000000e+00  0.00000000e+00  0.00000000e+00
  0.00000000e+00  0.00000000e+00  0.00000000e+00  0.00000000e+00
  0.00000000e+00  0.00000000e+00 -9.30315562e-08  1.71830603e-07
  0.00000000e+00  0.00000000e+00  0.00000000e+00  2.99903653e-06]","[[-5.76481951e-05  1.05365597e-04]
 [ 5.03197606e-06 -6.53347821e-04]]",[],0.0,0.0
1787305870.305378,0.1861750518431448,-1.0328844430376518,-0.06611401666472848,"[ 2.30678580e-06 -1.06525730e-07  0.00000000e+00  0.00000000e+00
  0.00000000e+00 -9.30315562e-08 -1.06525730e-07  9.56840166e-07
  0.00000000e+00  0.00000000e+00  0.00000000e+00  1.71830603e-07
  0.00000000e+00  0.00000000e+00  0.00000000e+00  0.00000000e+00
  0.00000000e+00  0.00000000e+00  0.00000000e+00  0.00000000e+00
  0.00000000e+00  0.00000000e+00  0.00000000e+00  0.00000000e+00
  0.00000000e+00  0.00000000e+00  0.00000000e+00  0.00000000e+00
  0.00000000e+00  0.00000000e+00 -9.30315562e-08  1.71830603e-07
  0.00000000e+00  0.00000000e+00  0.00000000e+00  2.99903653e-06]","[[-5.76481951e-05  1.05365597e-04]
 [ 5.03197606e-06 -6.53347821e-04]]",[],0.0,0.0
1787305870.316774,0.1861750518431448,-1.0328844430376518,-0.06611401666472848,"[ 2.30678580e-06 -1.06525730e-07  0.00000000e+00  0.00000000e+00
  0.00000000e+00 -9.30315562e-08 -1.06525730e-07  9.56840166e-07
  0.00000000e+00  0.00000000e+00  0.00000000e+00  1.71830603e-07
  0.00000000e+00  0.00000000e+00  0.00000000e+00  0.00000000e+00
  0.00000000e+00  0.00000000e+00  0.00000000e+00  0.00000000e+00
  0.00000000e+00  0.00000000e+00  0.00000000e+00  0.00000000e+00
  0.00000000e+00  0.00000000e+00  0.00000000e+00  0.00000000e+00
  0.00000000e+00  0.00000000e+00 -9.30315562e-08  1.71830603e-07
  0.00000000e+00  0.00000000e+00  0.00000000e+00  2.99903653e-06]","[[-5.76481951e-05  1.05365597e-04]
 [ 5.03197606e-06 -6.53347821e-04]]",[],0.0,0.0
1787305870.4431944,0.18091531278599238,-1.0339033620175822,-0.07693202078589012,"[ 2.24964461e-06 -1.15373827e-07  0.00000000e+00  0.00000000e+00
  0.00000000e+00 -8.69279357e-08 -1.15373827e-07  9.13950258e-07
  0.00000000e+00  0.00000000e+00  0.00000000e+00  1.67868680e-07
  0.00000000e+00  0.00000000e+00  0.00000000e+00  0.00000000e+00
  0.00000000e+00  0.00000000e+00  0.00000000e+00  0.00000000e+00
  0.00000000e+00  0.00000000e+00  0.00000000e+00  0.00000000e+00
  0.00000000e+00  0.00000000e+00  0.00000000e+00  0.00000000e+00
  0.00000000e+00  0.00000000e+00 -8.69279357e-08  1.67868680e-07
  0.00000000e+00  0.00000000e+00  0.00000000e+00  2.74126421e-06]","[[-5.61111710e-05  6.88563980e-05]
 [ 5.96344467e-06 -6.25774645e-04]]",[],0.0,0.0
1787305870.952129,0.18091531278599238,-1.0339033620175822,-0.07693202078589012,"[ 2.24964461e-06 -1.15373827e-07  0.00000000e+00  0.00000000e+00
  0.00000000e+00 -8.69279357e-08 -1.15373827e-07  9.13950258e-07
  0.00000000e+00  0.00000000e+00  0.00000000e+00  1.67868680e-07
  0.00000000e+00  0.00000000e+00  0.00000000e+00  0.00000000e+00
  0.00000000e+00  0.00000000e+00  0.00000000e+00  0.00000000e+00
  0.00000000e+00  0.00000000e+00  0.00000000e+00  0.00000000e+00
  0.00000000e+00  0.00000000e+00  0.00000000e+00  0.00000000e+00
  0.00000000e+00  0.00000000e+00 -8.69279357e-08  1.67868680e-07
  0.00000000e+00  0.00000000e+00  0.00000000e+00  2.74126421e-06]","[[-5.61111710e-05  6.88563980e-05]
 [ 5.96344467e-06 -6.25774645e-04]]",[],0.0,0.0
1787305871.7388988,0.17559966087740067,-1.0347072126223078,-0.08833005454293108,"[ 2.19563361e-06 -1.23854811e-07  0.00000000e+00  0.00000000e+00
  0.00000000e+00 -8.96731118e-08 -1.23854811e-07  8.75829526e-07
  0.00000000e+00  0.00000000e+00  0.00000000e+00  1.56421735e-07
  0.00000000e+00  0.00000000e+00  0.00000000e+00  0.00000000e+00
  0.00000000e+00  0.00000000e+00  0.00000000e+00  0.00000000e+00
  0.00000000e+00  0.00000000e+00  0.00000000e+00  0.00000000e+00
  0.00000000e+00  0.00000000e+00  0.00000000e+00  0.00000000e+00
  0.00000000e+00  0.00000000e+00 -8.96731118e-08  1.56421735e-07
  0.00000000e+00  0.00000000e+00  0.00000000e+00  2.78265834e-06]","[[-5.49377980e-05  1.15351780e-04]
 [ 5.15171490e-06 -5.95540761e-04]]",[],0.0,0.0
1787305872.4208355,0.17059017226446227,-1.035436677996948,-0.09127857485659918,"[ 2.20916952e-06 -1.39362846e-07  0.00000000e+00  0.00000000e+00
  0.00000000e+00 -1.04867771e-07 -1.39362846e-07  8.41571425e-07
  0.00000000e+00  0.00000000e+00  0.00000000e+00  1.52077801e-07
  0.00000000e+00  0.00000000e+00  0.00000000e+00  0.00000000e+00
  0.00000000e+00  0.00000000e+00  0.00000000e+00  0.00000000e+00
  0.00000000e+00  0.00000000e+00  0.00000000e+00  0.00000000e+00
  0.00000000e+00  0.00000000e+00  0.00000000e+00  0.00000000e+00
  0.00000000e+00  0.00000000e+00 -1.04867771e-07  1.52077801e-07
  0.00000000e+00  0.00000000e+00  0.00000000e+00  2.85978497e-06]","[[-5.50256756e-05  8.11676329e-05]
 [ 6.98260357e-06 -5.67740942e-04]]",[],0.0,0.0
1787305872.7893229,0.16666491126929542,-1.0359151593728813,-0.10107977682662117,"[ 2.18417799e-06 -1.49856546e-07  0.00000000e+00  0.00000000e+00
  0.00000000e+00 -8.63304788e-08 -1.49856546e-07  8.09991769e-07
  0.00000000e+00  0.00000000e+00  0.00000000e+00  1.38310437e-07
  0.00000000e+00  0.00000000e+00  0.00000000e+00  0.00000000e+00
  0.00000000e+00  0.00000000e+00  0.00000000e+00  0.00000000e+00
  0.00000000e+00  0.00000000e+00  0.00000000e+00  0.00000000e+00
  0.00000000e+00  0.00000000e+00  0.00000000e+00  0.00000000e+00
  0.00000000e+00  0.00000000e+00 -8.63304788e-08  1.38310437e-07
  0.00000000e+00  0.00000000e+00  0.00000000e+00  2.87111224e-06]","[[-5.45837959e-05  7.94449820e-05]
 [ 6.58063237e-06 -5.35014520e-04]]",[],0.0,0.0
1787305872.8730621,0.16666491126929542,-1.0359151593728813,-0.10107977682662117,"[ 2.18417799e-06 -1.49856546e-07  0.00000000e+00  0.00000000e+00
  0.00000000e+00 -8.63304788e-08 -1.49856546e-07  8.09991769e-07
  0.00000000e+00  0.00000000e+00  0.00000000e+00  1.38310437e-07
  0.00000000e+00  0.00000000e+00  0.00000000e+00  0.00000000e+00
  0.00000000e+00  0.00000000e+00  0.00000000e+00  0.00000000e+00
  0.00000000e+00  0.00000000e+00  0.00000000e+00  0.00000000e+00
  0.00000000e+00  0.00000000e+00  0.00000000e+00  0.00000000e+00
  0.00000000e+00  0.00000000e+00 -8.63304788e-08  1.38310437e-07
  0.00000000e+00  0.00000000e+00  0.00000000e+00  2.87111224e-06]","[[-5.45837959e-05  7.94449820e-05]
 [ 6.58063237e-06 -5.35014520e-04]]",[],0.0,0.0
1787305873.1260347,0.16666491126929542,-1.0359151593728813,-0.10107977682662117,"[ 2.18417799e-06 -1.49856546e-07  0.00000000e+00  0.00000000e+00
  0.00000000e+00 -8.63304788e-08 -1.49856546e-07  8.09991769e-07
  0.00000000e+00  0.00000000e+00  0.00000000e+00  1.38310437e-07
  0.00000000e+00  0.00000000e+00  0.00000000e+00  0.00000000e+00
  0.00000000e+00  0.00000000e+00  0.00000000e+00  0.00000000e+00
  0.00000000e+00  0.00000000e+00  0.00000000e+00  0.00000000e+00
  0.00000000e+00  0.00000000e+00  0.00000000e+00  0.00000000e+00
  0.00000000e+00  0.00000000e+00 -8.63304788e-08  1.38310437e-07
  0.00000000e+00  0.00000000e+00  0.00000000e+00  2.87111224e-06]","[[-5.45837959e-05  7.94449820e-05]
 [ 6.58063237e-06 -5.35014520e-04]]",[],0.0,0.0
1787305873.1690452,0.16326946407431578,-1.0362780574738963,-0.10819863327057977,"[ 2.16105963e-06 -1.60024184e-07  0.00000000e+00  0.00000000e+00
  0.00000000e+00 -7.20412135e-08 -1.60024184e-07  7.79690058e-07
  0.00000000e+00  0.00000000e+00  0.00000000e+00  1.44383218e-07
  0.00000000e+00  0.00000000e+00  0.00000000e+00  0.00000000e+00
  0.00000000e+00  0.00000000e+00  0.00000000e+00  0.00000000e+00
  0.00000000e+00  0.00000000e+00  0.00000000e+00  0.00000000e+00
  0.00000000e+00  0.00000000e+00  0.00000000e+00  0.00000000e+00
  0.00000000e+00  0.00000000e+00 -7.20412135e-08  1.44383218e-07
  0.00000000e+00  0.00000000e+00  0.00000000e+00  2.76219108e-06]","[[-5.39305650e-05  3.87502139e-05]
 [ 7.21897908e-06 -5.29197980e-04]]",[],0.0,0.0
1787305873.2185397,0.16326946407431578,-1.0362780574738963,-0.10819863327057977,"[ 2.16105963e-06 -1.60024184e-07  0.00000000e+00  0.00000000e+00
  0.00000000e+00 -7.20412135e-08 -1.60024184e-07  7.79690058e-07
  0.00000000e+00  0.00000000e+00  0.00000000e+00  1.44383218e-07
  0.00000000e+00  0.00000000e+00  0.00000000e+00  0.00000000e+00
  0.00000000e+00  0.00000000e+00  0.00000000e+00  0.00000000e+00
  0.00000000e+00  0.00000000e+00  0.00000000e+00  0.00000000e+00
  0.00000000e+00  0.00000000e+00  0.00000000e+00  0.00000000e+00
  0.00000000e+00  0.00000000e+00 -7.20412135e-08  1.44383218e-07
  0.00000000e+00  0.00000000e+00  0.00000000e+00  2.76219108e-06]","[[-5.39305650e-05  3.87502139e-05]
 [ 7.21897908e-06 -5.29197980e-04]]",[],0.0,0.0
1787305873.2686074,0.16326946407431578,-1.0362780574738963,-0.10819863327057977,"[ 2.16105963e-06 -1.60024184e-07  0.00000000e+00  0.00000000e+00
  0.00000000e+00 -7.20412135e-08 -1.60024184e-07  7.79690058e-07
  0.00000000e+00  0.00000000e+00  0.00000000e+00  1.44383218e-07
  0.00000000e+00  0.00000000e+00  0.00000000e+00  0.00000000e+00
  0.00000000e+00  0.00000000e+00  0.00000000e+00  0.00000000e+00
  0.00000000e+00  0.00000000e+00  0.00000000e+00  0.00000000e+00
  0.00000000e+00  0.00000000e+00  0.00000000e+00  0.00000000e+00
  0.00000000e+00  0.00000000e+00 -7.20412135e-08  1.44383218e-07
  0.00000000e+00  0.00000000e+00  0.00000000e+00  2.76219108e-06]","[[-5.39305650e-05  3.87502139e-05]
 [ 7.21897908e-06 -5.29197980e-04]]",[],0.0,0.0
1787305873.31735,0.16326946407431578,-1.0362780574738963,-0.10819863327057977,"[ 2.16105963e-06 -1.60024184e-07  0.00000000e+00  0.00000000e+00
  0.00000000e+00 -7.20412135e-08 -1.60024184e-07  7.79690058e-07
  0.00000000e+00  0.00000000e+00  0.00000000e+00  1.44383218e-07
  0.00000000e+00  0.00000000e+00  0.00000000e+00  0.00000000e+00
  0.00000000e+00  0.00000000e+00  0.00000000e+00  0.00000000e+00
  0.00000000e+00  0.00000000e+00  0.00000000e+00  0.00000000e+00
  0.00000000e+00  0.00000000e+00  0.00000000e+00  0.00000000e+00
  0.00000000e+00  0.00000000e+00 -7.20412135e-08  1.44383218e-07
  0.00000000e+00  0.00000000e+00  0.00000000e+00  2.76219108e-06]","[[-5.39305650e-05  3.87502139e-05]
 [ 7.21897908e-06 -5.29197980e-04]]",[],0.0,0.0
1787305873.368705,0.16326946407431578,-1.0362780574738963,-0.10819863327057977,"[ 2.16105963e-06 -1.60024184e-07  0.00000000e+00  0.00000000e+00
  0.00000000e+00 -7.20412135e-08 -1.60024184e-07  7.79690058e-07
  0.00000000e+00  0.00000000e+00  0.00000000e+00  1.44383218e-07
  0.00000000e+00  0.00000000e+00  0.00000000e+00  0.00000000e+00
  0.00000000e+00  0.00000000e+00  0.00000000e+00  0.00000000e+00
  0.00000000e+00  0.00000000e+00  0.00000000e+00  0.00000000e+00
  0.00000000e+00  0.00000000e+00  0.00000000e+00  0.00000000e+00
  0.00000000e+00  0.00000000e+00 -7.20412135e-08  1.44383218e-07
  0.00000000e+00  0.00000000e+00  0.00000000e+00  2.76219108e-06]","[[-5.39305650e-05  3.87502139e-05]
 [ 7.21897908e-06 -5.29197980e-04]]",[],0.0,0.0
1787305873.418036,0.16326946407431578,-1.0362780574738963,-0.10819863327057977,"[ 2.16105963e-06 -1.60024184e-07  0.00000000e+00  0.00000000e+00
  0.00000000e+00 -7.20412135e-08 -1.60024184e-07  7.79690058e-07
  0.00000000e+00  0.00000000e+00  0.00000000e+00  1.44383218e-07
  0.00000000e+00  0.00000000e+00  0.00000000e+00  0.00000000e+00
  0.00000000e+00  0.00000000e+00  0.00000000e+00  0.00000000e+00
  0.00000000e+00  0.00000000e+00  0.00000000e+00  0.00000000e+00
  0.00000000e+00  0.00000000e+00  0.00000000e+00  0.00000000e+00
  0.00000000e+00  0.00000000e+00 -7.20412135e-08  1.44383218e-07
  0.00000000e+00  0.00000000e+00  0.00000000e+00  2.76219108e-06]","[[-5.39305650e-05  3.87502139e-05]
 [ 7.21897908e-06 -5.29197980e-04]]",[],0.0,0.0
1787305873.466981,0.16326946407431578,-1.0362780574738963,-0.10819863327057977,"[ 2.16105963e-06 -1.60024184e-07  0.00000000e+00  0.00000000e+00
  0.00000000e+00 -7.20412135e-08 -1.60024184e-07  7.79690058e-07
  0.00000000e+00  0.00000000e+00  0.00000000e+00  1.44383218e-07
  0.00000000e+00  0.00000000e+00  0.00000000e+00  0.00000000e+00
  0.00000000e+00  0.00000000e+00  0.00000000e+00  0.00000000e+00
  0.00000000e+00  0.00000000e+00  0.00000000e+00  0.00000000e+00
  0.00000000e+00  0.00000000e+00  0.00000000e+00  0.00000000e+00
  0.00000000e+00  0.00000000e+00 -7.20412135e-08  1.44383218e-07
  0.00000000e+00  0.00000000e+00  0.00000000e+00  2.76219108e-06]","[[-5.39305650e-05  3.87502139e-05]
 [ 7.21897908e-06 -5.29197980e-04]]",[],0.0,0.0
1787305873.5259082,0.16326946407431578,-1.0362780574738963,-0.10819863327057977,"[ 2.16105963e-06 -1.60024184e-07  0.00000000e+00  0.00000000e+00
  0.00000000e+00 -7.20412135e-08 -1.60024184e-07  7.79690058e-07
  0.00000000e+00  0.00000000e+00  0.00000000e+00  1.44383218e-07
  0.00000000e+00  0.00000000e+00  0.00000000e+00  0.00000000e+00
  0.00000000e+00  0.00000000e+00  0.00000000e+00  0.00000000e+00
  0.00000000e+00  0.00000000e+00  0.00000000e+00  0.00000000e+00
  0.00000000e+00  0.00000000e+00  0.00000000e+00  0.00000000e+00
  0.00000000e+00  0.00000000e+00 -7.20412135e-08  1.44383218e-07
  0.00000000e+00  0.00000000e+00  0.00000000e+00  2.76219108e-06]","[[-5.39305650e-05  3.87502139e-05]
 [ 7.21897908e-06 -5.29197980e-04]]",[],0.0,0.0
1787305873.5760279,0.16326946407431578,-1.0362780574738963,-0.10819863327057977,"[ 2.16105963e-06 -1.60024184e-07  0.00000000e+00  0.00000000e+00
  0.00000000e+00 -7.20412135e-08 -1.60024184e-07  7.79690058e-07
  0.00000000e+00  0.00000000e+00  0.00000000e+00  1.44383218e-07
  0.00000000e+00  0.00000000e+00  0.00000000e+00  0.00000000e+00
  0.00000000e+00  0.00000000e+00  0.00000000e+00  0.00000000e+00
  0.00000000e+00  0.00000000e+00  0.00000000e+00  0.00000000e+00
  0.00000000e+00  0.00000000e+00  0.00000000e+00  0.00000000e+00
  0.00000000e+00  0.00000000e+00 -7.20412135e-08  1.44383218e-07
  0.00000000e+00  0.00000000e+00  0.00000000e+00  2.76219108e-06]","[[-5.39305650e-05  3.87502139e-05]
 [ 7.21897908e-06 -5.29197980e-04]]",[],0.0,0.0
1787305873.6299396,0.16326946407431578,-1.0362780574738963,-0.10819863327057977,"[ 2.16105963e-06 -1.60024184e-07  0.00000000e+00  0.00000000e+00
  0.00000000e+00 -7.20412135e-08 -1.60024184e-07  7.79690058e-07
  0.00000000e+00  0.00000000e+00  0.00000000e+00  1.44383218e-07
  0.00000000e+00  0.00000000e+00  0.00000000e+00  0.00000000e+00
  0.00000000e+00  0.00000000e+00  0.00000000e+00  0.00000000e+00
  0.00000000e+00  0.00000000e+00  0.00000000e+00  0.00000000e+00
  0.00000000e+00  0.00000000e+00  0.00000000e+00  0.00000000e+00
  0.00000000e+00  0.00000000e+00 -7.20412135e-08  1.44383218e-07
  0.00000000e+00  0.00000000e+00  0.00000000e+00  2.76219108e-06]","[[-5.39305650e-05  3.87502139e-05]
 [ 7.21897908e-06 -5.29197980e-04]]",[],0.0,0.0
1787305873.667222,0.16326946407431578,-1.0362780574738963,-0.10819863327057977,"[ 2.16105963e-06 -1.60024184e-07  0.00000000e+00  0.00000000e+00
  0.00000000e+00 -7.20412135e-08 -1.60024184e-07  7.79690058e-07
  0.00000000e+00  0.00000000e+00  0.00000000e+00  1.44383218e-07
  0.00000000e+00  0.00000000e+00  0.00000000e+00  0.00000000e+00
  0.00000000e+00  0.00000000e+00  0.00000000e+00  0.00000000e+00
  0.00000000e+00  0.00000000e+00  0.00000000e+00  0.00000000e+00
  0.00000000e+00  0.00000000e+00  0.00000000e+00  0.00000000e+00
  0.00000000e+00  0.00000000e+00 -7.20412135e-08  1.44383218e-07
  0.00000000e+00  0.00000000e+00  0.00000000e+00  2.76219108e-06]","[[-5.39305650e-05  3.87502139e-05]
 [ 7.21897908e-06 -5.29197980e-04]]",[],0.0,0.0
1787305873.7279286,0.16326946407431578,-1.0362780574738963,-0.10819863327057977,"[ 2.16105963e-06 -1.60024184e-07  0.00000000e+00  0.00000000e+00
  0.00000000e+00 -7.20412135e-08 -1.60024184e-07  7.79690058e-07
  0.00000000e+00  0.00000000e+00  0.00000000e+00  1.44383218e-07
  0.00000000e+00  0.00000000e+00  0.00000000e+00  0.00000000e+00
  0.00000000e+00  0.00000000e+00  0.00000000e+00  0.00000000e+00
  0.00000000e+00  0.00000000e+00  0.00000000e+00  0.00000000e+00
  0.00000000e+00  0.00000000e+00  0.00000000e+00  0.00000000e+00
  0.00000000e+00  0.00000000e+00 -7.20412135e-08  1.44383218e-07
  0.00000000e+00  0.00000000e+00  0.00000000e+00  2.76219108e-06]","[[-5.39305650e-05  3.87502139e-05]
 [ 7.21897908e-06 -5.29197980e-04]]",[],0.0,0.0
1787305873.8376906,0.16326946407431578,-1.0362780574738963,-0.10819863327057977,"[ 2.16105963e-06 -1.60024184e-07  0.00000000e+00  0.00000000e+00
  0.00000000e+00 -7.20412135e-08 -1.60024184e-07  7.79690058e-07
  0.00000000e+00  0.00000000e+00  0.00000000e+00  1.44383218e-07
  0.00000000e+00  0.00000000e+00  0.00000000e+00  0.00000000e+00
  0.00000000e+00  0.00000000e+00  0.00000000e+00  0.00000000e+00
  0.00000000e+00  0.00000000e+00  0.00000000e+00  0.00000000e+00
  0.00000000e+00  0.00000000e+00  0.00000000e+00  0.00000000e+00
  0.00000000e+00  0.00000000e+00 -7.20412135e-08  1.44383218e-07
  0.00000000e+00  0.00000000e+00  0.00000000e+00  2.76219108e-06]","[[-5.39305650e-05  3.87502139e-05]
 [ 7.21897908e-06 -5.29197980e-04]]",[],0.0,0.0
1787305873.9033067,0.16326946407431578,-1.0362780574738963,-0.10819863327057977,"[ 2.16105963e-06 -1.60024184e-07  0.00000000e+00  0.00000000e+00
  0.00000000e+00 -7.20412135e-08 -1.60024184e-07  7.79690058e-07
  0.00000000e+00  0.00000000e+00  0.00000000e+00  1.44383218e-07
  0.00000000e+00  0.00000000e+00  0.00000000e+00  0.00000000e+00
  0.00000000e+00  0.00000000e+00  0.00000000e+00  0.00000000e+00
  0.00000000e+00  0.00000000e+00  0.00000000e+00  0.00000000e+00
  0.00000000e+00  0.00000000e+00  0.00000000e+00  0.00000000e+00
  0.00000000e+00  0.00000000e+00 -7.20412135e-08  1.44383218e-07
  0.00000000e+00  0.00000000e+00  0.00000000e+00  2.76219108e-06]","[[-5.39305650e-05  3.87502139e-05]
 [ 7.21897908e-06 -5.29197980e-04]]",[],0.0,0.0
1787305874.0618708,0.16326946407431578,-1.0362780574738963,-0.10819863327057977,"[ 2.16105963e-06 -1.60024184e-07  0.00000000e+00  0.00000000e+00
  0.00000000e+00 -7.20412135e-08 -1.60024184e-07  7.79690058e-07
  0.00000000e+00  0.00000000e+00  0.00000000e+00  1.44383218e-07
  0.00000000e+00  0.00000000e+00  0.00000000e+00  0.00000000e+00
  0.00000000e+00  0.00000000e+00  0.00000000e+00  0.00000000e+00
  0.00000000e+00  0.00000000e+00  0.00000000e+00  0.00000000e+00
