time,x,y,yaw,cov_prop,K_gain,innovation,v_ekf,omega_ekf
1787206414.03315,2.0995311393417273,1.2142497706773163,2.1125780399190788,"[ 7.36076954e-05  1.23295181e-06  0.00000000e+00  0.00000000e+00
  0.00000000e+00 -6.31373276e-06  1.23295181e-06  5.30630390e-05
  0.00000000e+00  0.00000000e+00  0.00000000e+00 -1.29973507e-06
  0.00000000e+00  0.00000000e+00  0.00000000e+00  0.00000000e+00
  0.00000000e+00  0.00000000e+00  0.00000000e+00  0.00000000e+00
  0.00000000e+00  0.00000000e+00  0.00000000e+00  0.00000000e+00
  0.00000000e+00  0.00000000e+00  0.00000000e+00  0.00000000e+00
  0.00000000e+00  0.00000000e+00 -6.31373276e-06 -1.29973507e-06
  0.00000000e+00  0.00000000e+00  0.00000000e+00  4.62451605e-06]","[[-0.00043554  0.07447972]
 [-0.00130076 -0.00724116]]",[],0.0,0.0
1787206414.095495,2.0995311393417273,1.2142497706773163,2.1125780399190788,"[ 7.36076954e-05  1.23295181e-06  0.00000000e+00  0.00000000e+00
  0.00000000e+00 -6.31373276e-06  1.23295181e-06  5.30630390e-05
  0.00000000e+00  0.00000000e+00  0.00000000e+00 -1.29973507e-06
  0.00000000e+00  0.00000000e+00  0.00000000e+00  0.00000000e+00
  0.00000000e+00  0.00000000e+00  0.00000000e+00  0.00000000e+00
  0.00000000e+00  0.00000000e+00  0.00000000e+00  0.00000000e+00
  0.00000000e+00  0.00000000e+00  0.00000000e+00  0.00000000e+00
  0.00000000e+00  0.00000000e+00 -6.31373276e-06 -1.29973507e-06
  0.00000000e+00  0.00000000e+00  0.00000000e+00  4.62451605e-06]","[[-0.00043554  0.07447972]
 [-0.00130076 -0.00724116]]",[],0.0,0.0
1787206414.1675758,2.0995311393417273,1.2142497706773163,2.1125780399190788,"[ 7.36076954e-05  1.23295181e-06  0.00000000e+00  0.00000000e+00
  0.00000000e+00 -6.31373276e-06  1.23295181e-06  5.30630390e-05
  0.00000000e+00  0.00000000e+00  0.00000000e+00 -1.29973507e-06
  0.00000000e+00  0.00000000e+00  0.00000000e+00  0.00000000e+00
  0.00000000e+00  0.00000000e+00  0.00000000e+00  0.00000000e+00
  0.00000000e+00  0.00000000e+00  0.00000000e+00  0.00000000e+00
  0.00000000e+00  0.00000000e+00  0.00000000e+00  0.00000000e+00
  0.00000000e+00  0.00000000e+00 -6.31373276e-06 -1.29973507e-06
  0.00000000e+00  0.00000000e+00  0.00000000e+00  4.62451605e-06]","[[-0.00043554  0.07447972]
 [-0.00130076 -0.00724116]]",[],0.0,0.0
1787206414.1909885,2.0995311393417273,1.2142497706773163,2.1125780399190788,"[ 7.36076954e-05  1.23295181e-06  0.00000000e+00  0.00000000e+00
  0.00000000e+00 -6.31373276e-06  1.23295181e-06  5.30630390e-05
  0.00000000e+00  0.00000000e+00  0.00000000e+00 -1.29973507e-06
  0.00000000e+00  0.00000000e+00  0.00000000e+00  0.00000000e+00
  0.00000000e+00  0.00000000e+00  0.00000000e+00  0.00000000e+00
  0.00000000e+00  0.00000000e+00  0.00000000e+00  0.00000000e+00
  0.00000000e+00  0.00000000e+00  0.00000000e+00  0.00000000e+00
  0.00000000e+00  0.00000000e+00 -6.31373276e-06 -1.29973507e-06
  0.00000000e+00  0.00000000e+00  0.00000000e+00  4.62451605e-06]","[[-0.00043554  0.07447972]
 [-0.00130076 -0.00724116]]",[],0.0,0.0
1787206414.2249365,2.0995311393417273,1.2142497706773163,2.1125780399190788,"[ 7.36076954e-05  1.23295181e-06  0.00000000e+00  0.00000000e+00
  0.00000000e+00 -6.31373276e-06  1.23295181e-06  5.30630390e-05
  0.00000000e+00  0.00000000e+00  0.00000000e+00 -1.29973507e-06
  0.00000000e+00  0.00000000e+00  0.00000000e+00  0.00000000e+00
  0.00000000e+00  0.00000000e+00  0.00000000e+00  0.00000000e+00
  0.00000000e+00  0.00000000e+00  0.00000000e+00  0.00000000e+00
  0.00000000e+00  0.00000000e+00  0.00000000e+00  0.00000000e+00
  0.00000000e+00  0.00000000e+00 -6.31373276e-06 -1.29973507e-06
  0.00000000e+00  0.00000000e+00  0.00000000e+00  4.62451605e-06]","[[-0.00043554  0.07447972]
 [-0.00130076 -0.00724116]]",[],0.0,0.0
1787206414.3512328,2.0995311393417273,1.2142497706773163,2.1125780399190788,"[ 7.36076954e-05  1.23295181e-06  0.00000000e+00  0.00000000e+00
  0.00000000e+00 -6.31373276e-06  1.23295181e-06  5.30630390e-05
  0.00000000e+00  0.00000000e+00  0.00000000e+00 -1.29973507e-06
  0.00000000e+00  0.00000000e+00  0.00000000e+00  0.00000000e+00
  0.00000000e+00  0.00000000e+00  0.00000000e+00  0.00000000e+00
  0.00000000e+00  0.00000000e+00  0.00000000e+00  0.00000000e+00
  0.00000000e+00  0.00000000e+00  0.00000000e+00  0.00000000e+00
  0.00000000e+00  0.00000000e+00 -6.31373276e-06 -1.29973507e-06
  0.00000000e+00  0.00000000e+00  0.00000000e+00  4.62451605e-06]","[[-0.00043554  0.07447972]
 [-0.00130076 -0.00724116]]",[],0.0,0.0
1787206414.3725045,2.0995311393417273,1.2142497706773163,2.1125780399190788,"[ 7.36076954e-05  1.23295181e-06  0.00000000e+00  0.00000000e+00
  0.00000000e+00 -6.31373276e-06  1.23295181e-06  5.30630390e-05
  0.00000000e+00  0.00000000e+00  0.00000000e+00 -1.29973507e-06
  0.00000000e+00  0.00000000e+00  0.00000000e+00  0.00000000e+00
  0.00000000e+00  0.00000000e+00  0.00000000e+00  0.00000000e+00
  0.00000000e+00  0.00000000e+00  0.00000000e+00  0.00000000e+00
  0.00000000e+00  0.00000000e+00  0.00000000e+00  0.00000000e+00
  0.00000000e+00  0.00000000e+00 -6.31373276e-06 -1.29973507e-06
  0.00000000e+00  0.00000000e+00  0.00000000e+00  4.62451605e-06]","[[-0.00043554  0.07447972]
 [-0.00130076 -0.00724116]]",[],0.0,0.0
1787206414.432552,2.0995311393417273,1.2142497706773163,2.1125780399190788,"[ 7.36076954e-05  1.23295181e-06  0.00000000e+00  0.00000000e+00
  0.00000000e+00 -6.31373276e-06  1.23295181e-06  5.30630390e-05
  0.00000000e+00  0.00000000e+00  0.00000000e+00 -1.29973507e-06
  0.00000000e+00  0.00000000e+00  0.00000000e+00  0.00000000e+00
  0.00000000e+00  0.00000000e+00  0.00000000e+00  0.00000000e+00
  0.00000000e+00  0.00000000e+00  0.00000000e+00  0.00000000e+00
  0.00000000e+00  0.00000000e+00  0.00000000e+00  0.00000000e+00
  0.00000000e+00  0.00000000e+00 -6.31373276e-06 -1.29973507e-06
  0.00000000e+00  0.00000000e+00  0.00000000e+00  4.62451605e-06]","[[-0.00043554  0.07447972]
 [-0.00130076 -0.00724116]]",[],0.0,0.0
1787206414.4948308,2.0995311393417273,1.2142497706773163,2.1125780399190788,"[ 7.36076954e-05  1.23295181e-06  0.00000000e+00  0.00000000e+00
  0.00000000e+00 -6.31373276e-06  1.23295181e-06  5.30630390e-05
  0.00000000e+00  0.00000000e+00  0.00000000e+00 -1.29973507e-06
  0.00000000e+00  0.00000000e+00  0.00000000e+00  0.00000000e+00
  0.00000000e+00  0.00000000e+00  0.00000000e+00  0.00000000e+00
  0.00000000e+00  0.00000000e+00  0.00000000e+00  0.00000000e+00
  0.00000000e+00  0.00000000e+00  0.00000000e+00  0.00000000e+00
  0.00000000e+00  0.00000000e+00 -6.31373276e-06 -1.29973507e-06
  0.00000000e+00  0.00000000e+00  0.00000000e+00  4.62451605e-06]","[[-0.00043554  0.07447972]
 [-0.00130076 -0.00724116]]",[],0.0,0.0
1787206414.5839179,2.0995311393417273,1.2142497706773163,2.1125780399190788,"[ 7.36076954e-05  1.23295181e-06  0.00000000e+00  0.00000000e+00
  0.00000000e+00 -6.31373276e-06  1.23295181e-06  5.30630390e-05
  0.00000000e+00  0.00000000e+00  0.00000000e+00 -1.29973507e-06
  0.00000000e+00  0.00000000e+00  0.00000000e+00  0.00000000e+00
  0.00000000e+00  0.00000000e+00  0.00000000e+00  0.00000000e+00
  0.00000000e+00  0.00000000e+00  0.00000000e+00  0.00000000e+00
  0.00000000e+00  0.00000000e+00  0.00000000e+00  0.00000000e+00
  0.00000000e+00  0.00000000e+00 -6.31373276e-06 -1.29973507e-06
  0.00000000e+00  0.00000000e+00  0.00000000e+00  4.62451605e-06]","[[-0.00043554  0.07447972]
 [-0.00130076 -0.00724116]]",[],0.0,0.0
1787206414.663766,2.0995311393417273,1.2142497706773163,2.1125780399190788,"[ 7.36076954e-05  1.23295181e-06  0.00000000e+00  0.00000000e+00
  0.00000000e+00 -6.31373276e-06  1.23295181e-06  5.30630390e-05
  0.00000000e+00  0.00000000e+00  0.00000000e+00 -1.29973507e-06
  0.00000000e+00  0.00000000e+00  0.00000000e+00  0.00000000e+00
  0.00000000e+00  0.00000000e+00  0.00000000e+00  0.00000000e+00
  0.00000000e+00  0.00000000e+00  0.00000000e+00  0.00000000e+00
  0.00000000e+00  0.00000000e+00  0.00000000e+00  0.00000000e+00
  0.00000000e+00  0.00000000e+00 -6.31373276e-06 -1.29973507e-06
  0.00000000e+00  0.00000000e+00  0.00000000e+00  4.62451605e-06]","[[-0.00043554  0.07447972]
 [-0.00130076 -0.00724116]]",[],0.0,0.0
1787206414.720814,2.0995311393417273,1.2142497706773163,2.1125780399190788,"[ 7.36076954e-05  1.23295181e-06  0.00000000e+00  0.00000000e+00
  0.00000000e+00 -6.31373276e-06  1.23295181e-06  5.30630390e-05
  0.00000000e+00  0.00000000e+00  0.00000000e+00 -1.29973507e-06
  0.00000000e+00  0.00000000e+00  0.00000000e+00  0.00000000e+00
  0.00000000e+00  0.00000000e+00  0.00000000e+00  0.00000000e+00
  0.00000000e+00  0.00000000e+00  0.00000000e+00  0.00000000e+00
  0.00000000e+00  0.00000000e+00  0.00000000e+00  0.00000000e+00
  0.00000000e+00  0.00000000e+00 -6.31373276e-06 -1.29973507e-06
  0.00000000e+00  0.00000000e+00  0.00000000e+00  4.62451605e-06]","[[-0.00043554  0.07447972]
 [-0.00130076 -0.00724116]]",[],0.0,0.0
1787206414.722236,2.0995311393417273,1.2142497706773163,2.1125780399190788,"[ 7.36076954e-05  1.23295181e-06  0.00000000e+00  0.00000000e+00
  0.00000000e+00 -6.31373276e-06  1.23295181e-06  5.30630390e-05
  0.00000000e+00  0.00000000e+00  0.00000000e+00 -1.29973507e-06
  0.00000000e+00  0.00000000e+00  0.00000000e+00  0.00000000e+00
  0.00000000e+00  0.00000000e+00  0.00000000e+00  0.00000000e+00
  0.00000000e+00  0.00000000e+00  0.00000000e+00  0.00000000e+00
  0.00000000e+00  0.00000000e+00  0.00000000e+00  0.00000000e+00
  0.00000000e+00  0.00000000e+00 -6.31373276e-06 -1.29973507e-06
  0.00000000e+00  0.00000000e+00  0.00000000e+00  4.62451605e-06]","[[-0.00043554  0.07447972]
 [-0.00130076 -0.00724116]]",[],0.0,0.0
1787206414.8399107,2.0995311393417273,1.2142497706773163,2.1125780399190788,"[ 7.36076954e-05  1.23295181e-06  0.00000000e+00  0.00000000e+00
  0.00000000e+00 -6.31373276e-06  1.23295181e-06  5.30630390e-05
  0.00000000e+00  0.00000000e+00  0.00000000e+00 -1.29973507e-06
  0.00000000e+00  0.00000000e+00  0.00000000e+00  0.00000000e+00
  0.00000000e+00  0.00000000e+00  0.00000000e+00  0.00000000e+00
  0.00000000e+00  0.00000000e+00  0.00000000e+00  0.00000000e+00
  0.00000000e+00  0.00000000e+00  0.00000000e+00  0.00000000e+00
  0.00000000e+00  0.00000000e+00 -6.31373276e-06 -1.29973507e-06
  0.00000000e+00  0.00000000e+00  0.00000000e+00  4.62451605e-06]","[[-0.00043554  0.07447972]
 [-0.00130076 -0.00724116]]",[],0.0,0.0
1787206414.8839855,2.0902826167617157,1.1855588910135706,2.1543375527620734,"[ 3.50444593e-05  1.09558627e-06  0.00000000e+00  0.00000000e+00
  0.00000000e+00 -2.47523827e-06  1.09558627e-06  2.64722579e-05
  0.00000000e+00  0.00000000e+00  0.00000000e+00 -9.57123471e-07
  0.00000000e+00  0.00000000e+00  0.00000000e+00  0.00000000e+00
  0.00000000e+00  0.00000000e+00  0.00000000e+00  0.00000000e+00
  0.00000000e+00  0.00000000e+00  0.00000000e+00  0.00000000e+00
  0.00000000e+00  0.00000000e+00  0.00000000e+00  0.00000000e+00
  0.00000000e+00  0.00000000e+00 -2.47523827e-06 -9.57123471e-07
  0.00000000e+00  0.00000000e+00  0.00000000e+00  3.86807783e-06]","[[ 0.00054864  0.02581665]
 [-0.00048514  0.01591341]]",[],0.0,0.0
1787206414.9515793,2.0902826167617157,1.1855588910135706,2.1543375527620734,"[ 3.50444593e-05  1.09558627e-06  0.00000000e+00  0.00000000e+00
  0.00000000e+00 -2.47523827e-06  1.09558627e-06  2.64722579e-05
  0.00000000e+00  0.00000000e+00  0.00000000e+00 -9.57123471e-07
  0.00000000e+00  0.00000000e+00  0.00000000e+00  0.00000000e+00
  0.00000000e+00  0.00000000e+00  0.00000000e+00  0.00000000e+00
  0.00000000e+00  0.00000000e+00  0.00000000e+00  0.00000000e+00
  0.00000000e+00  0.00000000e+00  0.00000000e+00  0.00000000e+00
  0.00000000e+00  0.00000000e+00 -2.47523827e-06 -9.57123471e-07
  0.00000000e+00  0.00000000e+00  0.00000000e+00  3.86807783e-06]","[[ 0.00054864  0.02581665]
 [-0.00048514  0.01591341]]",[],0.0,0.0
1787206414.9821286,2.0902826167617157,1.1855588910135706,2.1543375527620734,"[ 3.50444593e-05  1.09558627e-06  0.00000000e+00  0.00000000e+00
  0.00000000e+00 -2.47523827e-06  1.09558627e-06  2.64722579e-05
  0.00000000e+00  0.00000000e+00  0.00000000e+00 -9.57123471e-07
  0.00000000e+00  0.00000000e+00  0.00000000e+00  0.00000000e+00
  0.00000000e+00  0.00000000e+00  0.00000000e+00  0.00000000e+00
  0.00000000e+00  0.00000000e+00  0.00000000e+00  0.00000000e+00
  0.00000000e+00  0.00000000e+00  0.00000000e+00  0.00000000e+00
  0.00000000e+00  0.00000000e+00 -2.47523827e-06 -9.57123471e-07
  0.00000000e+00  0.00000000e+00  0.00000000e+00  3.86807783e-06]","[[ 0.00054864  0.02581665]
 [-0.00048514  0.01591341]]",[],0.0,0.0
1787206415.0324821,2.0902826167617157,1.1855588910135706,2.1543375527620734,"[ 3.50444593e-05  1.09558627e-06  0.00000000e+00  0.00000000e+00
  0.00000000e+00 -2.47523827e-06  1.09558627e-06  2.64722579e-05
  0.00000000e+00  0.00000000e+00  0.00000000e+00 -9.57123471e-07
  0.00000000e+00  0.00000000e+00  0.00000000e+00  0.00000000e+00
  0.00000000e+00  0.00000000e+00  0.00000000e+00  0.00000000e+00
  0.00000000e+00  0.00000000e+00  0.00000000e+00  0.00000000e+00
  0.00000000e+00  0.00000000e+00  0.00000000e+00  0.00000000e+00
  0.00000000e+00  0.00000000e+00 -2.47523827e-06 -9.57123471e-07
  0.00000000e+00  0.00000000e+00  0.00000000e+00  3.86807783e-06]","[[ 0.00054864  0.02581665]
 [-0.00048514  0.01591341]]",[],0.0,0.0
1787206415.086162,2.0902826167617157,1.1855588910135706,2.1543375527620734,"[ 3.50444593e-05  1.09558627e-06  0.00000000e+00  0.00000000e+00
  0.00000000e+00 -2.47523827e-06  1.09558627e-06  2.64722579e-05
  0.00000000e+00  0.00000000e+00  0.00000000e+00 -9.57123471e-07
  0.00000000e+00  0.00000000e+00  0.00000000e+00  0.00000000e+00
  0.00000000e+00  0.00000000e+00  0.00000000e+00  0.00000000e+00
  0.00000000e+00  0.00000000e+00  0.00000000e+00  0.00000000e+00
  0.00000000e+00  0.00000000e+00  0.00000000e+00  0.00000000e+00
  0.00000000e+00  0.00000000e+00 -2.47523827e-06 -9.57123471e-07
  0.00000000e+00  0.00000000e+00  0.00000000e+00  3.86807783e-06]","[[ 0.00054864  0.02581665]
 [-0.00048514  0.01591341]]",[],0.0,0.0
1787206415.2239377,2.0902826167617157,1.1855588910135706,2.1543375527620734,"[ 3.50444593e-05  1.09558627e-06  0.00000000e+00  0.00000000e+00
  0.00000000e+00 -2.47523827e-06  1.09558627e-06  2.64722579e-05
  0.00000000e+00  0.00000000e+00  0.00000000e+00 -9.57123471e-07
  0.00000000e+00  0.00000000e+00  0.00000000e+00  0.00000000e+00
  0.00000000e+00  0.00000000e+00  0.00000000e+00  0.00000000e+00
  0.00000000e+00  0.00000000e+00  0.00000000e+00  0.00000000e+00
  0.00000000e+00  0.00000000e+00  0.00000000e+00  0.00000000e+00
  0.00000000e+00  0.00000000e+00 -2.47523827e-06 -9.57123471e-07
  0.00000000e+00  0.00000000e+00  0.00000000e+00  3.86807783e-06]","[[ 0.00054864  0.02581665]
 [-0.00048514  0.01591341]]",[],0.0,0.0
1787206415.3505719,2.0902826167617157,1.1855588910135706,2.1543375527620734,"[ 3.50444593e-05  1.09558627e-06  0.00000000e+00  0.00000000e+00
  0.00000000e+00 -2.47523827e-06  1.09558627e-06  2.64722579e-05
  0.00000000e+00  0.00000000e+00  0.00000000e+00 -9.57123471e-07
  0.00000000e+00  0.00000000e+00  0.00000000e+00  0.00000000e+00
  0.00000000e+00  0.00000000e+00  0.00000000e+00  0.00000000e+00
  0.00000000e+00  0.00000000e+00  0.00000000e+00  0.00000000e+00
  0.00000000e+00  0.00000000e+00  0.00000000e+00  0.00000000e+00
  0.00000000e+00  0.00000000e+00 -2.47523827e-06 -9.57123471e-07
  0.00000000e+00  0.00000000e+00  0.00000000e+00  3.86807783e-06]","[[ 0.00054864  0.02581665]
 [-0.00048514  0.01591341]]",[],0.0,0.0
1787206415.5706897,2.0902826167617157,1.1855588910135706,2.1543375527620734,"[ 3.50444593e-05  1.09558627e-06  0.00000000e+00  0.00000000e+00
  0.00000000e+00 -2.47523827e-06  1.09558627e-06  2.64722579e-05
  0.00000000e+00  0.00000000e+00  0.00000000e+00 -9.57123471e-07
  0.00000000e+00  0.00000000e+00  0.00000000e+00  0.00000000e+00
  0.00000000e+00  0.00000000e+00  0.00000000e+00  0.00000000e+00
  0.00000000e+00  0.00000000e+00  0.00000000e+00  0.00000000e+00
  0.00000000e+00  0.00000000e+00  0.00000000e+00  0.00000000e+00
  0.00000000e+00  0.00000000e+00 -2.47523827e-06 -9.57123471e-07
  0.00000000e+00  0.00000000e+00  0.00000000e+00  3.86807783e-06]","[[ 0.00054864  0.02581665]
 [-0.00048514  0.01591341]]",[],0.0,0.0
1787206415.6523404,2.0902826167617157,1.1855588910135706,2.1543375527620734,"[ 3.50444593e-05  1.09558627e-06  0.00000000e+00  0.00000000e+00
  0.00000000e+00 -2.47523827e-06  1.09558627e-06  2.64722579e-05
  0.00000000e+00  0.00000000e+00  0.00000000e+00 -9.57123471e-07
  0.00000000e+00  0.00000000e+00  0.00000000e+00  0.00000000e+00
  0.00000000e+00  0.00000000e+00  0.00000000e+00  0.00000000e+00
  0.00000000e+00  0.00000000e+00  0.00000000e+00  0.00000000e+00
  0.00000000e+00  0.00000000e+00  0.00000000e+00  0.00000000e+00
  0.00000000e+00  0.00000000e+00 -2.47523827e-06 -9.57123471e-07
  0.00000000e+00  0.00000000e+00  0.00000000e+00  3.86807783e-06]","[[ 0.00054864  0.02581665]
 [-0.00048514  0.01591341]]",[],0.0,0.0
1787206415.6979306,2.094479751910652,1.166116589934736,2.1985791545262447,"[ 2.19804232e-05  5.63008838e-07  0.00000000e+00  0.00000000e+00
  0.00000000e+00 -1.62499080e-06  5.63008838e-07  1.72259562e-05
  0.00000000e+00  0.00000000e+00  0.00000000e+00 -4.89521859e-07
  0.00000000e+00  0.00000000e+00  0.00000000e+00  0.00000000e+00
  0.00000000e+00  0.00000000e+00  0.00000000e+00  0.00000000e+00
  0.00000000e+00  0.00000000e+00  0.00000000e+00  0.00000000e+00
  0.00000000e+00  0.00000000e+00  0.00000000e+00  0.00000000e+00
  0.00000000e+00  0.00000000e+00 -1.62499080e-06 -4.89521859e-07
  0.00000000e+00  0.00000000e+00  0.00000000e+00  3.43307928e-06]","[[ 0.00034122  0.016278  ]
 [-0.00032166  0.00985049]]",[],0.0,0.0
1787206415.7286263,2.094479751910652,1.166116589934736,2.1985791545262447,"[ 2.19804232e-05  5.63008838e-07  0.00000000e+00  0.00000000e+00
  0.00000000e+00 -1.62499080e-06  5.63008838e-07  1.72259562e-05
  0.00000000e+00  0.00000000e+00  0.00000000e+00 -4.89521859e-07
  0.00000000e+00  0.00000000e+00  0.00000000e+00  0.00000000e+00
  0.00000000e+00  0.00000000e+00  0.00000000e+00  0.00000000e+00
  0.00000000e+00  0.00000000e+00  0.00000000e+00  0.00000000e+00
  0.00000000e+00  0.00000000e+00  0.00000000e+00  0.00000000e+00
  0.00000000e+00  0.00000000e+00 -1.62499080e-06 -4.89521859e-07
  0.00000000e+00  0.00000000e+00  0.00000000e+00  3.43307928e-06]","[[ 0.00034122  0.016278  ]
 [-0.00032166  0.00985049]]",[],0.0,0.0
1787206415.7742798,2.094479751910652,1.166116589934736,2.1985791545262447,"[ 2.19804232e-05  5.63008838e-07  0.00000000e+00  0.00000000e+00
  0.00000000e+00 -1.62499080e-06  5.63008838e-07  1.72259562e-05
  0.00000000e+00  0.00000000e+00  0.00000000e+00 -4.89521859e-07
  0.00000000e+00  0.00000000e+00  0.00000000e+00  0.00000000e+00
  0.00000000e+00  0.00000000e+00  0.00000000e+00  0.00000000e+00
  0.00000000e+00  0.00000000e+00  0.00000000e+00  0.00000000e+00
  0.00000000e+00  0.00000000e+00  0.00000000e+00  0.00000000e+00
  0.00000000e+00  0.00000000e+00 -1.62499080e-06 -4.89521859e-07
  0.00000000e+00  0.00000000e+00  0.00000000e+00  3.43307928e-06]","[[ 0.00034122  0.016278  ]
 [-0.00032166  0.00985049]]",[],0.0,0.0
1787206415.8814104,2.094479751910652,1.166116589934736,2.1985791545262447,"[ 2.19804232e-05  5.63008838e-07  0.00000000e+00  0.00000000e+00
  0.00000000e+00 -1.62499080e-06  5.63008838e-07  1.72259562e-05
  0.00000000e+00  0.00000000e+00  0.00000000e+00 -4.89521859e-07
  0.00000000e+00  0.00000000e+00  0.00000000e+00  0.00000000e+00
  0.00000000e+00  0.00000000e+00  0.00000000e+00  0.00000000e+00
  0.00000000e+00  0.00000000e+00  0.00000000e+00  0.00000000e+00
  0.00000000e+00  0.00000000e+00  0.00000000e+00  0.00000000e+00
  0.00000000e+00  0.00000000e+00 -1.62499080e-06 -4.89521859e-07
  0.00000000e+00  0.00000000e+00  0.00000000e+00  3.43307928e-06]","[[ 0.00034122  0.016278  ]
 [-0.00032166  0.00985049]]",[],0.0,0.0
1787206415.9330528,2.094479751910652,1.166116589934736,2.1985791545262447,"[ 2.19804232e-05  5.63008838e-07  0.00000000e+00  0.00000000e+00
  0.00000000e+00 -1.62499080e-06  5.63008838e-07  1.72259562e-05
  0.00000000e+00  0.00000000e+00  0.00000000e+00 -4.89521859e-07
  0.00000000e+00  0.00000000e+00  0.00000000e+00  0.00000000e+00
  0.00000000e+00  0.00000000e+00  0.00000000e+00  0.00000000e+00
  0.00000000e+00  0.00000000e+00  0.00000000e+00  0.00000000e+00
  0.00000000e+00  0.00000000e+00  0.00000000e+00  0.00000000e+00
  0.00000000e+00  0.00000000e+00 -1.62499080e-06 -4.89521859e-07
  0.00000000e+00  0.00000000e+00  0.00000000e+00  3.43307928e-06]","[[ 0.00034122  0.016278  ]
 [-0.00032166  0.00985049]]",[],0.0,0.0
1787206415.9776254,2.094479751910652,1.166116589934736,2.1985791545262447,"[ 2.19804232e-05  5.63008838e-07  0.00000000e+00  0.00000000e+00
  0.00000000e+00 -1.62499080e-06  5.63008838e-07  1.72259562e-05
  0.00000000e+00  0.00000000e+00  0.00000000e+00 -4.89521859e-07
  0.00000000e+00  0.00000000e+00  0.00000000e+00  0.00000000e+00
  0.00000000e+00  0.00000000e+00  0.00000000e+00  0.00000000e+00
  0.00000000e+00  0.00000000e+00  0.00000000e+00  0.00000000e+00
  0.00000000e+00  0.00000000e+00  0.00000000e+00  0.00000000e+00
  0.00000000e+00  0.00000000e+00 -1.62499080e-06 -4.89521859e-07
  0.00000000e+00  0.00000000e+00  0.00000000e+00  3.43307928e-06]","[[ 0.00034122  0.016278  ]
 [-0.00032166  0.00985049]]",[],0.0,0.0
1787206416.040685,2.094479751910652,1.166116589934736,2.1985791545262447,"[ 2.19804232e-05  5.63008838e-07  0.00000000e+00  0.00000000e+00
  0.00000000e+00 -1.62499080e-06  5.63008838e-07  1.72259562e-05
  0.00000000e+00  0.00000000e+00  0.00000000e+00 -4.89521859e-07
  0.00000000e+00  0.00000000e+00  0.00000000e+00  0.00000000e+00
  0.00000000e+00  0.00000000e+00  0.00000000e+00  0.00000000e+00
  0.00000000e+00  0.00000000e+00  0.00000000e+00  0.00000000e+00
  0.00000000e+00  0.00000000e+00  0.00000000e+00  0.00000000e+00
  0.00000000e+00  0.00000000e+00 -1.62499080e-06 -4.89521859e-07
  0.00000000e+00  0.00000000e+00  0.00000000e+00  3.43307928e-06]","[[ 0.00034122  0.016278  ]
 [-0.00032166  0.00985049]]",[],0.0,0.0
1787206416.0766199,2.094479751910652,1.166116589934736,2.1985791545262447,"[ 2.19804232e-05  5.63008838e-07  0.00000000e+00  0.00000000e+00
  0.00000000e+00 -1.62499080e-06  5.63008838e-07  1.72259562e-05
  0.00000000e+00  0.00000000e+00  0.00000000e+00 -4.89521859e-07
  0.00000000e+00  0.00000000e+00  0.00000000e+00  0.00000000e+00
  0.00000000e+00  0.00000000e+00  0.00000000e+00  0.00000000e+00
  0.00000000e+00  0.00000000e+00  0.00000000e+00  0.00000000e+00
  0.00000000e+00  0.00000000e+00  0.00000000e+00  0.00000000e+00
  0.00000000e+00  0.00000000e+00 -1.62499080e-06 -4.89521859e-07
  0.00000000e+00  0.00000000e+00  0.00000000e+00  3.43307928e-06]","[[ 0.00034122  0.016278  ]
 [-0.00032166  0.00985049]]",[],0.0,0.0
1787206416.143752,2.094479751910652,1.166116589934736,2.1985791545262447,"[ 2.19804232e-05  5.63008838e-07  0.00000000e+00  0.00000000e+00
  0.00000000e+00 -1.62499080e-06  5.63008838e-07  1.72259562e-05
  0.00000000e+00  0.00000000e+00  0.00000000e+00 -4.89521859e-07
  0.00000000e+00  0.00000000e+00  0.00000000e+00  0.00000000e+00
  0.00000000e+00  0.00000000e+00  0.00000000e+00  0.00000000e+00
  0.00000000e+00  0.00000000e+00  0.00000000e+00  0.00000000e+00
  0.00000000e+00  0.00000000e+00  0.00000000e+00  0.00000000e+00
  0.00000000e+00  0.00000000e+00 -1.62499080e-06 -4.89521859e-07
  0.00000000e+00  0.00000000e+00  0.00000000e+00  3.43307928e-06]","[[ 0.00034122  0.016278  ]
 [-0.00032166  0.00985049]]",[],0.0,0.0
1787206416.2197902,2.094479751910652,1.166116589934736,2.1985791545262447,"[ 2.19804232e-05  5.63008838e-07  0.00000000e+00  0.00000000e+00
  0.00000000e+00 -1.62499080e-06  5.63008838e-07  1.72259562e-05
  0.00000000e+00  0.00000000e+00  0.00000000e+00 -4.89521859e-07
  0.00000000e+00  0.00000000e+00  0.00000000e+00  0.00000000e+00
  0.00000000e+00  0.00000000e+00  0.00000000e+00  0.00000000e+00
  0.00000000e+00  0.00000000e+00  0.00000000e+00  0.00000000e+00
  0.00000000e+00  0.00000000e+00  0.00000000e+00  0.00000000e+00
  0.00000000e+00  0.00000000e+00 -1.62499080e-06 -4.89521859e-07
  0.00000000e+00  0.00000000e+00  0.00000000e+00  3.43307928e-06]","[[ 0.00034122  0.016278  ]
 [-0.00032166  0.00985049]]",[],0.0,0.0
1787206416.279596,2.094479751910652,1.166116589934736,2.1985791545262447,"[ 2.19804232e-05  5.63008838e-07  0.00000000e+00  0.00000000e+00
  0.00000000e+00 -1.62499080e-06  5.63008838e-07  1.72259562e-05
  0.00000000e+00  0.00000000e+00  0.00000000e+00 -4.89521859e-07
  0.00000000e+00  0.00000000e+00  0.00000000e+00  0.00000000e+00
  0.00000000e+00  0.00000000e+00  0.00000000e+00  0.00000000e+00
  0.00000000e+00  0.00000000e+00  0.00000000e+00  0.00000000e+00
  0.00000000e+00  0.00000000e+00  0.00000000e+00  0.00000000e+00
  0.00000000e+00  0.00000000e+00 -1.62499080e-06 -4.89521859e-07
  0.00000000e+00  0.00000000e+00  0.00000000e+00  3.43307928e-06]","[[ 0.00034122  0.016278  ]
 [-0.00032166  0.00985049]]",[],0.0,0.0
1787206416.3341212,2.094479751910652,1.166116589934736,2.1985791545262447,"[ 2.19804232e-05  5.63008838e-07  0.00000000e+00  0.00000000e+00
  0.00000000e+00 -1.62499080e-06  5.63008838e-07  1.72259562e-05
  0.00000000e+00  0.00000000e+00  0.00000000e+00 -4.89521859e-07
  0.00000000e+00  0.00000000e+00  0.00000000e+00  0.00000000e+00
  0.00000000e+00  0.00000000e+00  0.00000000e+00  0.00000000e+00
  0.00000000e+00  0.00000000e+00  0.00000000e+00  0.00000000e+00
  0.00000000e+00  0.00000000e+00  0.00000000e+00  0.00000000e+00
  0.00000000e+00  0.00000000e+00 -1.62499080e-06 -4.89521859e-07
  0.00000000e+00  0.00000000e+00  0.00000000e+00  3.43307928e-06]","[[ 0.00034122  0.016278  ]
 [-0.00032166  0.00985049]]",[],0.0,0.0
1787206416.4233618,2.094479751910652,1.166116589934736,2.1985791545262447,"[ 2.19804232e-05  5.63008838e-07  0.00000000e+00  0.00000000e+00
  0.00000000e+00 -1.62499080e-06  5.63008838e-07  1.72259562e-05
  0.00000000e+00  0.00000000e+00  0.00000000e+00 -4.89521859e-07
  0.00000000e+00  0.00000000e+00  0.00000000e+00  0.00000000e+00
  0.00000000e+00  0.00000000e+00  0.00000000e+00  0.00000000e+00
  0.00000000e+00  0.00000000e+00  0.00000000e+00  0.00000000e+00
  0.00000000e+00  0.00000000e+00  0.00000000e+00  0.00000000e+00
  0.00000000e+00  0.00000000e+00 -1.62499080e-06 -4.89521859e-07
  0.00000000e+00  0.00000000e+00  0.00000000e+00  3.43307928e-06]","[[ 0.00034122  0.016278  ]
 [-0.00032166  0.00985049]]",[],0.0,0.0
1787206416.4724433,2.094479751910652,1.166116589934736,2.1985791545262447,"[ 2.19804232e-05  5.63008838e-07  0.00000000e+00  0.00000000e+00
  0.00000000e+00 -1.62499080e-06  5.63008838e-07  1.72259562e-05
  0.00000000e+00  0.00000000e+00  0.00000000e+00 -4.89521859e-07
  0.00000000e+00  0.00000000e+00  0.00000000e+00  0.00000000e+00
  0.00000000e+00  0.00000000e+00  0.00000000e+00  0.00000000e+00
  0.00000000e+00  0.00000000e+00  0.00000000e+00  0.00000000e+00
  0.00000000e+00  0.00000000e+00  0.00000000e+00  0.00000000e+00
  0.00000000e+00  0.00000000e+00 -1.62499080e-06 -4.89521859e-07
  0.00000000e+00  0.00000000e+00  0.00000000e+00  3.43307928e-06]","[[ 0.00034122  0.016278  ]
 [-0.00032166  0.00985049]]",[],0.0,0.0
1787206416.5328293,2.094479751910652,1.166116589934736,2.1985791545262447,"[ 2.19804232e-05  5.63008838e-07  0.00000000e+00  0.00000000e+00
  0.00000000e+00 -1.62499080e-06  5.63008838e-07  1.72259562e-05
  0.00000000e+00  0.00000000e+00  0.00000000e+00 -4.89521859e-07
  0.00000000e+00  0.00000000e+00  0.00000000e+00  0.00000000e+00
  0.00000000e+00  0.00000000e+00  0.00000000e+00  0.00000000e+00
  0.00000000e+00  0.00000000e+00  0.00000000e+00  0.00000000e+00
  0.00000000e+00  0.00000000e+00  0.00000000e+00  0.00000000e+00
  0.00000000e+00  0.00000000e+00 -1.62499080e-06 -4.89521859e-07
  0.00000000e+00  0.00000000e+00  0.00000000e+00  3.43307928e-06]","[[ 0.00034122  0.016278  ]
 [-0.00032166  0.00985049]]",[],0.0,0.0
1787206416.6329637,2.094479751910652,1.166116589934736,2.1985791545262447,"[ 2.19804232e-05  5.63008838e-07  0.00000000e+00  0.00000000e+00
  0.00000000e+00 -1.62499080e-06  5.63008838e-07  1.72259562e-05
  0.00000000e+00  0.00000000e+00  0.00000000e+00 -4.89521859e-07
  0.00000000e+00  0.00000000e+00  0.00000000e+00  0.00000000e+00
  0.00000000e+00  0.00000000e+00  0.00000000e+00  0.00000000e+00
  0.00000000e+00  0.00000000e+00  0.00000000e+00  0.00000000e+00
  0.00000000e+00  0.00000000e+00  0.00000000e+00  0.00000000e+00
  0.00000000e+00  0.00000000e+00 -1.62499080e-06 -4.89521859e-07
  0.00000000e+00  0.00000000e+00  0.00000000e+00  3.43307928e-06]","[[ 0.00034122  0.016278  ]
 [-0.00032166  0.00985049]]",[],0.0,0.0
1787206416.8409142,2.095158767237311,1.1421653716575313,2.223044976799894,"[ 1.61728650e-05  3.07535517e-07  0.00000000e+00  0.00000000e+00
  0.00000000e+00 -6.14011266e-07  3.07535517e-07  1.29901555e-05
  0.00000000e+00  0.00000000e+00  0.00000000e+00 -2.27476550e-07
  0.00000000e+00  0.00000000e+00  0.00000000e+00  0.00000000e+00
  0.00000000e+00  0.00000000e+00  0.00000000e+00  0.00000000e+00
  0.00000000e+00  0.00000000e+00  0.00000000e+00  0.00000000e+00
  0.00000000e+00  0.00000000e+00  0.00000000e+00  0.00000000e+00
  0.00000000e+00  0.00000000e+00 -6.14011266e-07 -2.27476550e-07
  0.00000000e+00  0.00000000e+00  0.00000000e+00  3.66510393e-06]","[[ 0.00025174  0.01091273]
 [-0.00024537  0.00703345]]",[],0.0,0.0
1787206416.8790853,2.095158767237311,1.1421653716575313,2.223044976799894,"[ 1.61728650e-05  3.07535517e-07  0.00000000e+00  0.00000000e+00
  0.00000000e+00 -6.14011266e-07  3.07535517e-07  1.29901555e-05
  0.00000000e+00  0.00000000e+00  0.00000000e+00 -2.27476550e-07
  0.00000000e+00  0.00000000e+00  0.00000000e+00  0.00000000e+00
  0.00000000e+00  0.00000000e+00  0.00000000e+00  0.00000000e+00
  0.00000000e+00  0.00000000e+00  0.00000000e+00  0.00000000e+00
  0.00000000e+00  0.00000000e+00  0.00000000e+00  0.00000000e+00
  0.00000000e+00  0.00000000e+00 -6.14011266e-07 -2.27476550e-07
  0.00000000e+00  0.00000000e+00  0.00000000e+00  3.66510393e-06]","[[ 0.00025174  0.01091273]
 [-0.00024537  0.00703345]]",[],0.0,0.0
1787206417.1854055,2.095158767237311,1.1421653716575313,2.223044976799894,"[ 1.61728650e-05  3.07535517e-07  0.00000000e+00  0.00000000e+00
  0.00000000e+00 -6.14011266e-07  3.07535517e-07  1.29901555e-05
  0.00000000e+00  0.00000000e+00  0.00000000e+00 -2.27476550e-07
  0.00000000e+00  0.00000000e+00  0.00000000e+00  0.00000000e+00
  0.00000000e+00  0.00000000e+00  0.00000000e+00  0.00000000e+00
  0.00000000e+00  0.00000000e+00  0.00000000e+00  0.00000000e+00
  0.00000000e+00  0.00000000e+00  0.00000000e+00  0.00000000e+00
  0.00000000e+00  0.00000000e+00 -6.14011266e-07 -2.27476550e-07
  0.00000000e+00  0.00000000e+00  0.00000000e+00  3.66510393e-06]","[[ 0.00025174  0.01091273]
 [-0.00024537  0.00703345]]",[],0.0,0.0
1787206417.3330212,2.095158767237311,1.1421653716575313,2.223044976799894,"[ 1.61728650e-05  3.07535517e-07  0.00000000e+00  0.00000000e+00
  0.00000000e+00 -6.14011266e-07  3.07535517e-07  1.29901555e-05
  0.00000000e+00  0.00000000e+00  0.00000000e+00 -2.27476550e-07
  0.00000000e+00  0.00000000e+00  0.00000000e+00  0.00000000e+00
  0.00000000e+00  0.00000000e+00  0.00000000e+00  0.00000000e+00
  0.00000000e+00  0.00000000e+00  0.00000000e+00  0.00000000e+00
  0.00000000e+00  0.00000000e+00  0.00000000e+00  0.00000000e+00
  0.00000000e+00  0.00000000e+00 -6.14011266e-07 -2.27476550e-07
  0.00000000e+00  0.00000000e+00  0.00000000e+00  3.66510393e-06]","[[ 0.00025174  0.01091273]
 [-0.00024537  0.00703345]]",[],0.0,0.0
1787206417.3802912,2.095158767237311,1.1421653716575313,2.223044976799894,"[ 1.61728650e-05  3.07535517e-07  0.00000000e+00  0.00000000e+00
  0.00000000e+00 -6.14011266e-07  3.07535517e-07  1.29901555e-05
  0.00000000e+00  0.00000000e+00  0.00000000e+00 -2.27476550e-07
  0.00000000e+00  0.00000000e+00  0.00000000e+00  0.00000000e+00
  0.00000000e+00  0.00000000e+00  0.00000000e+00  0.00000000e+00
  0.00000000e+00  0.00000000e+00  0.00000000e+00  0.00000000e+00
  0.00000000e+00  0.00000000e+00  0.00000000e+00  0.00000000e+00
  0.00000000e+00  0.00000000e+00 -6.14011266e-07 -2.27476550e-07
  0.00000000e+00  0.00000000e+00  0.00000000e+00  3.66510393e-06]","[[ 0.00025174  0.01091273]
 [-0.00024537  0.00703345]]",[],0.0,0.0
1787206417.5464787,2.096456996928114,1.1262378619751157,2.237103943291368,"[ 1.25139221e-05  1.95416144e-07  0.00000000e+00  0.00000000e+00
  0.00000000e+00 -7.22173370e-07  1.95416144e-07  1.03327419e-05
  0.00000000e+00  0.00000000e+00  0.00000000e+00 -1.58226319e-07
  0.00000000e+00  0.00000000e+00  0.00000000e+00  0.00000000e+00
  0.00000000e+00  0.00000000e+00  0.00000000e+00  0.00000000e+00
  0.00000000e+00  0.00000000e+00  0.00000000e+00  0.00000000e+00
  0.00000000e+00  0.00000000e+00  0.00000000e+00  0.00000000e+00
  0.00000000e+00  0.00000000e+00 -7.22173370e-07 -1.58226319e-07
  0.00000000e+00  0.00000000e+00  0.00000000e+00  3.23477010e-06]","[[ 0.00019391  0.00880522]
 [-0.00019712  0.0054386 ]]",[],0.0,0.0
1787206417.6588047,2.096456996928114,1.1262378619751157,2.237103943291368,"[ 1.25139221e-05  1.95416144e-07  0.00000000e+00  0.00000000e+00
  0.00000000e+00 -7.22173370e-07  1.95416144e-07  1.03327419e-05
  0.00000000e+00  0.00000000e+00  0.00000000e+00 -1.58226319e-07
  0.00000000e+00  0.00000000e+00  0.00000000e+00  0.00000000e+00
  0.00000000e+00  0.00000000e+00  0.00000000e+00  0.00000000e+00
  0.00000000e+00  0.00000000e+00  0.00000000e+00  0.00000000e+00
  0.00000000e+00  0.00000000e+00  0.00000000e+00  0.00000000e+00
  0.00000000e+00  0.00000000e+00 -7.22173370e-07 -1.58226319e-07
  0.00000000e+00  0.00000000e+00  0.00000000e+00  3.23477010e-06]","[[ 0.00019391  0.00880522]
 [-0.00019712  0.0054386 ]]",[],0.0,0.0
1787206417.6743805,2.096456996928114,1.1262378619751157,2.237103943291368,"[ 1.25139221e-05  1.95416144e-07  0.00000000e+00  0.00000000e+00
  0.00000000e+00 -7.22173370e-07  1.95416144e-07  1.03327419e-05
  0.00000000e+00  0.00000000e+00  0.00000000e+00 -1.58226319e-07
  0.00000000e+00  0.00000000e+00  0.00000000e+00  0.00000000e+00
  0.00000000e+00  0.00000000e+00  0.00000000e+00  0.00000000e+00
  0.00000000e+00  0.00000000e+00  0.00000000e+00  0.00000000e+00
  0.00000000e+00  0.00000000e+00  0.00000000e+00  0.00000000e+00
  0.00000000e+00  0.00000000e+00 -7.22173370e-07 -1.58226319e-07
  0.00000000e+00  0.00000000e+00  0.00000000e+00  3.23477010e-06]","[[ 0.00019391  0.00880522]
 [-0.00019712  0.0054386 ]]",[],0.0,0.0
1787206418.0127296,2.096456996928114,1.1262378619751157,2.237103943291368,"[ 1.25139221e-05  1.95416144e-07  0.00000000e+00  0.00000000e+00
  0.00000000e+00 -7.22173370e-07  1.95416144e-07  1.03327419e-05
  0.00000000e+00  0.00000000e+00  0.00000000e+00 -1.58226319e-07
  0.00000000e+00  0.00000000e+00  0.00000000e+00  0.00000000e+00
  0.00000000e+00  0.00000000e+00  0.00000000e+00  0.00000000e+00
  0.00000000e+00  0.00000000e+00  0.00000000e+00  0.00000000e+00
  0.00000000e+00  0.00000000e+00  0.00000000e+00  0.00000000e+00
  0.00000000e+00  0.00000000e+00 -7.22173370e-07 -1.58226319e-07
  0.00000000e+00  0.00000000e+00  0.00000000e+00  3.23477010e-06]","[[ 0.00019391  0.00880522]
 [-0.00019712  0.0054386 ]]",[],0.0,0.0
1787206418.0280366,2.096456996928114,1.1262378619751157,2.237103943291368,"[ 1.25139221e-05  1.95416144e-07  0.00000000e+00  0.00000000e+00
  0.00000000e+00 -7.22173370e-07  1.95416144e-07  1.03327419e-05
  0.00000000e+00  0.00000000e+00  0.00000000e+00 -1.58226319e-07
  0.00000000e+00  0.00000000e+00  0.00000000e+00  0.00000000e+00
  0.00000000e+00  0.00000000e+00  0.00000000e+00  0.00000000e+00
  0.00000000e+00  0.00000000e+00  0.00000000e+00  0.00000000e+00
  0.00000000e+00  0.00000000e+00  0.00000000e+00  0.00000000e+00
  0.00000000e+00  0.00000000e+00 -7.22173370e-07 -1.58226319e-07
  0.00000000e+00  0.00000000e+00  0.00000000e+00  3.23477010e-06]","[[ 0.00019391  0.00880522]
 [-0.00019712  0.0054386 ]]",[],0.0,0.0
1787206418.152104,2.096456996928114,1.1262378619751157,2.237103943291368,"[ 1.25139221e-05  1.95416144e-07  0.00000000e+00  0.00000000e+00
  0.00000000e+00 -7.22173370e-07  1.95416144e-07  1.03327419e-05
  0.00000000e+00  0.00000000e+00  0.00000000e+00 -1.58226319e-07
  0.00000000e+00  0.00000000e+00  0.00000000e+00  0.00000000e+00
  0.00000000e+00  0.00000000e+00  0.00000000e+00  0.00000000e+00
  0.00000000e+00  0.00000000e+00  0.00000000e+00  0.00000000e+00
  0.00000000e+00  0.00000000e+00  0.00000000e+00  0.00000000e+00
  0.00000000e+00  0.00000000e+00 -7.22173370e-07 -1.58226319e-07
  0.00000000e+00  0.00000000e+00  0.00000000e+00  3.23477010e-06]","[[ 0.00019391  0.00880522]
 [-0.00019712  0.0054386 ]]",[],0.0,0.0
1787206418.4597735,2.099425632547188,1.1087646547773937,2.2424215386245514,"[ 1.03541276e-05  8.97010653e-08  0.00000000e+00  0.00000000e+00
  0.00000000e+00 -5.73300705e-07  8.97010653e-08  8.65026113e-06
  0.00000000e+00  0.00000000e+00  0.00000000e+00 -1.58552622e-07
  0.00000000e+00  0.00000000e+00  0.00000000e+00  0.00000000e+00
  0.00000000e+00  0.00000000e+00  0.00000000e+00  0.00000000e+00
  0.00000000e+00  0.00000000e+00  0.00000000e+00  0.00000000e+00
  0.00000000e+00  0.00000000e+00  0.00000000e+00  0.00000000e+00
  0.00000000e+00  0.00000000e+00 -5.73300705e-07 -1.58552622e-07
  0.00000000e+00  0.00000000e+00  0.00000000e+00  3.33019623e-06]","[[ 0.00016099  0.00719272]
 [-0.00016677  0.00450385]]",[],0.0,0.0
1787206418.474738,2.099425632547188,1.1087646547773937,2.2424215386245514,"[ 1.03541276e-05  8.97010653e-08  0.00000000e+00  0.00000000e+00
  0.00000000e+00 -5.73300705e-07  8.97010653e-08  8.65026113e-06
  0.00000000e+00  0.00000000e+00  0.00000000e+00 -1.58552622e-07
  0.00000000e+00  0.00000000e+00  0.00000000e+00  0.00000000e+00
  0.00000000e+00  0.00000000e+00  0.00000000e+00  0.00000000e+00
  0.00000000e+00  0.00000000e+00  0.00000000e+00  0.00000000e+00
  0.00000000e+00  0.00000000e+00  0.00000000e+00  0.00000000e+00
  0.00000000e+00  0.00000000e+00 -5.73300705e-07 -1.58552622e-07
  0.00000000e+00  0.00000000e+00  0.00000000e+00  3.33019623e-06]","[[ 0.00016099  0.00719272]
 [-0.00016677  0.00450385]]",[],0.0,0.0
1787206418.6896698,2.099425632547188,1.1087646547773937,2.2424215386245514,"[ 1.03541276e-05  8.97010653e-08  0.00000000e+00  0.00000000e+00
  0.00000000e+00 -5.73300705e-07  8.97010653e-08  8.65026113e-06
  0.00000000e+00  0.00000000e+00  0.00000000e+00 -1.58552622e-07
  0.00000000e+00  0.00000000e+00  0.00000000e+00  0.00000000e+00
  0.00000000e+00  0.00000000e+00  0.00000000e+00  0.00000000e+00
  0.00000000e+00  0.00000000e+00  0.00000000e+00  0.00000000e+00
  0.00000000e+00  0.00000000e+00  0.00000000e+00  0.00000000e+00
  0.00000000e+00  0.00000000e+00 -5.73300705e-07 -1.58552622e-07
  0.00000000e+00  0.00000000e+00  0.00000000e+00  3.33019623e-06]","[[ 0.00016099  0.00719272]
 [-0.00016677  0.00450385]]",[],0.0,0.0
1787206418.7421272,2.099425632547188,1.1087646547773937,2.2424215386245514,"[ 1.03541276e-05  8.97010653e-08  0.00000000e+00  0.00000000e+00
  0.00000000e+00 -5.73300705e-07  8.97010653e-08  8.65026113e-06
  0.00000000e+00  0.00000000e+00  0.00000000e+00 -1.58552622e-07
  0.00000000e+00  0.00000000e+00  0.00000000e+00  0.00000000e+00
  0.00000000e+00  0.00000000e+00  0.00000000e+00  0.00000000e+00
  0.00000000e+00  0.00000000e+00  0.00000000e+00  0.00000000e+00
  0.00000000e+00  0.00000000e+00  0.00000000e+00  0.00000000e+00
  0.00000000e+00  0.00000000e+00 -5.73300705e-07 -1.58552622e-07
  0.00000000e+00  0.00000000e+00  0.00000000e+00  3.33019623e-06]","[[ 0.00016099  0.00719272]
 [-0.00016677  0.00450385]]",[],0.0,0.0
1787206418.7762215,2.099425632547188,1.1087646547773937,2.2424215386245514,"[ 1.03541276e-05  8.97010653e-08  0.00000000e+00  0.00000000e+00
  0.00000000e+00 -5.73300705e-07  8.97010653e-08  8.65026113e-06
  0.00000000e+00  0.00000000e+00  0.00000000e+00 -1.58552622e-07
  0.00000000e+00  0.00000000e+00  0.00000000e+00  0.00000000e+00
  0.00000000e+00  0.00000000e+00  0.00000000e+00  0.00000000e+00
  0.00000000e+00  0.00000000e+00  0.00000000e+00  0.00000000e+00
  0.00000000e+00  0.00000000e+00  0.00000000e+00  0.00000000e+00
  0.00000000e+00  0.00000000e+00 -5.73300705e-07 -1.58552622e-07
  0.00000000e+00  0.00000000e+00  0.00000000e+00  3.33019623e-06]","[[ 0.00016099  0.00719272]
 [-0.00016677  0.00450385]]",[],0.0,0.0
1787206418.8285694,2.099425632547188,1.1087646547773937,2.2424215386245514,"[ 1.03541276e-05  8.97010653e-08  0.00000000e+00  0.00000000e+00
  0.00000000e+00 -5.73300705e-07  8.97010653e-08  8.65026113e-06
  0.00000000e+00  0.00000000e+00  0.00000000e+00 -1.58552622e-07
  0.00000000e+00  0.00000000e+00  0.00000000e+00  0.00000000e+00
  0.00000000e+00  0.00000000e+00  0.00000000e+00  0.00000000e+00
  0.00000000e+00  0.00000000e+00  0.00000000e+00  0.00000000e+00
  0.00000000e+00  0.00000000e+00  0.00000000e+00  0.00000000e+00
  0.00000000e+00  0.00000000e+00 -5.73300705e-07 -1.58552622e-07
  0.00000000e+00  0.00000000e+00  0.00000000e+00  3.33019623e-06]","[[ 0.00016099  0.00719272]
 [-0.00016677  0.00450385]]",[],0.0,0.0
1787206418.8926072,2.099425632547188,1.1087646547773937,2.2424215386245514,"[ 1.03541276e-05  8.97010653e-08  0.00000000e+00  0.00000000e+00
  0.00000000e+00 -5.73300705e-07  8.97010653e-08  8.65026113e-06
  0.00000000e+00  0.00000000e+00  0.00000000e+00 -1.58552622e-07
  0.00000000e+00  0.00000000e+00  0.00000000e+00  0.00000000e+00
  0.00000000e+00  0.00000000e+00  0.00000000e+00  0.00000000e+00
  0.00000000e+00  0.00000000e+00  0.00000000e+00  0.00000000e+00
  0.00000000e+00  0.00000000e+00  0.00000000e+00  0.00000000e+00
  0.00000000e+00  0.00000000e+00 -5.73300705e-07 -1.58552622e-07
  0.00000000e+00  0.00000000e+00  0.00000000e+00  3.33019623e-06]","[[ 0.00016099  0.00719272]
 [-0.00016677  0.00450385]]",[],0.0,0.0
1787206419.3166387,2.099254635034877,1.0941585908281317,2.2444449046681214,"[ 8.82347346e-06  1.93061054e-08  0.00000000e+00  0.00000000e+00
  0.00000000e+00 -4.56376706e-07  1.93061054e-08  7.44282017e-06
  0.00000000e+00  0.00000000e+00  0.00000000e+00 -9.72581105e-08
  0.00000000e+00  0.00000000e+00  0.00000000e+00  0.00000000e+00
  0.00000000e+00  0.00000000e+00  0.00000000e+00  0.00000000e+00
  0.00000000e+00  0.00000000e+00  0.00000000e+00  0.00000000e+00
  0.00000000e+00  0.00000000e+00  0.00000000e+00  0.00000000e+00
  0.00000000e+00  0.00000000e+00 -4.56376706e-07 -9.72581105e-08
  0.00000000e+00  0.00000000e+00  0.00000000e+00  3.22488108e-06]","[[ 0.00013761  0.0060276 ]
 [-0.00014487  0.00373215]]",[],0.0,0.0
1787206419.3222702,2.099254635034877,1.0941585908281317,2.2444449046681214,"[ 8.82347346e-06  1.93061054e-08  0.00000000e+00  0.00000000e+00
  0.00000000e+00 -4.56376706e-07  1.93061054e-08  7.44282017e-06
  0.00000000e+00  0.00000000e+00  0.00000000e+00 -9.72581105e-08
  0.00000000e+00  0.00000000e+00  0.00000000e+00  0.00000000e+00
  0.00000000e+00  0.00000000e+00  0.00000000e+00  0.00000000e+00
  0.00000000e+00  0.00000000e+00  0.00000000e+00  0.00000000e+00
  0.00000000e+00  0.00000000e+00  0.00000000e+00  0.00000000e+00
  0.00000000e+00  0.00000000e+00 -4.56376706e-07 -9.72581105e-08
  0.00000000e+00  0.00000000e+00  0.00000000e+00  3.22488108e-06]","[[ 0.00013761  0.0060276 ]
 [-0.00014487  0.00373215]]",[],0.0,0.0
1787206419.3732076,2.099254635034877,1.0941585908281317,2.2444449046681214,"[ 8.82347346e-06  1.93061054e-08  0.00000000e+00  0.00000000e+00
  0.00000000e+00 -4.56376706e-07  1.93061054e-08  7.44282017e-06
  0.00000000e+00  0.00000000e+00  0.00000000e+00 -9.72581105e-08
  0.00000000e+00  0.00000000e+00  0.00000000e+00  0.00000000e+00
  0.00000000e+00  0.00000000e+00  0.00000000e+00  0.00000000e+00
  0.00000000e+00  0.00000000e+00  0.00000000e+00  0.00000000e+00
  0.00000000e+00  0.00000000e+00  0.00000000e+00  0.00000000e+00
  0.00000000e+00  0.00000000e+00 -4.56376706e-07 -9.72581105e-08
  0.00000000e+00  0.00000000e+00  0.00000000e+00  3.22488108e-06]","[[ 0.00013761  0.0060276 ]
 [-0.00014487  0.00373215]]",[],0.0,0.0
1787206419.4984696,2.099254635034877,1.0941585908281317,2.2444449046681214,"[ 8.82347346e-06  1.93061054e-08  0.00000000e+00  0.00000000e+00
  0.00000000e+00 -4.56376706e-07  1.93061054e-08  7.44282017e-06
  0.00000000e+00  0.00000000e+00  0.00000000e+00 -9.72581105e-08
  0.00000000e+00  0.00000000e+00  0.00000000e+00  0.00000000e+00
  0.00000000e+00  0.00000000e+00  0.00000000e+00  0.00000000e+00
  0.00000000e+00  0.00000000e+00  0.00000000e+00  0.00000000e+00
  0.00000000e+00  0.00000000e+00  0.00000000e+00  0.00000000e+00
  0.00000000e+00  0.00000000e+00 -4.56376706e-07 -9.72581105e-08
  0.00000000e+00  0.00000000e+00  0.00000000e+00  3.22488108e-06]","[[ 0.00013761  0.0060276 ]
 [-0.00014487  0.00373215]]",[],0.0,0.0
1787206419.5417051,2.099254635034877,1.0941585908281317,2.2444449046681214,"[ 8.82347346e-06  1.93061054e-08  0.00000000e+00  0.00000000e+00
  0.00000000e+00 -4.56376706e-07  1.93061054e-08  7.44282017e-06
  0.00000000e+00  0.00000000e+00  0.00000000e+00 -9.72581105e-08
  0.00000000e+00  0.00000000e+00  0.00000000e+00  0.00000000e+00
  0.00000000e+00  0.00000000e+00  0.00000000e+00  0.00000000e+00
  0.00000000e+00  0.00000000e+00  0.00000000e+00  0.00000000e+00
  0.00000000e+00  0.00000000e+00  0.00000000e+00  0.00000000e+00
  0.00000000e+00  0.00000000e+00 -4.56376706e-07 -9.72581105e-08
  0.00000000e+00  0.00000000e+00  0.00000000e+00  3.22488108e-06]","[[ 0.00013761  0.0060276 ]
 [-0.00014487  0.00373215]]",[],0.0,0.0
1787206419.633067,2.099254635034877,1.0941585908281317,2.2444449046681214,"[ 8.82347346e-06  1.93061054e-08  0.00000000e+00  0.00000000e+00
  0.00000000e+00 -4.56376706e-07  1.93061054e-08  7.44282017e-06
  0.00000000e+00  0.00000000e+00  0.00000000e+00 -9.72581105e-08
  0.00000000e+00  0.00000000e+00  0.00000000e+00  0.00000000e+00
  0.00000000e+00  0.00000000e+00  0.00000000e+00  0.00000000e+00
  0.00000000e+00  0.00000000e+00  0.00000000e+00  0.00000000e+00
  0.00000000e+00  0.00000000e+00  0.00000000e+00  0.00000000e+00
  0.00000000e+00  0.00000000e+00 -4.56376706e-07 -9.72581105e-08
  0.00000000e+00  0.00000000e+00  0.00000000e+00  3.22488108e-06]","[[ 0.00013761  0.0060276 ]
 [-0.00014487  0.00373215]]",[],0.0,0.0
1787206419.819219,2.0996100262502306,1.081566013490964,2.25895144968623,"[ 7.68172597e-06 -5.78943495e-08  0.00000000e+00  0.00000000e+00
  0.00000000e+00 -4.47340719e-07 -5.78943495e-08  6.53464689e-06
  0.00000000e+00  0.00000000e+00  0.00000000e+00 -1.43288099e-07
  0.00000000e+00  0.00000000e+00  0.00000000e+00  0.00000000e+00
  0.00000000e+00  0.00000000e+00  0.00000000e+00  0.00000000e+00
  0.00000000e+00  0.00000000e+00  0.00000000e+00  0.00000000e+00
  0.00000000e+00  0.00000000e+00  0.00000000e+00  0.00000000e+00
  0.00000000e+00  0.00000000e+00 -4.47340719e-07 -1.43288099e-07
  0.00000000e+00  0.00000000e+00  0.00000000e+00  3.24752578e-06]","[[ 0.00012062  0.00528664]
 [-0.00012879  0.00329511]]",[],0.0,0.0
1787206419.8322918,2.0996100262502306,1.081566013490964,2.25895144968623,"[ 7.68172597e-06 -5.78943495e-08  0.00000000e+00  0.00000000e+00
  0.00000000e+00 -4.47340719e-07 -5.78943495e-08  6.53464689e-06
  0.00000000e+00  0.00000000e+00  0.00000000e+00 -1.43288099e-07
  0.00000000e+00  0.00000000e+00  0.00000000e+00  0.00000000e+00
  0.00000000e+00  0.00000000e+00  0.00000000e+00  0.00000000e+00
  0.00000000e+00  0.00000000e+00  0.00000000e+00  0.00000000e+00
  0.00000000e+00  0.00000000e+00  0.00000000e+00  0.00000000e+00
  0.00000000e+00  0.00000000e+00 -4.47340719e-07 -1.43288099e-07
  0.00000000e+00  0.00000000e+00  0.00000000e+00  3.24752578e-06]","[[ 0.00012062  0.00528664]
 [-0.00012879  0.00329511]]",[],0.0,0.0
1787206419.8822155,2.0996100262502306,1.081566013490964,2.25895144968623,"[ 7.68172597e-06 -5.78943495e-08  0.00000000e+00  0.00000000e+00
  0.00000000e+00 -4.47340719e-07 -5.78943495e-08  6.53464689e-06
  0.00000000e+00  0.00000000e+00  0.00000000e+00 -1.43288099e-07
  0.00000000e+00  0.00000000e+00  0.00000000e+00  0.00000000e+00
  0.00000000e+00  0.00000000e+00  0.00000000e+00  0.00000000e+00
  0.00000000e+00  0.00000000e+00  0.00000000e+00  0.00000000e+00
  0.00000000e+00  0.00000000e+00  0.00000000e+00  0.00000000e+00
  0.00000000e+00  0.00000000e+00 -4.47340719e-07 -1.43288099e-07
  0.00000000e+00  0.00000000e+00  0.00000000e+00  3.24752578e-06]","[[ 0.00012062  0.00528664]
 [-0.00012879  0.00329511]]",[],0.0,0.0
1787206420.1209023,2.0996100262502306,1.081566013490964,2.25895144968623,"[ 7.68172597e-06 -5.78943495e-08  0.00000000e+00  0.00000000e+00
  0.00000000e+00 -4.47340719e-07 -5.78943495e-08  6.53464689e-06
  0.00000000e+00  0.00000000e+00  0.00000000e+00 -1.43288099e-07
  0.00000000e+00  0.00000000e+00  0.00000000e+00  0.00000000e+00
  0.00000000e+00  0.00000000e+00  0.00000000e+00  0.00000000e+00
  0.00000000e+00  0.00000000e+00  0.00000000e+00  0.00000000e+00
  0.00000000e+00  0.00000000e+00  0.00000000e+00  0.00000000e+00
  0.00000000e+00  0.00000000e+00 -4.47340719e-07 -1.43288099e-07
  0.00000000e+00  0.00000000e+00  0.00000000e+00  3.24752578e-06]","[[ 0.00012062  0.00528664]
 [-0.00012879  0.00329511]]",[],0.0,0.0
1787206420.136911,2.0996100262502306,1.081566013490964,2.25895144968623,"[ 7.68172597e-06 -5.78943495e-08  0.00000000e+00  0.00000000e+00
  0.00000000e+00 -4.47340719e-07 -5.78943495e-08  6.53464689e-06
  0.00000000e+00  0.00000000e+00  0.00000000e+00 -1.43288099e-07
  0.00000000e+00  0.00000000e+00  0.00000000e+00  0.00000000e+00
  0.00000000e+00  0.00000000e+00  0.00000000e+00  0.00000000e+00
  0.00000000e+00  0.00000000e+00  0.00000000e+00  0.00000000e+00
  0.00000000e+00  0.00000000e+00  0.00000000e+00  0.00000000e+00
  0.00000000e+00  0.00000000e+00 -4.47340719e-07 -1.43288099e-07
  0.00000000e+00  0.00000000e+00  0.00000000e+00  3.24752578e-06]","[[ 0.00012062  0.00528664]
 [-0.00012879  0.00329511]]",[],0.0,0.0
1787206420.2309628,2.0996100262502306,1.081566013490964,2.25895144968623,"[ 7.68172597e-06 -5.78943495e-08  0.00000000e+00  0.00000000e+00
  0.00000000e+00 -4.47340719e-07 -5.78943495e-08  6.53464689e-06
  0.00000000e+00  0.00000000e+00  0.00000000e+00 -1.43288099e-07
  0.00000000e+00  0.00000000e+00  0.00000000e+00  0.00000000e+00
  0.00000000e+00  0.00000000e+00  0.00000000e+00  0.00000000e+00
  0.00000000e+00  0.00000000e+00  0.00000000e+00  0.00000000e+00
  0.00000000e+00  0.00000000e+00  0.00000000e+00  0.00000000e+00
  0.00000000e+00  0.00000000e+00 -4.47340719e-07 -1.43288099e-07
  0.00000000e+00  0.00000000e+00  0.00000000e+00  3.24752578e-06]","[[ 0.00012062  0.00528664]
 [-0.00012879  0.00329511]]",[],0.0,0.0
1787206420.2777195,2.0996100262502306,1.081566013490964,2.25895144968623,"[ 7.68172597e-06 -5.78943495e-08  0.00000000e+00  0.00000000e+00
  0.00000000e+00 -4.47340719e-07 -5.78943495e-08  6.53464689e-06
  0.00000000e+00  0.00000000e+00  0.00000000e+00 -1.43288099e-07
  0.00000000e+00  0.00000000e+00  0.00000000e+00  0.00000000e+00
  0.00000000e+00  0.00000000e+00  0.00000000e+00  0.00000000e+00
  0.00000000e+00  0.00000000e+00  0.00000000e+00  0.00000000e+00
  0.00000000e+00  0.00000000e+00  0.00000000e+00  0.00000000e+00
  0.00000000e+00  0.00000000e+00 -4.47340719e-07 -1.43288099e-07
  0.00000000e+00  0.00000000e+00  0.00000000e+00  3.24752578e-06]","[[ 0.00012062  0.00528664]
 [-0.00012879  0.00329511]]",[],0.0,0.0
1787206420.4543424,2.0996100262502306,1.081566013490964,2.25895144968623,"[ 7.68172597e-06 -5.78943495e-08  0.00000000e+00  0.00000000e+00
  0.00000000e+00 -4.47340719e-07 -5.78943495e-08  6.53464689e-06
  0.00000000e+00  0.00000000e+00  0.00000000e+00 -1.43288099e-07
  0.00000000e+00  0.00000000e+00  0.00000000e+00  0.00000000e+00
  0.00000000e+00  0.00000000e+00  0.00000000e+00  0.00000000e+00
  0.00000000e+00  0.00000000e+00  0.00000000e+00  0.00000000e+00
  0.00000000e+00  0.00000000e+00  0.00000000e+00  0.00000000e+00
  0.00000000e+00  0.00000000e+00 -4.47340719e-07 -1.43288099e-07
  0.00000000e+00  0.00000000e+00  0.00000000e+00  3.24752578e-06]","[[ 0.00012062  0.00528664]
 [-0.00012879  0.00329511]]",[],0.0,0.0
1787206420.6580272,2.0960492335654983,1.071023707151675,2.2720558424661252,"[ 6.76424058e-06 -1.32724546e-07  0.00000000e+00  0.00000000e+00
  0.00000000e+00 -3.37342230e-07 -1.32724546e-07  5.84197008e-06
  0.00000000e+00  0.00000000e+00  0.00000000e+00 -4.80312581e-08
  0.00000000e+00  0.00000000e+00  0.00000000e+00  0.00000000e+00
  0.00000000e+00  0.00000000e+00  0.00000000e+00  0.00000000e+00
  0.00000000e+00  0.00000000e+00  0.00000000e+00  0.00000000e+00
  0.00000000e+00  0.00000000e+00  0.00000000e+00  0.00000000e+00
  0.00000000e+00  0.00000000e+00 -3.37342230e-07 -4.80312581e-08
  0.00000000e+00  0.00000000e+00  0.00000000e+00  3.15394028e-06]","[[ 0.00010736  0.00451592]
 [-0.0001167   0.00274057]]",[],0.0,0.0
1787206420.679659,2.0960492335654983,1.071023707151675,2.2720558424661252,"[ 6.76424058e-06 -1.32724546e-07  0.00000000e+00  0.00000000e+00
  0.00000000e+00 -3.37342230e-07 -1.32724546e-07  5.84197008e-06
  0.00000000e+00  0.00000000e+00  0.00000000e+00 -4.80312581e-08
  0.00000000e+00  0.00000000e+00  0.00000000e+00  0.00000000e+00
  0.00000000e+00  0.00000000e+00  0.00000000e+00  0.00000000e+00
  0.00000000e+00  0.00000000e+00  0.00000000e+00  0.00000000e+00
  0.00000000e+00  0.00000000e+00  0.00000000e+00  0.00000000e+00
  0.00000000e+00  0.00000000e+00 -3.37342230e-07 -4.80312581e-08
  0.00000000e+00  0.00000000e+00  0.00000000e+00  3.15394028e-06]","[[ 0.00010736  0.00451592]
 [-0.0001167   0.00274057]]",[],0.0,0.0
1787206420.7301223,2.0960492335654983,1.071023707151675,2.2720558424661252,"[ 6.76424058e-06 -1.32724546e-07  0.00000000e+00  0.00000000e+00
  0.00000000e+00 -3.37342230e-07 -1.32724546e-07  5.84197008e-06
  0.00000000e+00  0.00000000e+00  0.00000000e+00 -4.80312581e-08
  0.00000000e+00  0.00000000e+00  0.00000000e+00  0.00000000e+00
  0.00000000e+00  0.00000000e+00  0.00000000e+00  0.00000000e+00
  0.00000000e+00  0.00000000e+00  0.00000000e+00  0.00000000e+00
  0.00000000e+00  0.00000000e+00  0.00000000e+00  0.00000000e+00
  0.00000000e+00  0.00000000e+00 -3.37342230e-07 -4.80312581e-08
  0.00000000e+00  0.00000000e+00  0.00000000e+00  3.15394028e-06]","[[ 0.00010736  0.00451592]
 [-0.0001167   0.00274057]]",[],0.0,0.0
1787206420.777506,2.0960492335654983,1.071023707151675,2.2720558424661252,"[ 6.76424058e-06 -1.32724546e-07  0.00000000e+00  0.00000000e+00
  0.00000000e+00 -3.37342230e-07 -1.32724546e-07  5.84197008e-06
  0.00000000e+00  0.00000000e+00  0.00000000e+00 -4.80312581e-08
  0.00000000e+00  0.00000000e+00  0.00000000e+00  0.00000000e+00
  0.00000000e+00  0.00000000e+00  0.00000000e+00  0.00000000e+00
  0.00000000e+00  0.00000000e+00  0.00000000e+00  0.00000000e+00
  0.00000000e+00  0.00000000e+00  0.00000000e+00  0.00000000e+00
  0.00000000e+00  0.00000000e+00 -3.37342230e-07 -4.80312581e-08
  0.00000000e+00  0.00000000e+00  0.00000000e+00  3.15394028e-06]","[[ 0.00010736  0.00451592]
 [-0.0001167   0.00274057]]",[],0.0,0.0
1787206420.8591814,2.0960492335654983,1.071023707151675,2.2720558424661252,"[ 6.76424058e-06 -1.32724546e-07  0.00000000e+00  0.00000000e+00
  0.00000000e+00 -3.37342230e-07 -1.32724546e-07  5.84197008e-06
  0.00000000e+00  0.00000000e+00  0.00000000e+00 -4.80312581e-08
  0.00000000e+00  0.00000000e+00  0.00000000e+00  0.00000000e+00
  0.00000000e+00  0.00000000e+00  0.00000000e+00  0.00000000e+00
  0.00000000e+00  0.00000000e+00  0.00000000e+00  0.00000000e+00
  0.00000000e+00  0.00000000e+00  0.00000000e+00  0.00000000e+00
  0.00000000e+00  0.00000000e+00 -3.37342230e-07 -4.80312581e-08
  0.00000000e+00  0.00000000e+00  0.00000000e+00  3.15394028e-06]","[[ 0.00010736  0.00451592]
 [-0.0001167   0.00274057]]",[],0.0,0.0
1787206420.876905,2.0960492335654983,1.071023707151675,2.2720558424661252,"[ 6.76424058e-06 -1.32724546e-07  0.00000000e+00  0.00000000e+00
  0.00000000e+00 -3.37342230e-07 -1.32724546e-07  5.84197008e-06
  0.00000000e+00  0.00000000e+00  0.00000000e+00 -4.80312581e-08
  0.00000000e+00  0.00000000e+00  0.00000000e+00  0.00000000e+00
  0.00000000e+00  0.00000000e+00  0.00000000e+00  0.00000000e+00
  0.00000000e+00  0.00000000e+00  0.00000000e+00  0.00000000e+00
  0.00000000e+00  0.00000000e+00  0.00000000e+00  0.00000000e+00
  0.00000000e+00  0.00000000e+00 -3.37342230e-07 -4.80312581e-08
  0.00000000e+00  0.00000000e+00  0.00000000e+00  3.15394028e-06]","[[ 0.00010736  0.00451592]
 [-0.0001167   0.00274057]]",[],0.0,0.0
1787206420.922467,2.0960492335654983,1.071023707151675,2.2720558424661252,"[ 6.76424058e-06 -1.32724546e-07  0.00000000e+00  0.00000000e+00
  0.00000000e+00 -3.37342230e-07 -1.32724546e-07  5.84197008e-06
  0.00000000e+00  0.00000000e+00  0.00000000e+00 -4.80312581e-08
  0.00000000e+00  0.00000000e+00  0.00000000e+00  0.00000000e+00
  0.00000000e+00  0.00000000e+00  0.00000000e+00  0.00000000e+00
  0.00000000e+00  0.00000000e+00  0.00000000e+00  0.00000000e+00
  0.00000000e+00  0.00000000e+00  0.00000000e+00  0.00000000e+00
  0.00000000e+00  0.00000000e+00 -3.37342230e-07 -4.80312581e-08
  0.00000000e+00  0.00000000e+00  0.00000000e+00  3.15394028e-06]","[[ 0.00010736  0.00451592]
 [-0.0001167   0.00274057]]",[],0.0,0.0
1787206420.9733016,2.0960492335654983,1.071023707151675,2.2720558424661252,"[ 6.76424058e-06 -1.32724546e-07  0.00000000e+00  0.00000000e+00
  0.00000000e+00 -3.37342230e-07 -1.32724546e-07  5.84197008e-06
  0.00000000e+00  0.00000000e+00  0.00000000e+00 -4.80312581e-08
  0.00000000e+00  0.00000000e+00  0.00000000e+00  0.00000000e+00
  0.00000000e+00  0.00000000e+00  0.00000000e+00  0.00000000e+00
  0.00000000e+00  0.00000000e+00  0.00000000e+00  0.00000000e+00
  0.00000000e+00  0.00000000e+00  0.00000000e+00  0.00000000e+00
  0.00000000e+00  0.00000000e+00 -3.37342230e-07 -4.80312581e-08
  0.00000000e+00  0.00000000e+00  0.00000000e+00  3.15394028e-06]","[[ 0.00010736  0.00451592]
 [-0.0001167   0.00274057]]",[],0.0,0.0
1787206421.0257103,2.0960492335654983,1.071023707151675,2.2720558424661252,"[ 6.76424058e-06 -1.32724546e-07  0.00000000e+00  0.00000000e+00
  0.00000000e+00 -3.37342230e-07 -1.32724546e-07  5.84197008e-06
  0.00000000e+00  0.00000000e+00  0.00000000e+00 -4.80312581e-08
  0.00000000e+00  0.00000000e+00  0.00000000e+00  0.00000000e+00
  0.00000000e+00  0.00000000e+00  0.00000000e+00  0.00000000e+00
  0.00000000e+00  0.00000000e+00  0.00000000e+00  0.00000000e+00
  0.00000000e+00  0.00000000e+00  0.00000000e+00  0.00000000e+00
  0.00000000e+00  0.00000000e+00 -3.37342230e-07 -4.80312581e-08
  0.00000000e+00  0.00000000e+00  0.00000000e+00  3.15394028e-06]","[[ 0.00010736  0.00451592]
 [-0.0001167   0.00274057]]",[],0.0,0.0
1787206421.0727074,2.0960492335654983,1.071023707151675,2.2720558424661252,"[ 6.76424058e-06 -1.32724546e-07  0.00000000e+00  0.00000000e+00
  0.00000000e+00 -3.37342230e-07 -1.32724546e-07  5.84197008e-06
  0.00000000e+00  0.00000000e+00  0.00000000e+00 -4.80312581e-08
  0.00000000e+00  0.00000000e+00  0.00000000e+00  0.00000000e+00
  0.00000000e+00  0.00000000e+00  0.00000000e+00  0.00000000e+00
  0.00000000e+00  0.00000000e+00  0.00000000e+00  0.00000000e+00
  0.00000000e+00  0.00000000e+00  0.00000000e+00  0.00000000e+00
  0.00000000e+00  0.00000000e+00 -3.37342230e-07 -4.80312581e-08
  0.00000000e+00  0.00000000e+00  0.00000000e+00  3.15394028e-06]","[[ 0.00010736  0.00451592]
 [-0.0001167   0.00274057]]",[],0.0,0.0
1787206421.122964,2.0960492335654983,1.071023707151675,2.2720558424661252,"[ 6.76424058e-06 -1.32724546e-07  0.00000000e+00  0.00000000e+00
  0.00000000e+00 -3.37342230e-07 -1.32724546e-07  5.84197008e-06
  0.00000000e+00  0.00000000e+00  0.00000000e+00 -4.80312581e-08
  0.00000000e+00  0.00000000e+00  0.00000000e+00  0.00000000e+00
  0.00000000e+00  0.00000000e+00  0.00000000e+00  0.00000000e+00
  0.00000000e+00  0.00000000e+00  0.00000000e+00  0.00000000e+00
  0.00000000e+00  0.00000000e+00  0.00000000e+00  0.00000000e+00
  0.00000000e+00  0.00000000e+00 -3.37342230e-07 -4.80312581e-08
  0.00000000e+00  0.00000000e+00  0.00000000e+00  3.15394028e-06]","[[ 0.00010736  0.00451592]
 [-0.0001167   0.00274057]]",[],0.0,0.0
1787206421.1729112,2.0960492335654983,1.071023707151675,2.2720558424661252,"[ 6.76424058e-06 -1.32724546e-07  0.00000000e+00  0.00000000e+00
  0.00000000e+00 -3.37342230e-07 -1.32724546e-07  5.84197008e-06
  0.00000000e+00  0.00000000e+00  0.00000000e+00 -4.80312581e-08
  0.00000000e+00  0.00000000e+00  0.00000000e+00  0.00000000e+00
  0.00000000e+00  0.00000000e+00  0.00000000e+00  0.00000000e+00
  0.00000000e+00  0.00000000e+00  0.00000000e+00  0.00000000e+00
  0.00000000e+00  0.00000000e+00  0.00000000e+00  0.00000000e+00
  0.00000000e+00  0.00000000e+00 -3.37342230e-07 -4.80312581e-08
  0.00000000e+00  0.00000000e+00  0.00000000e+00  3.15394028e-06]","[[ 0.00010736  0.00451592]
 [-0.0001167   0.00274057]]",[],0.0,0.0
1787206421.2236023,2.0960492335654983,1.071023707151675,2.2720558424661252,"[ 6.76424058e-06 -1.32724546e-07  0.00000000e+00  0.00000000e+00
  0.00000000e+00 -3.37342230e-07 -1.32724546e-07  5.84197008e-06
  0.00000000e+00  0.00000000e+00  0.00000000e+00 -4.80312581e-08
  0.00000000e+00  0.00000000e+00  0.00000000e+00  0.00000000e+00
  0.00000000e+00  0.00000000e+00  0.00000000e+00  0.00000000e+00
  0.00000000e+00  0.00000000e+00  0.00000000e+00  0.00000000e+00
  0.00000000e+00  0.00000000e+00  0.00000000e+00  0.00000000e+00
  0.00000000e+00  0.00000000e+00 -3.37342230e-07 -4.80312581e-08
  0.00000000e+00  0.00000000e+00  0.00000000e+00  3.15394028e-06]","[[ 0.00010736  0.00451592]
 [-0.0001167   0.00274057]]",[],0.0,0.0
1787206421.2819965,2.0960492335654983,1.071023707151675,2.2720558424661252,"[ 6.76424058e-06 -1.32724546e-07  0.00000000e+00  0.00000000e+00
  0.00000000e+00 -3.37342230e-07 -1.32724546e-07  5.84197008e-06
  0.00000000e+00  0.00000000e+00  0.00000000e+00 -4.80312581e-08
  0.00000000e+00  0.00000000e+00  0.00000000e+00  0.00000000e+00
  0.00000000e+00  0.00000000e+00  0.00000000e+00  0.00000000e+00
  0.00000000e+00  0.00000000e+00  0.00000000e+00  0.00000000e+00
  0.00000000e+00  0.00000000e+00  0.00000000e+00  0.00000000e+00
  0.00000000e+00  0.00000000e+00 -3.37342230e-07 -4.80312581e-08
  0.00000000e+00  0.00000000e+00  0.00000000e+00  3.15394028e-06]","[[ 0.00010736  0.00451592]
 [-0.0001167   0.00274057]]",[],0.0,0.0
1787206421.3321881,2.0960492335654983,1.071023707151675,2.2720558424661252,"[ 6.76424058e-06 -1.32724546e-07  0.00000000e+00  0.00000000e+00
  0.00000000e+00 -3.37342230e-07 -1.32724546e-07  5.84197008e-06
  0.00000000e+00  0.00000000e+00  0.00000000e+00 -4.80312581e-08
  0.00000000e+00  0.00000000e+00  0.00000000e+00  0.00000000e+00
  0.00000000e+00  0.00000000e+00  0.00000000e+00  0.00000000e+00
  0.00000000e+00  0.00000000e+00  0.00000000e+00  0.00000000e+00
  0.00000000e+00  0.00000000e+00  0.00000000e+00  0.00000000e+00
  0.00000000e+00  0.00000000e+00 -3.37342230e-07 -4.80312581e-08
  0.00000000e+00  0.00000000e+00  0.00000000e+00  3.15394028e-06]","[[ 0.00010736  0.00451592]
 [-0.0001167   0.00274057]]",[],0.0,0.0
1787206421.3790252,2.0960492335654983,1.071023707151675,2.2720558424661252,"[ 6.76424058e-06 -1.32724546e-07  0.00000000e+00  0.00000000e+00
  0.00000000e+00 -3.37342230e-07 -1.32724546e-07  5.84197008e-06
  0.00000000e+00  0.00000000e+00  0.00000000e+00 -4.80312581e-08
  0.00000000e+00  0.00000000e+00  0.00000000e+00  0.00000000e+00
  0.00000000e+00  0.00000000e+00  0.00000000e+00  0.00000000e+00
  0.00000000e+00  0.00000000e+00  0.00000000e+00  0.00000000e+00
  0.00000000e+00  0.00000000e+00  0.00000000e+00  0.00000000e+00
  0.00000000e+00  0.00000000e+00 -3.37342230e-07 -4.80312581e-08
  0.00000000e+00  0.00000000e+00  0.00000000e+00  3.15394028e-06]","[[ 0.00010736  0.00451592]
 [-0.0001167   0.00274057]]",[],0.0,0.0
1787206421.4265585,2.0960492335654983,1.071023707151675,2.2720558424661252,"[ 6.76424058e-06 -1.32724546e-07  0.00000000e+00  0.00000000e+00
  0.00000000e+00 -3.37342230e-07 -1.32724546e-07  5.84197008e-06
  0.00000000e+00  0.00000000e+00  0.00000000e+00 -4.80312581e-08
  0.00000000e+00  0.00000000e+00  0.00000000e+00  0.00000000e+00
  0.00000000e+00  0.00000000e+00  0.00000000e+00  0.00000000e+00
  0.00000000e+00  0.00000000e+00  0.00000000e+00  0.00000000e+00
  0.00000000e+00  0.00000000e+00  0.00000000e+00  0.00000000e+00
  0.00000000e+00  0.00000000e+00 -3.37342230e-07 -4.80312581e-08
  0.00000000e+00  0.00000000e+00  0.00000000e+00  3.15394028e-06]","[[ 0.00010736  0.00451592]
 [-0.0001167   0.00274057]]",[],0.0,0.0
1787206421.4730906,2.093243993349907,1.0613828284430862,2.3092739501711783,"[ 6.12335791e-06 -2.35898124e-07  0.00000000e+00  0.00000000e+00
  0.00000000e+00 -3.30425159e-07 -2.35898124e-07  5.35779083e-06
  0.00000000e+00  0.00000000e+00  0.00000000e+00 -1.35174185e-08
  0.00000000e+00  0.00000000e+00  0.00000000e+00  0.00000000e+00
  0.00000000e+00  0.00000000e+00  0.00000000e+00  0.00000000e+00
  0.00000000e+00  0.00000000e+00  0.00000000e+00  0.00000000e+00
  0.00000000e+00  0.00000000e+00  0.00000000e+00  0.00000000e+00
  0.00000000e+00  0.00000000e+00 -3.30425159e-07 -1.35174185e-08
  0.00000000e+00  0.00000000e+00  0.00000000e+00  3.30500491e-06]","[[ 9.89666528e-05  4.07813563e-03]
 [-1.09133162e-04  2.37446732e-03]]",[],0.0,0.0
1787206421.5255904,2.093243993349907,1.0613828284430862,2.3092739501711783,"[ 6.12335791e-06 -2.35898124e-07  0.00000000e+00  0.00000000e+00
  0.00000000e+00 -3.30425159e-07 -2.35898124e-07  5.35779083e-06
  0.00000000e+00  0.00000000e+00  0.00000000e+00 -1.35174185e-08
  0.00000000e+00  0.00000000e+00  0.00000000e+00  0.00000000e+00
  0.00000000e+00  0.00000000e+00  0.00000000e+00  0.00000000e+00
  0.00000000e+00  0.00000000e+00  0.00000000e+00  0.00000000e+00
  0.00000000e+00  0.00000000e+00  0.00000000e+00  0.00000000e+00
  0.00000000e+00  0.00000000e+00 -3.30425159e-07 -1.35174185e-08
  0.00000000e+00  0.00000000e+00  0.00000000e+00  3.30500491e-06]","[[ 9.89666528e-05  4.07813563e-03]
 [-1.09133162e-04  2.37446732e-03]]",[],0.0,0.0
1787206421.5761018,2.093243993349907,1.0613828284430862,2.3092739501711783,"[ 6.12335791e-06 -2.35898124e-07  0.00000000e+00  0.00000000e+00
  0.00000000e+00 -3.30425159e-07 -2.35898124e-07  5.35779083e-06
  0.00000000e+00  0.00000000e+00  0.00000000e+00 -1.35174185e-08
  0.00000000e+00  0.00000000e+00  0.00000000e+00  0.00000000e+00
  0.00000000e+00  0.00000000e+00  0.00000000e+00  0.00000000e+00
  0.00000000e+00  0.00000000e+00  0.00000000e+00  0.00000000e+00
  0.00000000e+00  0.00000000e+00  0.00000000e+00  0.00000000e+00
  0.00000000e+00  0.00000000e+00 -3.30425159e-07 -1.35174185e-08
  0.00000000e+00  0.00000000e+00  0.00000000e+00  3.30500491e-06]","[[ 9.89666528e-05  4.07813563e-03]
 [-1.09133162e-04  2.37446732e-03]]",[],0.0,0.0
1787206421.623146,2.093243993349907,1.0613828284430862,2.3092739501711783,"[ 6.12335791e-06 -2.35898124e-07  0.00000000e+00  0.00000000e+00
  0.00000000e+00 -3.30425159e-07 -2.35898124e-07  5.35779083e-06
  0.00000000e+00  0.00000000e+00  0.00000000e+00 -1.35174185e-08
  0.00000000e+00  0.00000000e+00  0.00000000e+00  0.00000000e+00
  0.00000000e+00  0.00000000e+00  0.00000000e+00  0.00000000e+00
  0.00000000e+00  0.00000000e+00  0.00000000e+00  0.00000000e+00
  0.00000000e+00  0.00000000e+00  0.00000000e+00  0.00000000e+00
  0.00000000e+00  0.00000000e+00 -3.30425159e-07 -1.35174185e-08
  0.00000000e+00  0.00000000e+00  0.00000000e+00  3.30500491e-06]","[[ 9.89666528e-05  4.07813563e-03]
 [-1.09133162e-04  2.37446732e-03]]",[],0.0,0.0
1787206421.6730266,2.093243993349907,1.0613828284430862,2.3092739501711783,"[ 6.12335791e-06 -2.35898124e-07  0.00000000e+00  0.00000000e+00
  0.00000000e+00 -3.30425159e-07 -2.35898124e-07  5.35779083e-06
  0.00000000e+00  0.00000000e+00  0.00000000e+00 -1.35174185e-08
  0.00000000e+00  0.00000000e+00  0.00000000e+00  0.00000000e+00
  0.00000000e+00  0.00000000e+00  0.00000000e+00  0.00000000e+00
  0.00000000e+00  0.00000000e+00  0.00000000e+00  0.00000000e+00
  0.00000000e+00  0.00000000e+00  0.00000000e+00  0.00000000e+00
  0.00000000e+00  0.00000000e+00 -3.30425159e-07 -1.35174185e-08
  0.00000000e+00  0.00000000e+00  0.00000000e+00  3.30500491e-06]","[[ 9.89666528e-05  4.07813563e-03]
 [-1.09133162e-04  2.37446732e-03]]",[],0.0,0.0
1787206421.7299345,2.093243993349907,1.0613828284430862,2.3092739501711783,"[ 6.12335791e-06 -2.35898124e-07  0.00000000e+00  0.00000000e+00
  0.00000000e+00 -3.30425159e-07 -2.35898124e-07  5.35779083e-06
  0.00000000e+00  0.00000000e+00  0.00000000e+00 -1.35174185e-08
  0.00000000e+00  0.00000000e+00  0.00000000e+00  0.00000000e+00
  0.00000000e+00  0.00000000e+00  0.00000000e+00  0.00000000e+00
  0.00000000e+00  0.00000000e+00  0.00000000e+00  0.00000000e+00
  0.00000000e+00  0.00000000e+00  0.00000000e+00  0.00000000e+00
  0.00000000e+00  0.00000000e+00 -3.30425159e-07 -1.35174185e-08
  0.00000000e+00  0.00000000e+00  0.00000000e+00  3.30500491e-06]","[[ 9.89666528e-05  4.07813563e-03]
 [-1.09133162e-04  2.37446732e-03]]",[],0.0,0.0
1787206421.7723866,2.093243993349907,1.0613828284430862,2.3092739501711783,"[ 6.12335791e-06 -2.35898124e-07  0.00000000e+00  0.00000000e+00
  0.00000000e+00 -3.30425159e-07 -2.35898124e-07  5.35779083e-06
  0.00000000e+00  0.00000000e+00  0.00000000e+00 -1.35174185e-08
  0.00000000e+00  0.00000000e+00  0.00000000e+00  0.00000000e+00
  0.00000000e+00  0.00000000e+00  0.00000000e+00  0.00000000e+00
  0.00000000e+00  0.00000000e+00  0.00000000e+00  0.00000000e+00
  0.00000000e+00  0.00000000e+00  0.00000000e+00  0.00000000e+00
  0.00000000e+00  0.00000000e+00 -3.30425159e-07 -1.35174185e-08
  0.00000000e+00  0.00000000e+00  0.00000000e+00  3.30500491e-06]","[[ 9.89666528e-05  4.07813563e-03]
 [-1.09133162e-04  2.37446732e-03]]",[],0.0,0.0
1787206421.8233986,2.093243993349907,1.0613828284430862,2.3092739501711783,"[ 6.12335791e-06 -2.35898124e-07  0.00000000e+00  0.00000000e+00
  0.00000000e+00 -3.30425159e-07 -2.35898124e-07  5.35779083e-06
  0.00000000e+00  0.00000000e+00  0.00000000e+00 -1.35174185e-08
  0.00000000e+00  0.00000000e+00  0.00000000e+00  0.00000000e+00
  0.00000000e+00  0.00000000e+00  0.00000000e+00  0.00000000e+00
  0.00000000e+00  0.00000000e+00  0.00000000e+00  0.00000000e+00
  0.00000000e+00  0.00000000e+00  0.00000000e+00  0.00000000e+00
  0.00000000e+00  0.00000000e+00 -3.30425159e-07 -1.35174185e-08
  0.00000000e+00  0.00000000e+00  0.00000000e+00  3.30500491e-06]","[[ 9.89666528e-05  4.07813563e-03]
 [-1.09133162e-04  2.37446732e-03]]",[],0.0,0.0
1787206421.873256,2.093243993349907,1.0613828284430862,2.3092739501711783,"[ 6.12335791e-06 -2.35898124e-07  0.00000000e+00  0.00000000e+00
  0.00000000e+00 -3.30425159e-07 -2.35898124e-07  5.35779083e-06
  0.00000000e+00  0.00000000e+00  0.00000000e+00 -1.35174185e-08
  0.00000000e+00  0.00000000e+00  0.00000000e+00  0.00000000e+00
  0.00000000e+00  0.00000000e+00  0.00000000e+00  0.00000000e+00
  0.00000000e+00  0.00000000e+00  0.00000000e+00  0.00000000e+00
  0.00000000e+00  0.00000000e+00  0.00000000e+00  0.00000000e+00
  0.00000000e+00  0.00000000e+00 -3.30425159e-07 -1.35174185e-08
  0.00000000e+00  0.00000000e+00  0.00000000e+00  3.30500491e-06]","[[ 9.89666528e-05  4.07813563e-03]
 [-1.09133162e-04  2.37446732e-03]]",[],0.0,0.0
1787206421.9278002,2.093243993349907,1.0613828284430862,2.3092739501711783,"[ 6.12335791e-06 -2.35898124e-07  0.00000000e+00  0.00000000e+00
  0.00000000e+00 -3.30425159e-07 -2.35898124e-07  5.35779083e-06
  0.00000000e+00  0.00000000e+00  0.00000000e+00 -1.35174185e-08
  0.00000000e+00  0.00000000e+00  0.00000000e+00  0.00000000e+00
  0.00000000e+00  0.00000000e+00  0.00000000e+00  0.00000000e+00
  0.00000000e+00  0.00000000e+00  0.00000000e+00  0.00000000e+00
  0.00000000e+00  0.00000000e+00  0.00000000e+00  0.00000000e+00
  0.00000000e+00  0.00000000e+00 -3.30425159e-07 -1.35174185e-08
  0.00000000e+00  0.00000000e+00  0.00000000e+00  3.30500491e-06]","[[ 9.89666528e-05  4.07813563e-03]
 [-1.09133162e-04  2.37446732e-03]]",[],0.0,0.0
1787206421.9736145,2.093243993349907,1.0613828284430862,2.3092739501711783,"[ 6.12335791e-06 -2.35898124e-07  0.00000000e+00  0.00000000e+00
  0.00000000e+00 -3.30425159e-07 -2.35898124e-07  5.35779083e-06
  0.00000000e+00  0.00000000e+00  0.00000000e+00 -1.35174185e-08
  0.00000000e+00  0.00000000e+00  0.00000000e+00  0.00000000e+00
  0.00000000e+00  0.00000000e+00  0.00000000e+00  0.00000000e+00
  0.00000000e+00  0.00000000e+00  0.00000000e+00  0.00000000e+00
  0.00000000e+00  0.00000000e+00  0.00000000e+00  0.00000000e+00
  0.00000000e+00  0.00000000e+00 -3.30425159e-07 -1.35174185e-08
  0.00000000e+00  0.00000000e+00  0.00000000e+00  3.30500491e-06]","[[ 9.89666528e-05  4.07813563e-03]
 [-1.09133162e-04  2.37446732e-03]]",[],0.0,0.0
1787206422.0226285,2.093243993349907,1.0613828284430862,2.3092739501711783,"[ 6.12335791e-06 -2.35898124e-07  0.00000000e+00  0.00000000e+00
  0.00000000e+00 -3.30425159e-07 -2.35898124e-07  5.35779083e-06
  0.00000000e+00  0.00000000e+00  0.00000000e+00 -1.35174185e-08
  0.00000000e+00  0.00000000e+00  0.00000000e+00  0.00000000e+00
  0.00000000e+00  0.00000000e+00  0.00000000e+00  0.00000000e+00
  0.00000000e+00  0.00000000e+00  0.00000000e+00  0.00000000e+00
  0.00000000e+00  0.00000000e+00  0.00000000e+00  0.00000000e+00
  0.00000000e+00  0.00000000e+00 -3.30425159e-07 -1.35174185e-08
  0.00000000e+00  0.00000000e+00  0.00000000e+00  3.30500491e-06]","[[ 9.89666528e-05  4.07813563e-03]
 [-1.09133162e-04  2.37446732e-03]]",[],0.0,0.0
1787206422.0733433,2.093243993349907,1.0613828284430862,2.3092739501711783,"[ 6.12335791e-06 -2.35898124e-07  0.00000000e+00  0.00000000e+00
  0.00000000e+00 -3.30425159e-07 -2.35898124e-07  5.35779083e-06
  0.00000000e+00  0.00000000e+00  0.00000000e+00 -1.35174185e-08
  0.00000000e+00  0.00000000e+00  0.00000000e+00  0.00000000e+00
  0.00000000e+00  0.00000000e+00  0.00000000e+00  0.00000000e+00
  0.00000000e+00  0.00000000e+00  0.00000000e+00  0.00000000e+00
  0.00000000e+00  0.00000000e+00  0.00000000e+00  0.00000000e+00
  0.00000000e+00  0.00000000e+00 -3.30425159e-07 -1.35174185e-08
  0.00000000e+00  0.00000000e+00  0.00000000e+00  3.30500491e-06]","[[ 9.89666528e-05  4.07813563e-03]
 [-1.09133162e-04  2.37446732e-03]]",[],0.0,0.0
1787206422.1222746,2.093243993349907,1.0613828284430862,2.3092739501711783,"[ 6.12335791e-06 -2.35898124e-07  0.00000000e+00  0.00000000e+00
  0.00000000e+00 -3.30425159e-07 -2.35898124e-07  5.35779083e-06
  0.00000000e+00  0.00000000e+00  0.00000000e+00 -1.35174185e-08
  0.00000000e+00  0.00000000e+00  0.00000000e+00  0.00000000e+00
  0.00000000e+00  0.00000000e+00  0.00000000e+00  0.00000000e+00
  0.00000000e+00  0.00000000e+00  0.00000000e+00  0.00000000e+00
  0.00000000e+00  0.00000000e+00  0.00000000e+00  0.00000000e+00
  0.00000000e+00  0.00000000e+00 -3.30425159e-07 -1.35174185e-08
  0.00000000e+00  0.00000000e+00  0.00000000e+00  3.30500491e-06]","[[ 9.89666528e-05  4.07813563e-03]
 [-1.09133162e-04  2.37446732e-03]]",[],0.0,0.0
1787206422.1750672,2.093243993349907,1.0613828284430862,2.3092739501711783,"[ 6.12335791e-06 -2.35898124e-07  0.00000000e+00  0.00000000e+00
  0.00000000e+00 -3.30425159e-07 -2.35898124e-07  5.35779083e-06
  0.00000000e+00  0.00000000e+00  0.00000000e+00 -1.35174185e-08
  0.00000000e+00  0.00000000e+00  0.00000000e+00  0.00000000e+00
  0.00000000e+00  0.00000000e+00  0.00000000e+00  0.00000000e+00
  0.00000000e+00  0.00000000e+00  0.00000000e+00  0.00000000e+00
  0.00000000e+00  0.00000000e+00  0.00000000e+00  0.00000000e+00
  0.00000000e+00  0.00000000e+00 -3.30425159e-07 -1.35174185e-08
  0.00000000e+00  0.00000000e+00  0.00000000e+00  3.30500491e-06]","[[ 9.89666528e-05  4.07813563e-03]
 [-1.09133162e-04  2.37446732e-03]]",[],0.0,0.0
1787206422.2226768,2.093243993349907,1.0613828284430862,2.3092739501711783,"[ 6.12335791e-06 -2.35898124e-07  0.00000000e+00  0.00000000e+00
  0.00000000e+00 -3.30425159e-07 -2.35898124e-07  5.35779083e-06
  0.00000000e+00  0.00000000e+00  0.00000000e+00 -1.35174185e-08
  0.00000000e+00  0.00000000e+00  0.00000000e+00  0.00000000e+00
  0.00000000e+00  0.00000000e+00  0.00000000e+00  0.00000000e+00
  0.00000000e+00  0.00000000e+00  0.00000000e+00  0.00000000e+00
  0.00000000e+00  0.00000000e+00  0.00000000e+00  0.00000000e+00
  0.00000000e+00  0.00000000e+00 -3.30425159e-07 -1.35174185e-08
  0.00000000e+00  0.00000000e+00  0.00000000e+00  3.30500491e-06]","[[ 9.89666528e-05  4.07813563e-03]
 [-1.09133162e-04  2.37446732e-03]]",[],0.0,0.0
1787206422.2763653,2.093243993349907,1.0613828284430862,2.3092739501711783,"[ 6.12335791e-06 -2.35898124e-07  0.00000000e+00  0.00000000e+00
  0.00000000e+00 -3.30425159e-07 -2.35898124e-07  5.35779083e-06
  0.00000000e+00  0.00000000e+00  0.00000000e+00 -1.35174185e-08
  0.00000000e+00  0.00000000e+00  0.00000000e+00  0.00000000e+00
  0.00000000e+00  0.00000000e+00  0.00000000e+00  0.00000000e+00
  0.00000000e+00  0.00000000e+00  0.00000000e+00  0.00000000e+00
  0.00000000e+00  0.00000000e+00  0.00000000e+00  0.00000000e+00
  0.00000000e+00  0.00000000e+00 -3.30425159e-07 -1.35174185e-08
  0.00000000e+00  0.00000000e+00  0.00000000e+00  3.30500491e-06]","[[ 9.89666528e-05  4.07813563e-03]
 [-1.09133162e-04  2.37446732e-03]]",[],0.0,0.0
1787206422.3303194,2.093243993349907,1.0613828284430862,2.3092739501711783,"[ 6.12335791e-06 -2.35898124e-07  0.00000000e+00  0.00000000e+00
  0.00000000e+00 -3.30425159e-07 -2.35898124e-07  5.35779083e-06
  0.00000000e+00  0.00000000e+00  0.00000000e+00 -1.35174185e-08
  0.00000000e+00  0.00000000e+00  0.00000000e+00  0.00000000e+00
  0.00000000e+00  0.00000000e+00  0.00000000e+00  0.00000000e+00
  0.00000000e+00  0.00000000e+00  0.00000000e+00  0.00000000e+00
  0.00000000e+00  0.00000000e+00  0.00000000e+00  0.00000000e+00
  0.00000000e+00  0.00000000e+00 -3.30425159e-07 -1.35174185e-08
  0.00000000e+00  0.00000000e+00  0.00000000e+00  3.30500491e-06]","[[ 9.89666528e-05  4.07813563e-03]
 [-1.09133162e-04  2.37446732e-03]]",[],0.0,0.0
1787206422.3724103,2.093243993349907,1.0613828284430862,2.3092739501711783,"[ 6.12335791e-06 -2.35898124e-07  0.00000000e+00  0.00000000e+00
  0.00000000e+00 -3.30425159e-07 -2.35898124e-07  5.35779083e-06
  0.00000000e+00  0.00000000e+00  0.00000000e+00 -1.35174185e-08
  0.00000000e+00  0.00000000e+00  0.00000000e+00  0.00000000e+00
  0.00000000e+00  0.00000000e+00  0.00000000e+00  0.00000000e+00
  0.00000000e+00  0.00000000e+00  0.00000000e+00  0.00000000e+00
  0.00000000e+00  0.00000000e+00  0.00000000e+00  0.00000000e+00
  0.00000000e+00  0.00000000e+00 -3.30425159e-07 -1.35174185e-08
  0.00000000e+00  0.00000000e+00  0.00000000e+00  3.30500491e-06]","[[ 9.89666528e-05  4.07813563e-03]
 [-1.09133162e-04  2.37446732e-03]]",[],0.0,0.0
1787206422.4248629,2.093243993349907,1.0613828284430862,2.3092739501711783,"[ 6.12335791e-06 -2.35898124e-07  0.00000000e+00  0.00000000e+00
  0.00000000e+00 -3.30425159e-07 -2.35898124e-07  5.35779083e-06
  0.00000000e+00  0.00000000e+00  0.00000000e+00 -1.35174185e-08
  0.00000000e+00  0.00000000e+00  0.00000000e+00  0.00000000e+00
  0.00000000e+00  0.00000000e+00  0.00000000e+00  0.00000000e+00
  0.00000000e+00  0.00000000e+00  0.00000000e+00  0.00000000e+00
  0.00000000e+00  0.00000000e+00  0.00000000e+00  0.00000000e+00
  0.00000000e+00  0.00000000e+00 -3.30425159e-07 -1.35174185e-08
  0.00000000e+00  0.00000000e+00  0.00000000e+00  3.30500491e-06]","[[ 9.89666528e-05  4.07813563e-03]
 [-1.09133162e-04  2.37446732e-03]]",[],0.0,0.0
1787206422.4734945,2.093243993349907,1.0613828284430862,2.3092739501711783,"[ 6.12335791e-06 -2.35898124e-07  0.00000000e+00  0.00000000e+00
  0.00000000e+00 -3.30425159e-07 -2.35898124e-07  5.35779083e-06
  0.00000000e+00  0.00000000e+00  0.00000000e+00 -1.35174185e-08
  0.00000000e+00  0.00000000e+00  0.00000000e+00  0.00000000e+00
  0.00000000e+00  0.00000000e+00  0.00000000e+00  0.00000000e+00
  0.00000000e+00  0.00000000e+00  0.00000000e+00  0.00000000e+00
  0.00000000e+00  0.00000000e+00  0.00000000e+00  0.00000000e+00
  0.00000000e+00  0.00000000e+00 -3.30425159e-07 -1.35174185e-08
  0.00000000e+00  0.00000000e+00  0.00000000e+00  3.30500491e-06]","[[ 9.89666528e-05  4.07813563e-03]
 [-1.09133162e-04  2.37446732e-03]]",[],0.0,0.0
1787206422.5261312,2.093243993349907,1.0613828284430862,2.3092739501711783,"[ 6.12335791e-06 -2.35898124e-07  0.00000000e+00  0.00000000e+00
  0.00000000e+00 -3.30425159e-07 -2.35898124e-07  5.35779083e-06
  0.00000000e+00  0.00000000e+00  0.00000000e+00 -1.35174185e-08
  0.00000000e+00  0.00000000e+00  0.00000000e+00  0.00000000e+00
  0.00000000e+00  0.00000000e+00  0.00000000e+00  0.00000000e+00
  0.00000000e+00  0.00000000e+00  0.00000000e+00  0.00000000e+00
  0.00000000e+00  0.00000000e+00  0.00000000e+00  0.00000000e+00
  0.00000000e+00  0.00000000e+00 -3.30425159e-07 -1.35174185e-08
  0.00000000e+00  0.00000000e+00  0.00000000e+00  3.30500491e-06]","[[ 9.89666528e-05  4.07813563e-03]
 [-1.09133162e-04  2.37446732e-03]]",[],0.0,0.0
1787206422.5723653,2.093243993349907,1.0613828284430862,2.3092739501711783,"[ 6.12335791e-06 -2.35898124e-07  0.00000000e+00  0.00000000e+00
  0.00000000e+00 -3.30425159e-07 -2.35898124e-07  5.35779083e-06
  0.00000000e+00  0.00000000e+00  0.00000000e+00 -1.35174185e-08
  0.00000000e+00  0.00000000e+00  0.00000000e+00  0.00000000e+00
  0.00000000e+00  0.00000000e+00  0.00000000e+00  0.00000000e+00
  0.00000000e+00  0.00000000e+00  0.00000000e+00  0.00000000e+00
  0.00000000e+00  0.00000000e+00  0.00000000e+00  0.00000000e+00
  0.00000000e+00  0.00000000e+00 -3.30425159e-07 -1.35174185e-08
  0.00000000e+00  0.00000000e+00  0.00000000e+00  3.30500491e-06]","[[ 9.89666528e-05  4.07813563e-03]
 [-1.09133162e-04  2.37446732e-03]]",[],0.0,0.0
1787206422.6227763,2.0910870406425546,1.0521723235737825,2.376579585524153,"[ 5.66140248e-06 -3.88011936e-07  0.00000000e+00  0.00000000e+00
  0.00000000e+00 -2.15138951e-07 -3.88011936e-07  5.02946787e-06
  0.00000000e+00  0.00000000e+00  0.00000000e+00 -1.46097955e-08
  0.00000000e+00  0.00000000e+00  0.00000000e+00  0.00000000e+00
  0.00000000e+00  0.00000000e+00  0.00000000e+00  0.00000000e+00
  0.00000000e+00  0.00000000e+00  0.00000000e+00  0.00000000e+00
  0.00000000e+00  0.00000000e+00  0.00000000e+00  0.00000000e+00
  0.00000000e+00  0.00000000e+00 -2.15138951e-07 -1.46097955e-08
  0.00000000e+00  0.00000000e+00  0.00000000e+00  3.44030758e-06]","[[ 9.44540593e-05  3.54403044e-03]
 [-1.05269662e-04  2.11568989e-03]]",[],0.0,0.0
1787206422.6784236,2.0910870406425546,1.0521723235737825,2.376579585524153,"[ 5.66140248e-06 -3.88011936e-07  0.00000000e+00  0.00000000e+00
  0.00000000e+00 -2.15138951e-07 -3.88011936e-07  5.02946787e-06
  0.00000000e+00  0.00000000e+00  0.00000000e+00 -1.46097955e-08
  0.00000000e+00  0.00000000e+00  0.00000000e+00  0.00000000e+00
  0.00000000e+00  0.00000000e+00  0.00000000e+00  0.00000000e+00
  0.00000000e+00  0.00000000e+00  0.00000000e+00  0.00000000e+00
  0.00000000e+00  0.00000000e+00  0.00000000e+00  0.00000000e+00
  0.00000000e+00  0.00000000e+00 -2.15138951e-07 -1.46097955e-08
  0.00000000e+00  0.00000000e+00  0.00000000e+00  3.44030758e-06]","[[ 9.44540593e-05  3.54403044e-03]
 [-1.05269662e-04  2.11568989e-03]]",[],0.0,0.0
1787206422.7291472,2.0910870406425546,1.0521723235737825,2.376579585524153,"[ 5.66140248e-06 -3.88011936e-07  0.00000000e+00  0.00000000e+00
  0.00000000e+00 -2.15138951e-07 -3.88011936e-07  5.02946787e-06
  0.00000000e+00  0.00000000e+00  0.00000000e+00 -1.46097955e-08
  0.00000000e+00  0.00000000e+00  0.00000000e+00  0.00000000e+00
  0.00000000e+00  0.00000000e+00  0.00000000e+00  0.00000000e+00
  0.00000000e+00  0.00000000e+00  0.00000000e+00  0.00000000e+00
  0.00000000e+00  0.00000000e+00  0.00000000e+00  0.00000000e+00
  0.00000000e+00  0.00000000e+00 -2.15138951e-07 -1.46097955e-08
  0.00000000e+00  0.00000000e+00  0.00000000e+00  3.44030758e-06]","[[ 9.44540593e-05  3.54403044e-03]
 [-1.05269662e-04  2.11568989e-03]]",[],0.0,0.0
1787206422.7793474,2.0910870406425546,1.0521723235737825,2.376579585524153,"[ 5.66140248e-06 -3.88011936e-07  0.00000000e+00  0.00000000e+00
  0.00000000e+00 -2.15138951e-07 -3.88011936e-07  5.02946787e-06
  0.00000000e+00  0.00000000e+00  0.00000000e+00 -1.46097955e-08
  0.00000000e+00  0.00000000e+00  0.00000000e+00  0.00000000e+00
  0.00000000e+00  0.00000000e+00  0.00000000e+00  0.00000000e+00
  0.00000000e+00  0.00000000e+00  0.00000000e+00  0.00000000e+00
  0.00000000e+00  0.00000000e+00  0.00000000e+00  0.00000000e+00
  0.00000000e+00  0.00000000e+00 -2.15138951e-07 -1.46097955e-08
  0.00000000e+00  0.00000000e+00  0.00000000e+00  3.44030758e-06]","[[ 9.44540593e-05  3.54403044e-03]
 [-1.05269662e-04  2.11568989e-03]]",[],0.0,0.0
1787206422.8231192,2.0910870406425546,1.0521723235737825,2.376579585524153,"[ 5.66140248e-06 -3.88011936e-07  0.00000000e+00  0.00000000e+00
  0.00000000e+00 -2.15138951e-07 -3.88011936e-07  5.02946787e-06
  0.00000000e+00  0.00000000e+00  0.00000000e+00 -1.46097955e-08
  0.00000000e+00  0.00000000e+00  0.00000000e+00  0.00000000e+00
  0.00000000e+00  0.00000000e+00  0.00000000e+00  0.00000000e+00
  0.00000000e+00  0.00000000e+00  0.00000000e+00  0.00000000e+00
  0.00000000e+00  0.00000000e+00  0.00000000e+00  0.00000000e+00
  0.00000000e+00  0.00000000e+00 -2.15138951e-07 -1.46097955e-08
  0.00000000e+00  0.00000000e+00  0.00000000e+00  3.44030758e-06]","[[ 9.44540593e-05  3.54403044e-03]
 [-1.05269662e-04  2.11568989e-03]]",[],0.0,0.0
1787206422.8723388,2.0910870406425546,1.0521723235737825,2.376579585524153,"[ 5.66140248e-06 -3.88011936e-07  0.00000000e+00  0.00000000e+00
  0.00000000e+00 -2.15138951e-07 -3.88011936e-07  5.02946787e-06
  0.00000000e+00  0.00000000e+00  0.00000000e+00 -1.46097955e-08
  0.00000000e+00  0.00000000e+00  0.00000000e+00  0.00000000e+00
  0.00000000e+00  0.00000000e+00  0.00000000e+00  0.00000000e+00
  0.00000000e+00  0.00000000e+00  0.00000000e+00  0.00000000e+00
  0.00000000e+00  0.00000000e+00  0.00000000e+00  0.00000000e+00
  0.00000000e+00  0.00000000e+00 -2.15138951e-07 -1.46097955e-08
  0.00000000e+00  0.00000000e+00  0.00000000e+00  3.44030758e-06]","[[ 9.44540593e-05  3.54403044e-03]
 [-1.05269662e-04  2.11568989e-03]]",[],0.0,0.0
1787206422.92246,2.0910870406425546,1.0521723235737825,2.376579585524153,"[ 5.66140248e-06 -3.88011936e-07  0.00000000e+00  0.00000000e+00
  0.00000000e+00 -2.15138951e-07 -3.88011936e-07  5.02946787e-06
  0.00000000e+00  0.00000000e+00  0.00000000e+00 -1.46097955e-08
  0.00000000e+00  0.00000000e+00  0.00000000e+00  0.00000000e+00
  0.00000000e+00  0.00000000e+00  0.00000000e+00  0.00000000e+00
  0.00000000e+00  0.00000000e+00  0.00000000e+00  0.00000000e+00
  0.00000000e+00  0.00000000e+00  0.00000000e+00  0.00000000e+00
  0.00000000e+00  0.00000000e+00 -2.15138951e-07 -1.46097955e-08
  0.00000000e+00  0.00000000e+00  0.00000000e+00  3.44030758e-06]","[[ 9.44540593e-05  3.54403044e-03]
 [-1.05269662e-04  2.11568989e-03]]",[],0.0,0.0
1787206422.9744534,2.0910870406425546,1.0521723235737825,2.376579585524153,"[ 5.66140248e-06 -3.88011936e-07  0.00000000e+00  0.00000000e+00
  0.00000000e+00 -2.15138951e-07 -3.88011936e-07  5.02946787e-06
  0.00000000e+00  0.00000000e+00  0.00000000e+00 -1.46097955e-08
  0.00000000e+00  0.00000000e+00  0.00000000e+00  0.00000000e+00
  0.00000000e+00  0.00000000e+00  0.00000000e+00  0.00000000e+00
  0.00000000e+00  0.00000000e+00  0.00000000e+00  0.00000000e+00
  0.00000000e+00  0.00000000e+00  0.00000000e+00  0.00000000e+00
  0.00000000e+00  0.00000000e+00 -2.15138951e-07 -1.46097955e-08
  0.00000000e+00  0.00000000e+00  0.00000000e+00  3.44030758e-06]","[[ 9.44540593e-05  3.54403044e-03]
 [-1.05269662e-04  2.11568989e-03]]",[],0.0,0.0
1787206423.022721,2.0910870406425546,1.0521723235737825,2.376579585524153,"[ 5.66140248e-06 -3.88011936e-07  0.00000000e+00  0.00000000e+00
  0.00000000e+00 -2.15138951e-07 -3.88011936e-07  5.02946787e-06
  0.00000000e+00  0.00000000e+00  0.00000000e+00 -1.46097955e-08
  0.00000000e+00  0.00000000e+00  0.00000000e+00  0.00000000e+00
  0.00000000e+00  0.00000000e+00  0.00000000e+00  0.00000000e+00
  0.00000000e+00  0.00000000e+00  0.00000000e+00  0.00000000e+00
  0.00000000e+00  0.00000000e+00  0.00000000e+00  0.00000000e+00
  0.00000000e+00  0.00000000e+00 -2.15138951e-07 -1.46097955e-08
  0.00000000e+00  0.00000000e+00  0.00000000e+00  3.44030758e-06]","[[ 9.44540593e-05  3.54403044e-03]
 [-1.05269662e-04  2.11568989e-03]]",[],0.0,0.0
1787206423.0745175,2.0910870406425546,1.0521723235737825,2.376579585524153,"[ 5.66140248e-06 -3.88011936e-07  0.00000000e+00  0.00000000e+00
  0.00000000e+00 -2.15138951e-07 -3.88011936e-07  5.02946787e-06
  0.00000000e+00  0.00000000e+00  0.00000000e+00 -1.46097955e-08
  0.00000000e+00  0.00000000e+00  0.00000000e+00  0.00000000e+00
  0.00000000e+00  0.00000000e+00  0.00000000e+00  0.00000000e+00
  0.00000000e+00  0.00000000e+00  0.00000000e+00  0.00000000e+00
  0.00000000e+00  0.00000000e+00  0.00000000e+00  0.00000000e+00
  0.00000000e+00  0.00000000e+00 -2.15138951e-07 -1.46097955e-08
  0.00000000e+00  0.00000000e+00  0.00000000e+00  3.44030758e-06]","[[ 9.44540593e-05  3.54403044e-03]
 [-1.05269662e-04  2.11568989e-03]]",[],0.0,0.0
1787206423.129138,2.0910870406425546,1.0521723235737825,2.376579585524153,"[ 5.66140248e-06 -3.88011936e-07  0.00000000e+00  0.00000000e+00
  0.00000000e+00 -2.15138951e-07 -3.88011936e-07  5.02946787e-06
  0.00000000e+00  0.00000000e+00  0.00000000e+00 -1.46097955e-08
  0.00000000e+00  0.00000000e+00  0.00000000e+00  0.00000000e+00
  0.00000000e+00  0.00000000e+00  0.00000000e+00  0.00000000e+00
  0.00000000e+00  0.00000000e+00  0.00000000e+00  0.00000000e+00
  0.00000000e+00  0.00000000e+00  0.00000000e+00  0.00000000e+00
  0.00000000e+00  0.00000000e+00 -2.15138951e-07 -1.46097955e-08
  0.00000000e+00  0.00000000e+00  0.00000000e+00  3.44030758e-06]","[[ 9.44540593e-05  3.54403044e-03]
 [-1.05269662e-04  2.11568989e-03]]",[],0.0,0.0
1787206423.1727095,2.0910870406425546,1.0521723235737825,2.376579585524153,"[ 5.66140248e-06 -3.88011936e-07  0.00000000e+00  0.00000000e+00
  0.00000000e+00 -2.15138951e-07 -3.88011936e-07  5.02946787e-06
  0.00000000e+00  0.00000000e+00  0.00000000e+00 -1.46097955e-08
  0.00000000e+00  0.00000000e+00  0.00000000e+00  0.00000000e+00
  0.00000000e+00  0.00000000e+00  0.00000000e+00  0.00000000e+00
  0.00000000e+00  0.00000000e+00  0.00000000e+00  0.00000000e+00
  0.00000000e+00  0.00000000e+00  0.00000000e+00  0.00000000e+00
  0.00000000e+00  0.00000000e+00 -2.15138951e-07 -1.46097955e-08
  0.00000000e+00  0.00000000e+00  0.00000000e+00  3.44030758e-06]","[[ 9.44540593e-05  3.54403044e-03]
 [-1.05269662e-04  2.11568989e-03]]",[],0.0,0.0
1787206423.2269423,2.0910870406425546,1.0521723235737825,2.376579585524153,"[ 5.66140248e-06 -3.88011936e-07  0.00000000e+00  0.00000000e+00
  0.00000000e+00 -2.15138951e-07 -3.88011936e-07  5.02946787e-06
  0.00000000e+00  0.00000000e+00  0.00000000e+00 -1.46097955e-08
  0.00000000e+00  0.00000000e+00  0.00000000e+00  0.00000000e+00
  0.00000000e+00  0.00000000e+00  0.00000000e+00  0.00000000e+00
  0.00000000e+00  0.00000000e+00  0.00000000e+00  0.00000000e+00
  0.00000000e+00  0.00000000e+00  0.00000000e+00  0.00000000e+00
  0.00000000e+00  0.00000000e+00 -2.15138951e-07 -1.46097955e-08
  0.00000000e+00  0.00000000e+00  0.00000000e+00  3.44030758e-06]","[[ 9.44540593e-05  3.54403044e-03]
 [-1.05269662e-04  2.11568989e-03]]",[],0.0,0.0
1787206423.2724955,2.0910870406425546,1.0521723235737825,2.376579585524153,"[ 5.66140248e-06 -3.88011936e-07  0.00000000e+00  0.00000000e+00
  0.00000000e+00 -2.15138951e-07 -3.88011936e-07  5.02946787e-06
  0.00000000e+00  0.00000000e+00  0.00000000e+00 -1.46097955e-08
  0.00000000e+00  0.00000000e+00  0.00000000e+00  0.00000000e+00
  0.00000000e+00  0.00000000e+00  0.00000000e+00  0.00000000e+00
  0.00000000e+00  0.00000000e+00  0.00000000e+00  0.00000000e+00
  0.00000000e+00  0.00000000e+00  0.00000000e+00  0.00000000e+00
  0.00000000e+00  0.00000000e+00 -2.15138951e-07 -1.46097955e-08
  0.00000000e+00  0.00000000e+00  0.00000000e+00  3.44030758e-06]","[[ 9.44540593e-05  3.54403044e-03]
 [-1.05269662e-04  2.11568989e-03]]",[],0.0,0.0
1787206423.3278768,2.0910870406425546,1.0521723235737825,2.376579585524153,"[ 5.66140248e-06 -3.88011936e-07  0.00000000e+00  0.00000000e+00
  0.00000000e+00 -2.15138951e-07 -3.88011936e-07  5.02946787e-06
  0.00000000e+00  0.00000000e+00  0.00000000e+00 -1.46097955e-08
  0.00000000e+00  0.00000000e+00  0.00000000e+00  0.00000000e+00
  0.00000000e+00  0.00000000e+00  0.00000000e+00  0.00000000e+00
  0.00000000e+00  0.00000000e+00  0.00000000e+00  0.00000000e+00
  0.00000000e+00  0.00000000e+00  0.00000000e+00  0.00000000e+00
  0.00000000e+00  0.00000000e+00 -2.15138951e-07 -1.46097955e-08
  0.00000000e+00  0.00000000e+00  0.00000000e+00  3.44030758e-06]","[[ 9.44540593e-05  3.54403044e-03]
 [-1.05269662e-04  2.11568989e-03]]",[],0.0,0.0
1787206423.3751192,2.0910870406425546,1.0521723235737825,2.376579585524153,"[ 5.66140248e-06 -3.88011936e-07  0.00000000e+00  0.00000000e+00
  0.00000000e+00 -2.15138951e-07 -3.88011936e-07  5.02946787e-06
  0.00000000e+00  0.00000000e+00  0.00000000e+00 -1.46097955e-08
  0.00000000e+00  0.00000000e+00  0.00000000e+00  0.00000000e+00
  0.00000000e+00  0.00000000e+00  0.00000000e+00  0.00000000e+00
  0.00000000e+00  0.00000000e+00  0.00000000e+00  0.00000000e+00
  0.00000000e+00  0.00000000e+00  0.00000000e+00  0.00000000e+00
  0.00000000e+00  0.00000000e+00 -2.15138951e-07 -1.46097955e-08
  0.00000000e+00  0.00000000e+00  0.00000000e+00  3.44030758e-06]","[[ 9.44540593e-05  3.54403044e-03]
 [-1.05269662e-04  2.11568989e-03]]",[],0.0,0.0
1787206423.4274123,2.0910870406425546,1.0521723235737825,2.376579585524153,"[ 5.66140248e-06 -3.88011936e-07  0.00000000e+00  0.00000000e+00
  0.00000000e+00 -2.15138951e-07 -3.88011936e-07  5.02946787e-06
  0.00000000e+00  0.00000000e+00  0.00000000e+00 -1.46097955e-08
  0.00000000e+00  0.00000000e+00  0.00000000e+00  0.00000000e+00
  0.00000000e+00  0.00000000e+00  0.00000000e+00  0.00000000e+00
  0.00000000e+00  0.00000000e+00  0.00000000e+00  0.00000000e+00
  0.00000000e+00  0.00000000e+00  0.00000000e+00  0.00000000e+00
  0.00000000e+00  0.00000000e+00 -2.15138951e-07 -1.46097955e-08
  0.00000000e+00  0.00000000e+00  0.00000000e+00  3.44030758e-06]","[[ 9.44540593e-05  3.54403044e-03]
 [-1.05269662e-04  2.11568989e-03]]",[],0.0,0.0
1787206423.475124,2.0910870406425546,1.0521723235737825,2.376579585524153,"[ 5.66140248e-06 -3.88011936e-07  0.00000000e+00  0.00000000e+00
  0.00000000e+00 -2.15138951e-07 -3.88011936e-07  5.02946787e-06
  0.00000000e+00  0.00000000e+00  0.00000000e+00 -1.46097955e-08
  0.00000000e+00  0.00000000e+00  0.00000000e+00  0.00000000e+00
  0.00000000e+00  0.00000000e+00  0.00000000e+00  0.00000000e+00
  0.00000000e+00  0.00000000e+00  0.00000000e+00  0.00000000e+00
  0.00000000e+00  0.00000000e+00  0.00000000e+00  0.00000000e+00
  0.00000000e+00  0.00000000e+00 -2.15138951e-07 -1.46097955e-08
  0.00000000e+00  0.00000000e+00  0.00000000e+00  3.44030758e-06]","[[ 9.44540593e-05  3.54403044e-03]
 [-1.05269662e-04  2.11568989e-03]]",[],0.0,0.0
1787206423.5277114,2.0910870406425546,1.0521723235737825,2.376579585524153,"[ 5.66140248e-06 -3.88011936e-07  0.00000000e+00  0.00000000e+00
  0.00000000e+00 -2.15138951e-07 -3.88011936e-07  5.02946787e-06
  0.00000000e+00  0.00000000e+00  0.00000000e+00 -1.46097955e-08
  0.00000000e+00  0.00000000e+00  0.00000000e+00  0.00000000e+00
  0.00000000e+00  0.00000000e+00  0.00000000e+00  0.00000000e+00
  0.00000000e+00  0.00000000e+00  0.00000000e+00  0.00000000e+00
  0.00000000e+00  0.00000000e+00  0.00000000e+00  0.00000000e+00
  0.00000000e+00  0.00000000e+00 -2.15138951e-07 -1.46097955e-08
  0.00000000e+00  0.00000000e+00  0.00000000e+00  3.44030758e-06]","[[ 9.44540593e-05  3.54403044e-03]
 [-1.05269662e-04  2.11568989e-03]]",[],0.0,0.0
1787206423.575658,2.0910870406425546,1.0521723235737825,2.376579585524153,"[ 5.66140248e-06 -3.88011936e-07  0.00000000e+00  0.00000000e+00
  0.00000000e+00 -2.15138951e-07 -3.88011936e-07  5.02946787e-06
  0.00000000e+00  0.00000000e+00  0.00000000e+00 -1.46097955e-08
  0.00000000e+00  0.00000000e+00  0.00000000e+00  0.00000000e+00
  0.00000000e+00  0.00000000e+00  0.00000000e+00  0.00000000e+00
  0.00000000e+00  0.00000000e+00  0.00000000e+00  0.00000000e+00
  0.00000000e+00  0.00000000e+00  0.00000000e+00  0.00000000e+00
  0.00000000e+00  0.00000000e+00 -2.15138951e-07 -1.46097955e-08
  0.00000000e+00  0.00000000e+00  0.00000000e+00  3.44030758e-06]","[[ 9.44540593e-05  3.54403044e-03]
 [-1.05269662e-04  2.11568989e-03]]",[],0.0,0.0
1787206423.6239176,2.0910870406425546,1.0521723235737825,2.376579585524153,"[ 5.66140248e-06 -3.88011936e-07  0.00000000e+00  0.00000000e+00
  0.00000000e+00 -2.15138951e-07 -3.88011936e-07  5.02946787e-06
  0.00000000e+00  0.00000000e+00  0.00000000e+00 -1.46097955e-08
  0.00000000e+00  0.00000000e+00  0.00000000e+00  0.00000000e+00
  0.00000000e+00  0.00000000e+00  0.00000000e+00  0.00000000e+00
  0.00000000e+00  0.00000000e+00  0.00000000e+00  0.00000000e+00
  0.00000000e+00  0.00000000e+00  0.00000000e+00  0.00000000e+00
  0.00000000e+00  0.00000000e+00 -2.15138951e-07 -1.46097955e-08
  0.00000000e+00  0.00000000e+00  0.00000000e+00  3.44030758e-06]","[[ 9.44540593e-05  3.54403044e-03]
 [-1.05269662e-04  2.11568989e-03]]",[],0.0,0.0
1787206423.6750958,2.0910870406425546,1.0521723235737825,2.376579585524153,"[ 5.66140248e-06 -3.88011936e-07  0.00000000e+00  0.00000000e+00
  0.00000000e+00 -2.15138951e-07 -3.88011936e-07  5.02946787e-06
  0.00000000e+00  0.00000000e+00  0.00000000e+00 -1.46097955e-08
  0.00000000e+00  0.00000000e+00  0.00000000e+00  0.00000000e+00
  0.00000000e+00  0.00000000e+00  0.00000000e+00  0.00000000e+00
  0.00000000e+00  0.00000000e+00  0.00000000e+00  0.00000000e+00
  0.00000000e+00  0.00000000e+00  0.00000000e+00  0.00000000e+00
  0.00000000e+00  0.00000000e+00 -2.15138951e-07 -1.46097955e-08
  0.00000000e+00  0.00000000e+00  0.00000000e+00  3.44030758e-06]","[[ 9.44540593e-05  3.54403044e-03]
 [-1.05269662e-04  2.11568989e-03]]",[],0.0,0.0
1787206423.722561,2.0910870406425546,1.0521723235737825,2.376579585524153,"[ 5.66140248e-06 -3.88011936e-07  0.00000000e+00  0.00000000e+00
  0.00000000e+00 -2.15138951e-07 -3.88011936e-07  5.02946787e-06
  0.00000000e+00  0.00000000e+00  0.00000000e+00 -1.46097955e-08
  0.00000000e+00  0.00000000e+00  0.00000000e+00  0.00000000e+00
  0.00000000e+00  0.00000000e+00  0.00000000e+00  0.00000000e+00
  0.00000000e+00  0.00000000e+00  0.00000000e+00  0.00000000e+00
  0.00000000e+00  0.00000000e+00  0.00000000e+00  0.00000000e+00
  0.00000000e+00  0.00000000e+00 -2.15138951e-07 -1.46097955e-08
  0.00000000e+00  0.00000000e+00  0.00000000e+00  3.44030758e-06]","[[ 9.44540593e-05  3.54403044e-03]
 [-1.05269662e-04  2.11568989e-03]]",[],0.0,0.0
1787206423.7721102,2.0910870406425546,1.0521723235737825,2.376579585524153,"[ 5.66140248e-06 -3.88011936e-07  0.00000000e+00  0.00000000e+00
  0.00000000e+00 -2.15138951e-07 -3.88011936e-07  5.02946787e-06
  0.00000000e+00  0.00000000e+00  0.00000000e+00 -1.46097955e-08
  0.00000000e+00  0.00000000e+00  0.00000000e+00  0.00000000e+00
  0.00000000e+00  0.00000000e+00  0.00000000e+00  0.00000000e+00
  0.00000000e+00  0.00000000e+00  0.00000000e+00  0.00000000e+00
  0.00000000e+00  0.00000000e+00  0.00000000e+00  0.00000000e+00
  0.00000000e+00  0.00000000e+00 -2.15138951e-07 -1.46097955e-08
  0.00000000e+00  0.00000000e+00  0.00000000e+00  3.44030758e-06]","[[ 9.44540593e-05  3.54403044e-03]
 [-1.05269662e-04  2.11568989e-03]]",[],0.0,0.0
1787206423.8227236,2.093797260696714,1.0453361096059464,2.4100372015732017,"[ 5.31163882e-06 -5.04968048e-07  0.00000000e+00  0.00000000e+00
  0.00000000e+00 -2.13267399e-07 -5.04968048e-07  4.76876713e-06
  0.00000000e+00  0.00000000e+00  0.00000000e+00 -3.46980778e-08
  0.00000000e+00  0.00000000e+00  0.00000000e+00  0.00000000e+00
  0.00000000e+00  0.00000000e+00  0.00000000e+00  0.00000000e+00
  0.00000000e+00  0.00000000e+00  0.00000000e+00  0.00000000e+00
  0.00000000e+00  0.00000000e+00  0.00000000e+00  0.00000000e+00
  0.00000000e+00  0.00000000e+00 -2.13267399e-07 -3.46980778e-08
  0.00000000e+00  0.00000000e+00  0.00000000e+00  3.54729339e-06]","[[ 1.15976903e-04  2.15384489e-03]
 [-7.87774022e-05  2.52745675e-03]]",[],0.0,0.0
1787206423.8724058,2.093797260696714,1.0453361096059464,2.4100372015732017,"[ 5.31163882e-06 -5.04968048e-07  0.00000000e+00  0.00000000e+00
  0.00000000e+00 -2.13267399e-07 -5.04968048e-07  4.76876713e-06
  0.00000000e+00  0.00000000e+00  0.00000000e+00 -3.46980778e-08
  0.00000000e+00  0.00000000e+00  0.00000000e+00  0.00000000e+00
  0.00000000e+00  0.00000000e+00  0.00000000e+00  0.00000000e+00
  0.00000000e+00  0.00000000e+00  0.00000000e+00  0.00000000e+00
  0.00000000e+00  0.00000000e+00  0.00000000e+00  0.00000000e+00
  0.00000000e+00  0.00000000e+00 -2.13267399e-07 -3.46980778e-08
  0.00000000e+00  0.00000000e+00  0.00000000e+00  3.54729339e-06]","[[ 1.15976903e-04  2.15384489e-03]
 [-7.87774022e-05  2.52745675e-03]]",[],0.0,0.0
1787206423.9225671,2.093797260696714,1.0453361096059464,2.4100372015732017,"[ 5.31163882e-06 -5.04968048e-07  0.00000000e+00  0.00000000e+00
  0.00000000e+00 -2.13267399e-07 -5.04968048e-07  4.76876713e-06
  0.00000000e+00  0.00000000e+00  0.00000000e+00 -3.46980778e-08
  0.00000000e+00  0.00000000e+00  0.00000000e+00  0.00000000e+00
  0.00000000e+00  0.00000000e+00  0.00000000e+00  0.00000000e+00
  0.00000000e+00  0.00000000e+00  0.00000000e+00  0.00000000e+00
  0.00000000e+00  0.00000000e+00  0.00000000e+00  0.00000000e+00
  0.00000000e+00  0.00000000e+00 -2.13267399e-07 -3.46980778e-08
  0.00000000e+00  0.00000000e+00  0.00000000e+00  3.54729339e-06]","[[ 1.15976903e-04  2.15384489e-03]
 [-7.87774022e-05  2.52745675e-03]]",[],0.0,0.0
1787206423.9723442,2.093797260696714,1.0453361096059464,2.4100372015732017,"[ 5.31163882e-06 -5.04968048e-07  0.00000000e+00  0.00000000e+00
  0.00000000e+00 -2.13267399e-07 -5.04968048e-07  4.76876713e-06
  0.00000000e+00  0.00000000e+00  0.00000000e+00 -3.46980778e-08
  0.00000000e+00  0.00000000e+00  0.00000000e+00  0.00000000e+00
  0.00000000e+00  0.00000000e+00  0.00000000e+00  0.00000000e+00
  0.00000000e+00  0.00000000e+00  0.00000000e+00  0.00000000e+00
  0.00000000e+00  0.00000000e+00  0.00000000e+00  0.00000000e+00
  0.00000000e+00  0.00000000e+00 -2.13267399e-07 -3.46980778e-08
  0.00000000e+00  0.00000000e+00  0.00000000e+00  3.54729339e-06]","[[ 1.15976903e-04  2.15384489e-03]
 [-7.87774022e-05  2.52745675e-03]]",[],0.0,0.0
1787206424.0303147,2.093797260696714,1.0453361096059464,2.4100372015732017,"[ 5.31163882e-06 -5.04968048e-07  0.00000000e+00  0.00000000e+00
  0.00000000e+00 -2.13267399e-07 -5.04968048e-07  4.76876713e-06
  0.00000000e+00  0.00000000e+00  0.00000000e+00 -3.46980778e-08
  0.00000000e+00  0.00000000e+00  0.00000000e+00  0.00000000e+00
  0.00000000e+00  0.00000000e+00  0.00000000e+00  0.00000000e+00
  0.00000000e+00  0.00000000e+00  0.00000000e+00  0.00000000e+00
  0.00000000e+00  0.00000000e+00  0.00000000e+00  0.00000000e+00
  0.00000000e+00  0.00000000e+00 -2.13267399e-07 -3.46980778e-08
  0.00000000e+00  0.00000000e+00  0.00000000e+00  3.54729339e-06]","[[ 1.15976903e-04  2.15384489e-03]
 [-7.87774022e-05  2.52745675e-03]]",[],0.0,0.0
1787206424.073489,2.093797260696714,1.0453361096059464,2.4100372015732017,"[ 5.31163882e-06 -5.04968048e-07  0.00000000e+00  0.00000000e+00
  0.00000000e+00 -2.13267399e-07 -5.04968048e-07  4.76876713e-06
  0.00000000e+00  0.00000000e+00  0.00000000e+00 -3.46980778e-08
  0.00000000e+00  0.00000000e+00  0.00000000e+00  0.00000000e+00
  0.00000000e+00  0.00000000e+00  0.00000000e+00  0.00000000e+00
  0.00000000e+00  0.00000000e+00  0.00000000e+00  0.00000000e+00
  0.00000000e+00  0.00000000e+00  0.00000000e+00  0.00000000e+00
  0.00000000e+00  0.00000000e+00 -2.13267399e-07 -3.46980778e-08
  0.00000000e+00  0.00000000e+00  0.00000000e+00  3.54729339e-06]","[[ 1.15976903e-04  2.15384489e-03]
 [-7.87774022e-05  2.52745675e-03]]",[],0.0,0.0
1787206424.12903,2.093797260696714,1.0453361096059464,2.4100372015732017,"[ 5.31163882e-06 -5.04968048e-07  0.00000000e+00  0.00000000e+00
  0.00000000e+00 -2.13267399e-07 -5.04968048e-07  4.76876713e-06
  0.00000000e+00  0.00000000e+00  0.00000000e+00 -3.46980778e-08
  0.00000000e+00  0.00000000e+00  0.00000000e+00  0.00000000e+00
  0.00000000e+00  0.00000000e+00  0.00000000e+00  0.00000000e+00
  0.00000000e+00  0.00000000e+00  0.00000000e+00  0.00000000e+00
  0.00000000e+00  0.00000000e+00  0.00000000e+00  0.00000000e+00
  0.00000000e+00  0.00000000e+00 -2.13267399e-07 -3.46980778e-08
  0.00000000e+00  0.00000000e+00  0.00000000e+00  3.54729339e-06]","[[ 1.15976903e-04  2.15384489e-03]
 [-7.87774022e-05  2.52745675e-03]]",[],0.0,0.0
1787206424.1836696,2.093797260696714,1.0453361096059464,2.4100372015732017,"[ 5.31163882e-06 -5.04968048e-07  0.00000000e+00  0.00000000e+00
  0.00000000e+00 -2.13267399e-07 -5.04968048e-07  4.76876713e-06
  0.00000000e+00  0.00000000e+00  0.00000000e+00 -3.46980778e-08
  0.00000000e+00  0.00000000e+00  0.00000000e+00  0.00000000e+00
  0.00000000e+00  0.00000000e+00  0.00000000e+00  0.00000000e+00
  0.00000000e+00  0.00000000e+00  0.00000000e+00  0.00000000e+00
  0.00000000e+00  0.00000000e+00  0.00000000e+00  0.00000000e+00
  0.00000000e+00  0.00000000e+00 -2.13267399e-07 -3.46980778e-08
  0.00000000e+00  0.00000000e+00  0.00000000e+00  3.54729339e-06]","[[ 1.15976903e-04  2.15384489e-03]
 [-7.87774022e-05  2.52745675e-03]]",[],0.0,0.0
1787206424.2222848,2.093797260696714,1.0453361096059464,2.4100372015732017,"[ 5.31163882e-06 -5.04968048e-07  0.00000000e+00  0.00000000e+00
  0.00000000e+00 -2.13267399e-07 -5.04968048e-07  4.76876713e-06
  0.00000000e+00  0.00000000e+00  0.00000000e+00 -3.46980778e-08
  0.00000000e+00  0.00000000e+00  0.00000000e+00  0.00000000e+00
  0.00000000e+00  0.00000000e+00  0.00000000e+00  0.00000000e+00
  0.00000000e+00  0.00000000e+00  0.00000000e+00  0.00000000e+00
  0.00000000e+00  0.00000000e+00  0.00000000e+00  0.00000000e+00
  0.00000000e+00  0.00000000e+00 -2.13267399e-07 -3.46980778e-08
  0.00000000e+00  0.00000000e+00  0.00000000e+00  3.54729339e-06]","[[ 1.15976903e-04  2.15384489e-03]
 [-7.87774022e-05  2.52745675e-03]]",[],0.0,0.0
1787206424.2733424,2.093797260696714,1.0453361096059464,2.4100372015732017,"[ 5.31163882e-06 -5.04968048e-07  0.00000000e+00  0.00000000e+00
  0.00000000e+00 -2.13267399e-07 -5.04968048e-07  4.76876713e-06
  0.00000000e+00  0.00000000e+00  0.00000000e+00 -3.46980778e-08
  0.00000000e+00  0.00000000e+00  0.00000000e+00  0.00000000e+00
  0.00000000e+00  0.00000000e+00  0.00000000e+00  0.00000000e+00
  0.00000000e+00  0.00000000e+00  0.00000000e+00  0.00000000e+00
  0.00000000e+00  0.00000000e+00  0.00000000e+00  0.00000000e+00
  0.00000000e+00  0.00000000e+00 -2.13267399e-07 -3.46980778e-08
  0.00000000e+00  0.00000000e+00  0.00000000e+00  3.54729339e-06]","[[ 1.15976903e-04  2.15384489e-03]
 [-7.87774022e-05  2.52745675e-03]]",[],0.0,0.0
1787206424.322695,2.093797260696714,1.0453361096059464,2.4100372015732017,"[ 5.31163882e-06 -5.04968048e-07  0.00000000e+00  0.00000000e+00
  0.00000000e+00 -2.13267399e-07 -5.04968048e-07  4.76876713e-06
  0.00000000e+00  0.00000000e+00  0.00000000e+00 -3.46980778e-08
  0.00000000e+00  0.00000000e+00  0.00000000e+00  0.00000000e+00
  0.00000000e+00  0.00000000e+00  0.00000000e+00  0.00000000e+00
  0.00000000e+00  0.00000000e+00  0.00000000e+00  0.00000000e+00
  0.00000000e+00  0.00000000e+00  0.00000000e+00  0.00000000e+00
  0.00000000e+00  0.00000000e+00 -2.13267399e-07 -3.46980778e-08
  0.00000000e+00  0.00000000e+00  0.00000000e+00  3.54729339e-06]","[[ 1.15976903e-04  2.15384489e-03]
 [-7.87774022e-05  2.52745675e-03]]",[],0.0,0.0
1787206424.3737772,2.093797260696714,1.0453361096059464,2.4100372015732017,"[ 5.31163882e-06 -5.04968048e-07  0.00000000e+00  0.00000000e+00
  0.00000000e+00 -2.13267399e-07 -5.04968048e-07  4.76876713e-06
  0.00000000e+00  0.00000000e+00  0.00000000e+00 -3.46980778e-08
  0.00000000e+00  0.00000000e+00  0.00000000e+00  0.00000000e+00
  0.00000000e+00  0.00000000e+00  0.00000000e+00  0.00000000e+00
  0.00000000e+00  0.00000000e+00  0.00000000e+00  0.00000000e+00
  0.00000000e+00  0.00000000e+00  0.00000000e+00  0.00000000e+00
  0.00000000e+00  0.00000000e+00 -2.13267399e-07 -3.46980778e-08
  0.00000000e+00  0.00000000e+00  0.00000000e+00  3.54729339e-06]","[[ 1.15976903e-04  2.15384489e-03]
 [-7.87774022e-05  2.52745675e-03]]",[],0.0,0.0
1787206424.4248576,2.093797260696714,1.0453361096059464,2.4100372015732017,"[ 5.31163882e-06 -5.04968048e-07  0.00000000e+00  0.00000000e+00
  0.00000000e+00 -2.13267399e-07 -5.04968048e-07  4.76876713e-06
  0.00000000e+00  0.00000000e+00  0.00000000e+00 -3.46980778e-08
  0.00000000e+00  0.00000000e+00  0.00000000e+00  0.00000000e+00
  0.00000000e+00  0.00000000e+00  0.00000000e+00  0.00000000e+00
  0.00000000e+00  0.00000000e+00  0.00000000e+00  0.00000000e+00
  0.00000000e+00  0.00000000e+00  0.00000000e+00  0.00000000e+00
  0.00000000e+00  0.00000000e+00 -2.13267399e-07 -3.46980778e-08
  0.00000000e+00  0.00000000e+00  0.00000000e+00  3.54729339e-06]","[[ 1.15976903e-04  2.15384489e-03]
 [-7.87774022e-05  2.52745675e-03]]",[],0.0,0.0
1787206424.4731987,2.093797260696714,1.0453361096059464,2.4100372015732017,"[ 5.31163882e-06 -5.04968048e-07  0.00000000e+00  0.00000000e+00
  0.00000000e+00 -2.13267399e-07 -5.04968048e-07  4.76876713e-06
  0.00000000e+00  0.00000000e+00  0.00000000e+00 -3.46980778e-08
  0.00000000e+00  0.00000000e+00  0.00000000e+00  0.00000000e+00
  0.00000000e+00  0.00000000e+00  0.00000000e+00  0.00000000e+00
  0.00000000e+00  0.00000000e+00  0.00000000e+00  0.00000000e+00
  0.00000000e+00  0.00000000e+00  0.00000000e+00  0.00000000e+00
  0.00000000e+00  0.00000000e+00 -2.13267399e-07 -3.46980778e-08
  0.00000000e+00  0.00000000e+00  0.00000000e+00  3.54729339e-06]","[[ 1.15976903e-04  2.15384489e-03]
 [-7.87774022e-05  2.52745675e-03]]",[],0.0,0.0
1787206424.5224483,2.093797260696714,1.0453361096059464,2.4100372015732017,"[ 5.31163882e-06 -5.04968048e-07  0.00000000e+00  0.00000000e+00
  0.00000000e+00 -2.13267399e-07 -5.04968048e-07  4.76876713e-06
  0.00000000e+00  0.00000000e+00  0.00000000e+00 -3.46980778e-08
  0.00000000e+00  0.00000000e+00  0.00000000e+00  0.00000000e+00
  0.00000000e+00  0.00000000e+00  0.00000000e+00  0.00000000e+00
  0.00000000e+00  0.00000000e+00  0.00000000e+00  0.00000000e+00
  0.00000000e+00  0.00000000e+00  0.00000000e+00  0.00000000e+00
  0.00000000e+00  0.00000000e+00 -2.13267399e-07 -3.46980778e-08
  0.00000000e+00  0.00000000e+00  0.00000000e+00  3.54729339e-06]","[[ 1.15976903e-04  2.15384489e-03]
 [-7.87774022e-05  2.52745675e-03]]",[],0.0,0.0
1787206424.5747893,2.093797260696714,1.0453361096059464,2.4100372015732017,"[ 5.31163882e-06 -5.04968048e-07  0.00000000e+00  0.00000000e+00
  0.00000000e+00 -2.13267399e-07 -5.04968048e-07  4.76876713e-06
  0.00000000e+00  0.00000000e+00  0.00000000e+00 -3.46980778e-08
  0.00000000e+00  0.00000000e+00  0.00000000e+00  0.00000000e+00
  0.00000000e+00  0.00000000e+00  0.00000000e+00  0.00000000e+00
  0.00000000e+00  0.00000000e+00  0.00000000e+00  0.00000000e+00
  0.00000000e+00  0.00000000e+00  0.00000000e+00  0.00000000e+00
  0.00000000e+00  0.00000000e+00 -2.13267399e-07 -3.46980778e-08
  0.00000000e+00  0.00000000e+00  0.00000000e+00  3.54729339e-06]","[[ 1.15976903e-04  2.15384489e-03]
 [-7.87774022e-05  2.52745675e-03]]",[],0.0,0.0
1787206424.628772,2.093797260696714,1.0453361096059464,2.4100372015732017,"[ 5.31163882e-06 -5.04968048e-07  0.00000000e+00  0.00000000e+00
  0.00000000e+00 -2.13267399e-07 -5.04968048e-07  4.76876713e-06
  0.00000000e+00  0.00000000e+00  0.00000000e+00 -3.46980778e-08
  0.00000000e+00  0.00000000e+00  0.00000000e+00  0.00000000e+00
  0.00000000e+00  0.00000000e+00  0.00000000e+00  0.00000000e+00
  0.00000000e+00  0.00000000e+00  0.00000000e+00  0.00000000e+00
  0.00000000e+00  0.00000000e+00  0.00000000e+00  0.00000000e+00
  0.00000000e+00  0.00000000e+00 -2.13267399e-07 -3.46980778e-08
  0.00000000e+00  0.00000000e+00  0.00000000e+00  3.54729339e-06]","[[ 1.15976903e-04  2.15384489e-03]
 [-7.87774022e-05  2.52745675e-03]]",[],0.0,0.0
1787206424.673049,2.093797260696714,1.0453361096059464,2.4100372015732017,"[ 5.31163882e-06 -5.04968048e-07  0.00000000e+00  0.00000000e+00
  0.00000000e+00 -2.13267399e-07 -5.04968048e-07  4.76876713e-06
  0.00000000e+00  0.00000000e+00  0.00000000e+00 -3.46980778e-08
  0.00000000e+00  0.00000000e+00  0.00000000e+00  0.00000000e+00
  0.00000000e+00  0.00000000e+00  0.00000000e+00  0.00000000e+00
  0.00000000e+00  0.00000000e+00  0.00000000e+00  0.00000000e+00
  0.00000000e+00  0.00000000e+00  0.00000000e+00  0.00000000e+00
  0.00000000e+00  0.00000000e+00 -2.13267399e-07 -3.46980778e-08
  0.00000000e+00  0.00000000e+00  0.00000000e+00  3.54729339e-06]","[[ 1.15976903e-04  2.15384489e-03]
 [-7.87774022e-05  2.52745675e-03]]",[],0.0,0.0
1787206424.7234724,2.093797260696714,1.0453361096059464,2.4100372015732017,"[ 5.31163882e-06 -5.04968048e-07  0.00000000e+00  0.00000000e+00
  0.00000000e+00 -2.13267399e-07 -5.04968048e-07  4.76876713e-06
  0.00000000e+00  0.00000000e+00  0.00000000e+00 -3.46980778e-08
  0.00000000e+00  0.00000000e+00  0.00000000e+00  0.00000000e+00
  0.00000000e+00  0.00000000e+00  0.00000000e+00  0.00000000e+00
  0.00000000e+00  0.00000000e+00  0.00000000e+00  0.00000000e+00
  0.00000000e+00  0.00000000e+00  0.00000000e+00  0.00000000e+00
  0.00000000e+00  0.00000000e+00 -2.13267399e-07 -3.46980778e-08
  0.00000000e+00  0.00000000e+00  0.00000000e+00  3.54729339e-06]","[[ 1.15976903e-04  2.15384489e-03]
 [-7.87774022e-05  2.52745675e-03]]",[],0.0,0.0
1787206424.7760227,2.093797260696714,1.0453361096059464,2.4100372015732017,"[ 5.31163882e-06 -5.04968048e-07  0.00000000e+00  0.00000000e+00
  0.00000000e+00 -2.13267399e-07 -5.04968048e-07  4.76876713e-06
  0.00000000e+00  0.00000000e+00  0.00000000e+00 -3.46980778e-08
  0.00000000e+00  0.00000000e+00  0.00000000e+00  0.00000000e+00
  0.00000000e+00  0.00000000e+00  0.00000000e+00  0.00000000e+00
  0.00000000e+00  0.00000000e+00  0.00000000e+00  0.00000000e+00
  0.00000000e+00  0.00000000e+00  0.00000000e+00  0.00000000e+00
  0.00000000e+00  0.00000000e+00 -2.13267399e-07 -3.46980778e-08
  0.00000000e+00  0.00000000e+00  0.00000000e+00  3.54729339e-06]","[[ 1.15976903e-04  2.15384489e-03]
 [-7.87774022e-05  2.52745675e-03]]",[],0.0,0.0
1787206424.839853,2.093797260696714,1.0453361096059464,2.4100372015732017,"[ 5.31163882e-06 -5.04968048e-07  0.00000000e+00  0.00000000e+00
  0.00000000e+00 -2.13267399e-07 -5.04968048e-07  4.76876713e-06
  0.00000000e+00  0.00000000e+00  0.00000000e+00 -3.46980778e-08
  0.00000000e+00  0.00000000e+00  0.00000000e+00  0.00000000e+00
  0.00000000e+00  0.00000000e+00  0.00000000e+00  0.00000000e+00
  0.00000000e+00  0.00000000e+00  0.00000000e+00  0.00000000e+00
  0.00000000e+00  0.00000000e+00  0.00000000e+00  0.00000000e+00
  0.00000000e+00  0.00000000e+00 -2.13267399e-07 -3.46980778e-08
  0.00000000e+00  0.00000000e+00  0.00000000e+00  3.54729339e-06]","[[ 1.15976903e-04  2.15384489e-03]
 [-7.87774022e-05  2.52745675e-03]]",[],0.0,0.0
1787206424.8744218,2.097666647396888,1.0402418060716583,2.4169516507659914,"[ 4.99109019e-06 -5.65004492e-07  0.00000000e+00  0.00000000e+00
  0.00000000e+00 -2.37391650e-07 -5.65004492e-07  4.48960218e-06
  0.00000000e+00  0.00000000e+00  0.00000000e+00 -5.52554775e-08
  0.00000000e+00  0.00000000e+00  0.00000000e+00  0.00000000e+00
  0.00000000e+00  0.00000000e+00  0.00000000e+00  0.00000000e+00
  0.00000000e+00  0.00000000e+00  0.00000000e+00  0.00000000e+00
  0.00000000e+00  0.00000000e+00  0.00000000e+00  0.00000000e+00
  0.00000000e+00  0.00000000e+00 -2.37391650e-07 -5.52554775e-08
  0.00000000e+00  0.00000000e+00  0.00000000e+00  3.36880025e-06]","[[ 1.10176688e-04  2.03525771e-03]
 [-7.61392722e-05  2.37245714e-03]]",[],0.0,0.0
1787206424.9263713,2.097666647396888,1.0402418060716583,2.4169516507659914,"[ 4.99109019e-06 -5.65004492e-07  0.00000000e+00  0.00000000e+00
  0.00000000e+00 -2.37391650e-07 -5.65004492e-07  4.48960218e-06
  0.00000000e+00  0.00000000e+00  0.00000000e+00 -5.52554775e-08
  0.00000000e+00  0.00000000e+00  0.00000000e+00  0.00000000e+00
  0.00000000e+00  0.00000000e+00  0.00000000e+00  0.00000000e+00
  0.00000000e+00  0.00000000e+00  0.00000000e+00  0.00000000e+00
  0.00000000e+00  0.00000000e+00  0.00000000e+00  0.00000000e+00
  0.00000000e+00  0.00000000e+00 -2.37391650e-07 -5.52554775e-08
  0.00000000e+00  0.00000000e+00  0.00000000e+00  3.36880025e-06]","[[ 1.10176688e-04  2.03525771e-03]
 [-7.61392722e-05  2.37245714e-03]]",[],0.0,0.0
1787206424.9744866,2.097666647396888,1.0402418060716583,2.4169516507659914,"[ 4.99109019e-06 -5.65004492e-07  0.00000000e+00  0.00000000e+00
  0.00000000e+00 -2.37391650e-07 -5.65004492e-07  4.48960218e-06
  0.00000000e+00  0.00000000e+00  0.00000000e+00 -5.52554775e-08
  0.00000000e+00  0.00000000e+00  0.00000000e+00  0.00000000e+00
  0.00000000e+00  0.00000000e+00  0.00000000e+00  0.00000000e+00
  0.00000000e+00  0.00000000e+00  0.00000000e+00  0.00000000e+00
  0.00000000e+00  0.00000000e+00  0.00000000e+00  0.00000000e+00
  0.00000000e+00  0.00000000e+00 -2.37391650e-07 -5.52554775e-08
  0.00000000e+00  0.00000000e+00  0.00000000e+00  3.36880025e-06]","[[ 1.10176688e-04  2.03525771e-03]
 [-7.61392722e-05  2.37245714e-03]]",[],0.0,0.0
1787206425.0404308,2.097666647396888,1.0402418060716583,2.4169516507659914,"[ 4.99109019e-06 -5.65004492e-07  0.00000000e+00  0.00000000e+00
  0.00000000e+00 -2.37391650e-07 -5.65004492e-07  4.48960218e-06
  0.00000000e+00  0.00000000e+00  0.00000000e+00 -5.52554775e-08
  0.00000000e+00  0.00000000e+00  0.00000000e+00  0.00000000e+00
  0.00000000e+00  0.00000000e+00  0.00000000e+00  0.00000000e+00
  0.00000000e+00  0.00000000e+00  0.00000000e+00  0.00000000e+00
  0.00000000e+00  0.00000000e+00  0.00000000e+00  0.00000000e+00
  0.00000000e+00  0.00000000e+00 -2.37391650e-07 -5.52554775e-08
  0.00000000e+00  0.00000000e+00  0.00000000e+00  3.36880025e-06]","[[ 1.10176688e-04  2.03525771e-03]
 [-7.61392722e-05  2.37245714e-03]]",[],0.0,0.0
1787206425.072773,2.097666647396888,1.0402418060716583,2.4169516507659914,"[ 4.99109019e-06 -5.65004492e-07  0.00000000e+00  0.00000000e+00
  0.00000000e+00 -2.37391650e-07 -5.65004492e-07  4.48960218e-06
  0.00000000e+00  0.00000000e+00  0.00000000e+00 -5.52554775e-08
  0.00000000e+00  0.00000000e+00  0.00000000e+00  0.00000000e+00
  0.00000000e+00  0.00000000e+00  0.00000000e+00  0.00000000e+00
  0.00000000e+00  0.00000000e+00  0.00000000e+00  0.00000000e+00
  0.00000000e+00  0.00000000e+00  0.00000000e+00  0.00000000e+00
  0.00000000e+00  0.00000000e+00 -2.37391650e-07 -5.52554775e-08
  0.00000000e+00  0.00000000e+00  0.00000000e+00  3.36880025e-06]","[[ 1.10176688e-04  2.03525771e-03]
 [-7.61392722e-05  2.37245714e-03]]",[],0.0,0.0
1787206425.1472054,2.097666647396888,1.0402418060716583,2.4169516507659914,"[ 4.99109019e-06 -5.65004492e-07  0.00000000e+00  0.00000000e+00
  0.00000000e+00 -2.37391650e-07 -5.65004492e-07  4.48960218e-06
  0.00000000e+00  0.00000000e+00  0.00000000e+00 -5.52554775e-08
  0.00000000e+00  0.00000000e+00  0.00000000e+00  0.00000000e+00
  0.00000000e+00  0.00000000e+00  0.00000000e+00  0.00000000e+00
  0.00000000e+00  0.00000000e+00  0.00000000e+00  0.00000000e+00
  0.00000000e+00  0.00000000e+00  0.00000000e+00  0.00000000e+00
  0.00000000e+00  0.00000000e+00 -2.37391650e-07 -5.52554775e-08
  0.00000000e+00  0.00000000e+00  0.00000000e+00  3.36880025e-06]","[[ 1.10176688e-04  2.03525771e-03]
 [-7.61392722e-05  2.37245714e-03]]",[],0.0,0.0
1787206425.187262,2.097666647396888,1.0402418060716583,2.4169516507659914,"[ 4.99109019e-06 -5.65004492e-07  0.00000000e+00  0.00000000e+00
  0.00000000e+00 -2.37391650e-07 -5.65004492e-07  4.48960218e-06
