time,x,y,yaw,cov_prop,K_gain,innovation,v_ekf,omega_ekf
1787561929.007306,1.908436406588905,1.5530898004748916,2.2200621077495466,"[ 1.14124200e-04  4.84975943e-06  0.00000000e+00  0.00000000e+00
  0.00000000e+00 -7.52401398e-06  4.84975943e-06  5.78263688e-05
  0.00000000e+00  0.00000000e+00  0.00000000e+00 -1.20560639e-06
  0.00000000e+00  0.00000000e+00  0.00000000e+00  0.00000000e+00
  0.00000000e+00  0.00000000e+00  0.00000000e+00  0.00000000e+00
  0.00000000e+00  0.00000000e+00  0.00000000e+00  0.00000000e+00
  0.00000000e+00  0.00000000e+00  0.00000000e+00  0.00000000e+00
  0.00000000e+00  0.00000000e+00 -7.52401398e-06 -1.20560639e-06
  0.00000000e+00  0.00000000e+00  0.00000000e+00  5.46295572e-06]","[[-0.00207178  0.04412617]
 [-0.00112291 -0.01281265]]",[],0.0,0.0
1787561929.0567503,1.908436406588905,1.5530898004748916,2.2200621077495466,"[ 1.14124200e-04  4.84975943e-06  0.00000000e+00  0.00000000e+00
  0.00000000e+00 -7.52401398e-06  4.84975943e-06  5.78263688e-05
  0.00000000e+00  0.00000000e+00  0.00000000e+00 -1.20560639e-06
  0.00000000e+00  0.00000000e+00  0.00000000e+00  0.00000000e+00
  0.00000000e+00  0.00000000e+00  0.00000000e+00  0.00000000e+00
  0.00000000e+00  0.00000000e+00  0.00000000e+00  0.00000000e+00
  0.00000000e+00  0.00000000e+00  0.00000000e+00  0.00000000e+00
  0.00000000e+00  0.00000000e+00 -7.52401398e-06 -1.20560639e-06
  0.00000000e+00  0.00000000e+00  0.00000000e+00  5.46295572e-06]","[[-0.00207178  0.04412617]
 [-0.00112291 -0.01281265]]",[],0.0,0.0
1787561929.106441,1.908436406588905,1.5530898004748916,2.2200621077495466,"[ 1.14124200e-04  4.84975943e-06  0.00000000e+00  0.00000000e+00
  0.00000000e+00 -7.52401398e-06  4.84975943e-06  5.78263688e-05
  0.00000000e+00  0.00000000e+00  0.00000000e+00 -1.20560639e-06
  0.00000000e+00  0.00000000e+00  0.00000000e+00  0.00000000e+00
  0.00000000e+00  0.00000000e+00  0.00000000e+00  0.00000000e+00
  0.00000000e+00  0.00000000e+00  0.00000000e+00  0.00000000e+00
  0.00000000e+00  0.00000000e+00  0.00000000e+00  0.00000000e+00
  0.00000000e+00  0.00000000e+00 -7.52401398e-06 -1.20560639e-06
  0.00000000e+00  0.00000000e+00  0.00000000e+00  5.46295572e-06]","[[-0.00207178  0.04412617]
 [-0.00112291 -0.01281265]]",[],0.0,0.0
1787561929.1553583,1.908436406588905,1.5530898004748916,2.2200621077495466,"[ 1.14124200e-04  4.84975943e-06  0.00000000e+00  0.00000000e+00
  0.00000000e+00 -7.52401398e-06  4.84975943e-06  5.78263688e-05
  0.00000000e+00  0.00000000e+00  0.00000000e+00 -1.20560639e-06
  0.00000000e+00  0.00000000e+00  0.00000000e+00  0.00000000e+00
  0.00000000e+00  0.00000000e+00  0.00000000e+00  0.00000000e+00
  0.00000000e+00  0.00000000e+00  0.00000000e+00  0.00000000e+00
  0.00000000e+00  0.00000000e+00  0.00000000e+00  0.00000000e+00
  0.00000000e+00  0.00000000e+00 -7.52401398e-06 -1.20560639e-06
  0.00000000e+00  0.00000000e+00  0.00000000e+00  5.46295572e-06]","[[-0.00207178  0.04412617]
 [-0.00112291 -0.01281265]]",[],0.0,0.0
1787561929.20721,1.908436406588905,1.5530898004748916,2.2200621077495466,"[ 1.14124200e-04  4.84975943e-06  0.00000000e+00  0.00000000e+00
  0.00000000e+00 -7.52401398e-06  4.84975943e-06  5.78263688e-05
  0.00000000e+00  0.00000000e+00  0.00000000e+00 -1.20560639e-06
  0.00000000e+00  0.00000000e+00  0.00000000e+00  0.00000000e+00
  0.00000000e+00  0.00000000e+00  0.00000000e+00  0.00000000e+00
  0.00000000e+00  0.00000000e+00  0.00000000e+00  0.00000000e+00
  0.00000000e+00  0.00000000e+00  0.00000000e+00  0.00000000e+00
  0.00000000e+00  0.00000000e+00 -7.52401398e-06 -1.20560639e-06
  0.00000000e+00  0.00000000e+00  0.00000000e+00  5.46295572e-06]","[[-0.00207178  0.04412617]
 [-0.00112291 -0.01281265]]",[],0.0,0.0
1787561929.2561228,1.908436406588905,1.5530898004748916,2.2200621077495466,"[ 1.14124200e-04  4.84975943e-06  0.00000000e+00  0.00000000e+00
  0.00000000e+00 -7.52401398e-06  4.84975943e-06  5.78263688e-05
  0.00000000e+00  0.00000000e+00  0.00000000e+00 -1.20560639e-06
  0.00000000e+00  0.00000000e+00  0.00000000e+00  0.00000000e+00
  0.00000000e+00  0.00000000e+00  0.00000000e+00  0.00000000e+00
  0.00000000e+00  0.00000000e+00  0.00000000e+00  0.00000000e+00
  0.00000000e+00  0.00000000e+00  0.00000000e+00  0.00000000e+00
  0.00000000e+00  0.00000000e+00 -7.52401398e-06 -1.20560639e-06
  0.00000000e+00  0.00000000e+00  0.00000000e+00  5.46295572e-06]","[[-0.00207178  0.04412617]
 [-0.00112291 -0.01281265]]",[],0.0,0.0
1787561929.3079534,1.908436406588905,1.5530898004748916,2.2200621077495466,"[ 1.14124200e-04  4.84975943e-06  0.00000000e+00  0.00000000e+00
  0.00000000e+00 -7.52401398e-06  4.84975943e-06  5.78263688e-05
  0.00000000e+00  0.00000000e+00  0.00000000e+00 -1.20560639e-06
  0.00000000e+00  0.00000000e+00  0.00000000e+00  0.00000000e+00
  0.00000000e+00  0.00000000e+00  0.00000000e+00  0.00000000e+00
  0.00000000e+00  0.00000000e+00  0.00000000e+00  0.00000000e+00
  0.00000000e+00  0.00000000e+00  0.00000000e+00  0.00000000e+00
  0.00000000e+00  0.00000000e+00 -7.52401398e-06 -1.20560639e-06
  0.00000000e+00  0.00000000e+00  0.00000000e+00  5.46295572e-06]","[[-0.00207178  0.04412617]
 [-0.00112291 -0.01281265]]",[],0.0,0.0
1787561929.355621,1.908436406588905,1.5530898004748916,2.2200621077495466,"[ 1.14124200e-04  4.84975943e-06  0.00000000e+00  0.00000000e+00
  0.00000000e+00 -7.52401398e-06  4.84975943e-06  5.78263688e-05
  0.00000000e+00  0.00000000e+00  0.00000000e+00 -1.20560639e-06
  0.00000000e+00  0.00000000e+00  0.00000000e+00  0.00000000e+00
  0.00000000e+00  0.00000000e+00  0.00000000e+00  0.00000000e+00
  0.00000000e+00  0.00000000e+00  0.00000000e+00  0.00000000e+00
  0.00000000e+00  0.00000000e+00  0.00000000e+00  0.00000000e+00
  0.00000000e+00  0.00000000e+00 -7.52401398e-06 -1.20560639e-06
  0.00000000e+00  0.00000000e+00  0.00000000e+00  5.46295572e-06]","[[-0.00207178  0.04412617]
 [-0.00112291 -0.01281265]]",[],0.0,0.0
1787561929.4069953,1.908436406588905,1.5530898004748916,2.2200621077495466,"[ 1.14124200e-04  4.84975943e-06  0.00000000e+00  0.00000000e+00
  0.00000000e+00 -7.52401398e-06  4.84975943e-06  5.78263688e-05
  0.00000000e+00  0.00000000e+00  0.00000000e+00 -1.20560639e-06
  0.00000000e+00  0.00000000e+00  0.00000000e+00  0.00000000e+00
  0.00000000e+00  0.00000000e+00  0.00000000e+00  0.00000000e+00
  0.00000000e+00  0.00000000e+00  0.00000000e+00  0.00000000e+00
  0.00000000e+00  0.00000000e+00  0.00000000e+00  0.00000000e+00
  0.00000000e+00  0.00000000e+00 -7.52401398e-06 -1.20560639e-06
  0.00000000e+00  0.00000000e+00  0.00000000e+00  5.46295572e-06]","[[-0.00207178  0.04412617]
 [-0.00112291 -0.01281265]]",[],0.0,0.0
1787561929.4577472,1.908436406588905,1.5530898004748916,2.2200621077495466,"[ 1.14124200e-04  4.84975943e-06  0.00000000e+00  0.00000000e+00
  0.00000000e+00 -7.52401398e-06  4.84975943e-06  5.78263688e-05
  0.00000000e+00  0.00000000e+00  0.00000000e+00 -1.20560639e-06
  0.00000000e+00  0.00000000e+00  0.00000000e+00  0.00000000e+00
  0.00000000e+00  0.00000000e+00  0.00000000e+00  0.00000000e+00
  0.00000000e+00  0.00000000e+00  0.00000000e+00  0.00000000e+00
  0.00000000e+00  0.00000000e+00  0.00000000e+00  0.00000000e+00
  0.00000000e+00  0.00000000e+00 -7.52401398e-06 -1.20560639e-06
  0.00000000e+00  0.00000000e+00  0.00000000e+00  5.46295572e-06]","[[-0.00207178  0.04412617]
 [-0.00112291 -0.01281265]]",[],0.0,0.0
1787561929.5077877,1.908436406588905,1.5530898004748916,2.2200621077495466,"[ 1.14124200e-04  4.84975943e-06  0.00000000e+00  0.00000000e+00
  0.00000000e+00 -7.52401398e-06  4.84975943e-06  5.78263688e-05
  0.00000000e+00  0.00000000e+00  0.00000000e+00 -1.20560639e-06
  0.00000000e+00  0.00000000e+00  0.00000000e+00  0.00000000e+00
  0.00000000e+00  0.00000000e+00  0.00000000e+00  0.00000000e+00
  0.00000000e+00  0.00000000e+00  0.00000000e+00  0.00000000e+00
  0.00000000e+00  0.00000000e+00  0.00000000e+00  0.00000000e+00
  0.00000000e+00  0.00000000e+00 -7.52401398e-06 -1.20560639e-06
  0.00000000e+00  0.00000000e+00  0.00000000e+00  5.46295572e-06]","[[-0.00207178  0.04412617]
 [-0.00112291 -0.01281265]]",[],0.0,0.0
1787561929.5555215,1.908436406588905,1.5530898004748916,2.2200621077495466,"[ 1.14124200e-04  4.84975943e-06  0.00000000e+00  0.00000000e+00
  0.00000000e+00 -7.52401398e-06  4.84975943e-06  5.78263688e-05
  0.00000000e+00  0.00000000e+00  0.00000000e+00 -1.20560639e-06
  0.00000000e+00  0.00000000e+00  0.00000000e+00  0.00000000e+00
  0.00000000e+00  0.00000000e+00  0.00000000e+00  0.00000000e+00
  0.00000000e+00  0.00000000e+00  0.00000000e+00  0.00000000e+00
  0.00000000e+00  0.00000000e+00  0.00000000e+00  0.00000000e+00
  0.00000000e+00  0.00000000e+00 -7.52401398e-06 -1.20560639e-06
  0.00000000e+00  0.00000000e+00  0.00000000e+00  5.46295572e-06]","[[-0.00207178  0.04412617]
 [-0.00112291 -0.01281265]]",[],0.0,0.0
1787561929.6044471,1.908436406588905,1.5530898004748916,2.2200621077495466,"[ 1.14124200e-04  4.84975943e-06  0.00000000e+00  0.00000000e+00
  0.00000000e+00 -7.52401398e-06  4.84975943e-06  5.78263688e-05
  0.00000000e+00  0.00000000e+00  0.00000000e+00 -1.20560639e-06
  0.00000000e+00  0.00000000e+00  0.00000000e+00  0.00000000e+00
  0.00000000e+00  0.00000000e+00  0.00000000e+00  0.00000000e+00
  0.00000000e+00  0.00000000e+00  0.00000000e+00  0.00000000e+00
  0.00000000e+00  0.00000000e+00  0.00000000e+00  0.00000000e+00
  0.00000000e+00  0.00000000e+00 -7.52401398e-06 -1.20560639e-06
  0.00000000e+00  0.00000000e+00  0.00000000e+00  5.46295572e-06]","[[-0.00207178  0.04412617]
 [-0.00112291 -0.01281265]]",[],0.0,0.0
1787561929.655312,1.908436406588905,1.5530898004748916,2.2200621077495466,"[ 1.14124200e-04  4.84975943e-06  0.00000000e+00  0.00000000e+00
  0.00000000e+00 -7.52401398e-06  4.84975943e-06  5.78263688e-05
  0.00000000e+00  0.00000000e+00  0.00000000e+00 -1.20560639e-06
  0.00000000e+00  0.00000000e+00  0.00000000e+00  0.00000000e+00
  0.00000000e+00  0.00000000e+00  0.00000000e+00  0.00000000e+00
  0.00000000e+00  0.00000000e+00  0.00000000e+00  0.00000000e+00
  0.00000000e+00  0.00000000e+00  0.00000000e+00  0.00000000e+00
  0.00000000e+00  0.00000000e+00 -7.52401398e-06 -1.20560639e-06
  0.00000000e+00  0.00000000e+00  0.00000000e+00  5.46295572e-06]","[[-0.00207178  0.04412617]
 [-0.00112291 -0.01281265]]",[],0.0,0.0
1787561929.7065291,1.908436406588905,1.5530898004748916,2.2200621077495466,"[ 1.14124200e-04  4.84975943e-06  0.00000000e+00  0.00000000e+00
  0.00000000e+00 -7.52401398e-06  4.84975943e-06  5.78263688e-05
  0.00000000e+00  0.00000000e+00  0.00000000e+00 -1.20560639e-06
  0.00000000e+00  0.00000000e+00  0.00000000e+00  0.00000000e+00
  0.00000000e+00  0.00000000e+00  0.00000000e+00  0.00000000e+00
  0.00000000e+00  0.00000000e+00  0.00000000e+00  0.00000000e+00
  0.00000000e+00  0.00000000e+00  0.00000000e+00  0.00000000e+00
  0.00000000e+00  0.00000000e+00 -7.52401398e-06 -1.20560639e-06
  0.00000000e+00  0.00000000e+00  0.00000000e+00  5.46295572e-06]","[[-0.00207178  0.04412617]
 [-0.00112291 -0.01281265]]",[],0.0,0.0
1787561929.7554386,1.908436406588905,1.5530898004748916,2.2200621077495466,"[ 1.14124200e-04  4.84975943e-06  0.00000000e+00  0.00000000e+00
  0.00000000e+00 -7.52401398e-06  4.84975943e-06  5.78263688e-05
  0.00000000e+00  0.00000000e+00  0.00000000e+00 -1.20560639e-06
  0.00000000e+00  0.00000000e+00  0.00000000e+00  0.00000000e+00
  0.00000000e+00  0.00000000e+00  0.00000000e+00  0.00000000e+00
  0.00000000e+00  0.00000000e+00  0.00000000e+00  0.00000000e+00
  0.00000000e+00  0.00000000e+00  0.00000000e+00  0.00000000e+00
  0.00000000e+00  0.00000000e+00 -7.52401398e-06 -1.20560639e-06
  0.00000000e+00  0.00000000e+00  0.00000000e+00  5.46295572e-06]","[[-0.00207178  0.04412617]
 [-0.00112291 -0.01281265]]",[],0.0,0.0
1787561929.8046374,1.9808166998556416,1.5369724200038837,2.2252994866078346,"[ 4.83582475e-05  5.18701921e-06  0.00000000e+00  0.00000000e+00
  0.00000000e+00 -5.86211312e-06  5.18701921e-06  3.80387477e-05
  0.00000000e+00  0.00000000e+00  0.00000000e+00 -6.61162898e-06
  0.00000000e+00  0.00000000e+00  0.00000000e+00  0.00000000e+00
  0.00000000e+00  0.00000000e+00  0.00000000e+00  0.00000000e+00
  0.00000000e+00  0.00000000e+00  0.00000000e+00  0.00000000e+00
  0.00000000e+00  0.00000000e+00  0.00000000e+00  0.00000000e+00
  0.00000000e+00  0.00000000e+00 -5.86211312e-06 -6.61162898e-06
  0.00000000e+00  0.00000000e+00  0.00000000e+00  6.92121192e-06]","[[-0.00090844  0.02635996]
 [-0.00079139 -0.00026104]]",[],0.0,0.0
1787561929.8570907,1.9808166998556416,1.5369724200038837,2.2252994866078346,"[ 4.83582475e-05  5.18701921e-06  0.00000000e+00  0.00000000e+00
  0.00000000e+00 -5.86211312e-06  5.18701921e-06  3.80387477e-05
  0.00000000e+00  0.00000000e+00  0.00000000e+00 -6.61162898e-06
  0.00000000e+00  0.00000000e+00  0.00000000e+00  0.00000000e+00
  0.00000000e+00  0.00000000e+00  0.00000000e+00  0.00000000e+00
  0.00000000e+00  0.00000000e+00  0.00000000e+00  0.00000000e+00
  0.00000000e+00  0.00000000e+00  0.00000000e+00  0.00000000e+00
  0.00000000e+00  0.00000000e+00 -5.86211312e-06 -6.61162898e-06
  0.00000000e+00  0.00000000e+00  0.00000000e+00  6.92121192e-06]","[[-0.00090844  0.02635996]
 [-0.00079139 -0.00026104]]",[],0.0,0.0
1787561929.9046197,1.9808166998556416,1.5369724200038837,2.2252994866078346,"[ 4.83582475e-05  5.18701921e-06  0.00000000e+00  0.00000000e+00
  0.00000000e+00 -5.86211312e-06  5.18701921e-06  3.80387477e-05
  0.00000000e+00  0.00000000e+00  0.00000000e+00 -6.61162898e-06
  0.00000000e+00  0.00000000e+00  0.00000000e+00  0.00000000e+00
  0.00000000e+00  0.00000000e+00  0.00000000e+00  0.00000000e+00
  0.00000000e+00  0.00000000e+00  0.00000000e+00  0.00000000e+00
  0.00000000e+00  0.00000000e+00  0.00000000e+00  0.00000000e+00
  0.00000000e+00  0.00000000e+00 -5.86211312e-06 -6.61162898e-06
  0.00000000e+00  0.00000000e+00  0.00000000e+00  6.92121192e-06]","[[-0.00090844  0.02635996]
 [-0.00079139 -0.00026104]]",[],0.0,0.0
1787561929.962962,1.9808166998556416,1.5369724200038837,2.2252994866078346,"[ 4.83582475e-05  5.18701921e-06  0.00000000e+00  0.00000000e+00
  0.00000000e+00 -5.86211312e-06  5.18701921e-06  3.80387477e-05
  0.00000000e+00  0.00000000e+00  0.00000000e+00 -6.61162898e-06
  0.00000000e+00  0.00000000e+00  0.00000000e+00  0.00000000e+00
  0.00000000e+00  0.00000000e+00  0.00000000e+00  0.00000000e+00
  0.00000000e+00  0.00000000e+00  0.00000000e+00  0.00000000e+00
  0.00000000e+00  0.00000000e+00  0.00000000e+00  0.00000000e+00
  0.00000000e+00  0.00000000e+00 -5.86211312e-06 -6.61162898e-06
  0.00000000e+00  0.00000000e+00  0.00000000e+00  6.92121192e-06]","[[-0.00090844  0.02635996]
 [-0.00079139 -0.00026104]]",[],0.0,0.0
1787561930.0053666,1.9808166998556416,1.5369724200038837,2.2252994866078346,"[ 4.83582475e-05  5.18701921e-06  0.00000000e+00  0.00000000e+00
  0.00000000e+00 -5.86211312e-06  5.18701921e-06  3.80387477e-05
  0.00000000e+00  0.00000000e+00  0.00000000e+00 -6.61162898e-06
  0.00000000e+00  0.00000000e+00  0.00000000e+00  0.00000000e+00
  0.00000000e+00  0.00000000e+00  0.00000000e+00  0.00000000e+00
  0.00000000e+00  0.00000000e+00  0.00000000e+00  0.00000000e+00
  0.00000000e+00  0.00000000e+00  0.00000000e+00  0.00000000e+00
  0.00000000e+00  0.00000000e+00 -5.86211312e-06 -6.61162898e-06
  0.00000000e+00  0.00000000e+00  0.00000000e+00  6.92121192e-06]","[[-0.00090844  0.02635996]
 [-0.00079139 -0.00026104]]",[],0.0,0.0
1787561930.0553677,1.9808166998556416,1.5369724200038837,2.2252994866078346,"[ 4.83582475e-05  5.18701921e-06  0.00000000e+00  0.00000000e+00
  0.00000000e+00 -5.86211312e-06  5.18701921e-06  3.80387477e-05
  0.00000000e+00  0.00000000e+00  0.00000000e+00 -6.61162898e-06
  0.00000000e+00  0.00000000e+00  0.00000000e+00  0.00000000e+00
  0.00000000e+00  0.00000000e+00  0.00000000e+00  0.00000000e+00
  0.00000000e+00  0.00000000e+00  0.00000000e+00  0.00000000e+00
  0.00000000e+00  0.00000000e+00  0.00000000e+00  0.00000000e+00
  0.00000000e+00  0.00000000e+00 -5.86211312e-06 -6.61162898e-06
  0.00000000e+00  0.00000000e+00  0.00000000e+00  6.92121192e-06]","[[-0.00090844  0.02635996]
 [-0.00079139 -0.00026104]]",[],0.0,0.0
1787561930.1056235,1.9808166998556416,1.5369724200038837,2.2252994866078346,"[ 4.83582475e-05  5.18701921e-06  0.00000000e+00  0.00000000e+00
  0.00000000e+00 -5.86211312e-06  5.18701921e-06  3.80387477e-05
  0.00000000e+00  0.00000000e+00  0.00000000e+00 -6.61162898e-06
  0.00000000e+00  0.00000000e+00  0.00000000e+00  0.00000000e+00
  0.00000000e+00  0.00000000e+00  0.00000000e+00  0.00000000e+00
  0.00000000e+00  0.00000000e+00  0.00000000e+00  0.00000000e+00
  0.00000000e+00  0.00000000e+00  0.00000000e+00  0.00000000e+00
  0.00000000e+00  0.00000000e+00 -5.86211312e-06 -6.61162898e-06
  0.00000000e+00  0.00000000e+00  0.00000000e+00  6.92121192e-06]","[[-0.00090844  0.02635996]
 [-0.00079139 -0.00026104]]",[],0.0,0.0
1787561930.1548674,1.9808166998556416,1.5369724200038837,2.2252994866078346,"[ 4.83582475e-05  5.18701921e-06  0.00000000e+00  0.00000000e+00
  0.00000000e+00 -5.86211312e-06  5.18701921e-06  3.80387477e-05
  0.00000000e+00  0.00000000e+00  0.00000000e+00 -6.61162898e-06
  0.00000000e+00  0.00000000e+00  0.00000000e+00  0.00000000e+00
  0.00000000e+00  0.00000000e+00  0.00000000e+00  0.00000000e+00
  0.00000000e+00  0.00000000e+00  0.00000000e+00  0.00000000e+00
  0.00000000e+00  0.00000000e+00  0.00000000e+00  0.00000000e+00
  0.00000000e+00  0.00000000e+00 -5.86211312e-06 -6.61162898e-06
  0.00000000e+00  0.00000000e+00  0.00000000e+00  6.92121192e-06]","[[-0.00090844  0.02635996]
 [-0.00079139 -0.00026104]]",[],0.0,0.0
1787561930.2055101,1.9808166998556416,1.5369724200038837,2.2252994866078346,"[ 4.83582475e-05  5.18701921e-06  0.00000000e+00  0.00000000e+00
  0.00000000e+00 -5.86211312e-06  5.18701921e-06  3.80387477e-05
  0.00000000e+00  0.00000000e+00  0.00000000e+00 -6.61162898e-06
  0.00000000e+00  0.00000000e+00  0.00000000e+00  0.00000000e+00
  0.00000000e+00  0.00000000e+00  0.00000000e+00  0.00000000e+00
  0.00000000e+00  0.00000000e+00  0.00000000e+00  0.00000000e+00
  0.00000000e+00  0.00000000e+00  0.00000000e+00  0.00000000e+00
  0.00000000e+00  0.00000000e+00 -5.86211312e-06 -6.61162898e-06
  0.00000000e+00  0.00000000e+00  0.00000000e+00  6.92121192e-06]","[[-0.00090844  0.02635996]
 [-0.00079139 -0.00026104]]",[],0.0,0.0
1787561930.2606442,1.9808166998556416,1.5369724200038837,2.2252994866078346,"[ 4.83582475e-05  5.18701921e-06  0.00000000e+00  0.00000000e+00
  0.00000000e+00 -5.86211312e-06  5.18701921e-06  3.80387477e-05
  0.00000000e+00  0.00000000e+00  0.00000000e+00 -6.61162898e-06
  0.00000000e+00  0.00000000e+00  0.00000000e+00  0.00000000e+00
  0.00000000e+00  0.00000000e+00  0.00000000e+00  0.00000000e+00
  0.00000000e+00  0.00000000e+00  0.00000000e+00  0.00000000e+00
  0.00000000e+00  0.00000000e+00  0.00000000e+00  0.00000000e+00
  0.00000000e+00  0.00000000e+00 -5.86211312e-06 -6.61162898e-06
  0.00000000e+00  0.00000000e+00  0.00000000e+00  6.92121192e-06]","[[-0.00090844  0.02635996]
 [-0.00079139 -0.00026104]]",[],0.0,0.0
1787561930.3046758,1.9808166998556416,1.5369724200038837,2.2252994866078346,"[ 4.83582475e-05  5.18701921e-06  0.00000000e+00  0.00000000e+00
  0.00000000e+00 -5.86211312e-06  5.18701921e-06  3.80387477e-05
  0.00000000e+00  0.00000000e+00  0.00000000e+00 -6.61162898e-06
  0.00000000e+00  0.00000000e+00  0.00000000e+00  0.00000000e+00
  0.00000000e+00  0.00000000e+00  0.00000000e+00  0.00000000e+00
  0.00000000e+00  0.00000000e+00  0.00000000e+00  0.00000000e+00
  0.00000000e+00  0.00000000e+00  0.00000000e+00  0.00000000e+00
  0.00000000e+00  0.00000000e+00 -5.86211312e-06 -6.61162898e-06
  0.00000000e+00  0.00000000e+00  0.00000000e+00  6.92121192e-06]","[[-0.00090844  0.02635996]
 [-0.00079139 -0.00026104]]",[],0.0,0.0
1787561930.3542912,1.9808166998556416,1.5369724200038837,2.2252994866078346,"[ 4.83582475e-05  5.18701921e-06  0.00000000e+00  0.00000000e+00
  0.00000000e+00 -5.86211312e-06  5.18701921e-06  3.80387477e-05
  0.00000000e+00  0.00000000e+00  0.00000000e+00 -6.61162898e-06
  0.00000000e+00  0.00000000e+00  0.00000000e+00  0.00000000e+00
  0.00000000e+00  0.00000000e+00  0.00000000e+00  0.00000000e+00
  0.00000000e+00  0.00000000e+00  0.00000000e+00  0.00000000e+00
  0.00000000e+00  0.00000000e+00  0.00000000e+00  0.00000000e+00
  0.00000000e+00  0.00000000e+00 -5.86211312e-06 -6.61162898e-06
  0.00000000e+00  0.00000000e+00  0.00000000e+00  6.92121192e-06]","[[-0.00090844  0.02635996]
 [-0.00079139 -0.00026104]]",[],0.0,0.0
1787561930.4043813,1.9808166998556416,1.5369724200038837,2.2252994866078346,"[ 4.83582475e-05  5.18701921e-06  0.00000000e+00  0.00000000e+00
  0.00000000e+00 -5.86211312e-06  5.18701921e-06  3.80387477e-05
  0.00000000e+00  0.00000000e+00  0.00000000e+00 -6.61162898e-06
  0.00000000e+00  0.00000000e+00  0.00000000e+00  0.00000000e+00
  0.00000000e+00  0.00000000e+00  0.00000000e+00  0.00000000e+00
  0.00000000e+00  0.00000000e+00  0.00000000e+00  0.00000000e+00
  0.00000000e+00  0.00000000e+00  0.00000000e+00  0.00000000e+00
  0.00000000e+00  0.00000000e+00 -5.86211312e-06 -6.61162898e-06
  0.00000000e+00  0.00000000e+00  0.00000000e+00  6.92121192e-06]","[[-0.00090844  0.02635996]
 [-0.00079139 -0.00026104]]",[],0.0,0.0
1787561930.4544415,1.9808166998556416,1.5369724200038837,2.2252994866078346,"[ 4.83582475e-05  5.18701921e-06  0.00000000e+00  0.00000000e+00
  0.00000000e+00 -5.86211312e-06  5.18701921e-06  3.80387477e-05
  0.00000000e+00  0.00000000e+00  0.00000000e+00 -6.61162898e-06
  0.00000000e+00  0.00000000e+00  0.00000000e+00  0.00000000e+00
  0.00000000e+00  0.00000000e+00  0.00000000e+00  0.00000000e+00
  0.00000000e+00  0.00000000e+00  0.00000000e+00  0.00000000e+00
  0.00000000e+00  0.00000000e+00  0.00000000e+00  0.00000000e+00
  0.00000000e+00  0.00000000e+00 -5.86211312e-06 -6.61162898e-06
  0.00000000e+00  0.00000000e+00  0.00000000e+00  6.92121192e-06]","[[-0.00090844  0.02635996]
 [-0.00079139 -0.00026104]]",[],0.0,0.0
1787561930.5045254,1.9808166998556416,1.5369724200038837,2.2252994866078346,"[ 4.83582475e-05  5.18701921e-06  0.00000000e+00  0.00000000e+00
  0.00000000e+00 -5.86211312e-06  5.18701921e-06  3.80387477e-05
  0.00000000e+00  0.00000000e+00  0.00000000e+00 -6.61162898e-06
  0.00000000e+00  0.00000000e+00  0.00000000e+00  0.00000000e+00
  0.00000000e+00  0.00000000e+00  0.00000000e+00  0.00000000e+00
  0.00000000e+00  0.00000000e+00  0.00000000e+00  0.00000000e+00
  0.00000000e+00  0.00000000e+00  0.00000000e+00  0.00000000e+00
  0.00000000e+00  0.00000000e+00 -5.86211312e-06 -6.61162898e-06
  0.00000000e+00  0.00000000e+00  0.00000000e+00  6.92121192e-06]","[[-0.00090844  0.02635996]
 [-0.00079139 -0.00026104]]",[],0.0,0.0
1787561930.5545642,1.9808166998556416,1.5369724200038837,2.2252994866078346,"[ 4.83582475e-05  5.18701921e-06  0.00000000e+00  0.00000000e+00
  0.00000000e+00 -5.86211312e-06  5.18701921e-06  3.80387477e-05
  0.00000000e+00  0.00000000e+00  0.00000000e+00 -6.61162898e-06
  0.00000000e+00  0.00000000e+00  0.00000000e+00  0.00000000e+00
  0.00000000e+00  0.00000000e+00  0.00000000e+00  0.00000000e+00
  0.00000000e+00  0.00000000e+00  0.00000000e+00  0.00000000e+00
  0.00000000e+00  0.00000000e+00  0.00000000e+00  0.00000000e+00
  0.00000000e+00  0.00000000e+00 -5.86211312e-06 -6.61162898e-06
  0.00000000e+00  0.00000000e+00  0.00000000e+00  6.92121192e-06]","[[-0.00090844  0.02635996]
 [-0.00079139 -0.00026104]]",[],0.0,0.0
1787561930.604867,1.9808166998556416,1.5369724200038837,2.2252994866078346,"[ 4.83582475e-05  5.18701921e-06  0.00000000e+00  0.00000000e+00
  0.00000000e+00 -5.86211312e-06  5.18701921e-06  3.80387477e-05
  0.00000000e+00  0.00000000e+00  0.00000000e+00 -6.61162898e-06
  0.00000000e+00  0.00000000e+00  0.00000000e+00  0.00000000e+00
  0.00000000e+00  0.00000000e+00  0.00000000e+00  0.00000000e+00
  0.00000000e+00  0.00000000e+00  0.00000000e+00  0.00000000e+00
  0.00000000e+00  0.00000000e+00  0.00000000e+00  0.00000000e+00
  0.00000000e+00  0.00000000e+00 -5.86211312e-06 -6.61162898e-06
  0.00000000e+00  0.00000000e+00  0.00000000e+00  6.92121192e-06]","[[-0.00090844  0.02635996]
 [-0.00079139 -0.00026104]]",[],0.0,0.0
1787561930.6547618,1.9808166998556416,1.5369724200038837,2.2252994866078346,"[ 4.83582475e-05  5.18701921e-06  0.00000000e+00  0.00000000e+00
  0.00000000e+00 -5.86211312e-06  5.18701921e-06  3.80387477e-05
  0.00000000e+00  0.00000000e+00  0.00000000e+00 -6.61162898e-06
  0.00000000e+00  0.00000000e+00  0.00000000e+00  0.00000000e+00
  0.00000000e+00  0.00000000e+00  0.00000000e+00  0.00000000e+00
  0.00000000e+00  0.00000000e+00  0.00000000e+00  0.00000000e+00
  0.00000000e+00  0.00000000e+00  0.00000000e+00  0.00000000e+00
  0.00000000e+00  0.00000000e+00 -5.86211312e-06 -6.61162898e-06
  0.00000000e+00  0.00000000e+00  0.00000000e+00  6.92121192e-06]","[[-0.00090844  0.02635996]
 [-0.00079139 -0.00026104]]",[],0.0,0.0
1787561930.7044864,1.9808166998556416,1.5369724200038837,2.2252994866078346,"[ 4.83582475e-05  5.18701921e-06  0.00000000e+00  0.00000000e+00
  0.00000000e+00 -5.86211312e-06  5.18701921e-06  3.80387477e-05
  0.00000000e+00  0.00000000e+00  0.00000000e+00 -6.61162898e-06
  0.00000000e+00  0.00000000e+00  0.00000000e+00  0.00000000e+00
  0.00000000e+00  0.00000000e+00  0.00000000e+00  0.00000000e+00
  0.00000000e+00  0.00000000e+00  0.00000000e+00  0.00000000e+00
  0.00000000e+00  0.00000000e+00  0.00000000e+00  0.00000000e+00
  0.00000000e+00  0.00000000e+00 -5.86211312e-06 -6.61162898e-06
  0.00000000e+00  0.00000000e+00  0.00000000e+00  6.92121192e-06]","[[-0.00090844  0.02635996]
 [-0.00079139 -0.00026104]]",[],0.0,0.0
1787561930.7550917,1.9808166998556416,1.5369724200038837,2.2252994866078346,"[ 4.83582475e-05  5.18701921e-06  0.00000000e+00  0.00000000e+00
  0.00000000e+00 -5.86211312e-06  5.18701921e-06  3.80387477e-05
  0.00000000e+00  0.00000000e+00  0.00000000e+00 -6.61162898e-06
  0.00000000e+00  0.00000000e+00  0.00000000e+00  0.00000000e+00
  0.00000000e+00  0.00000000e+00  0.00000000e+00  0.00000000e+00
  0.00000000e+00  0.00000000e+00  0.00000000e+00  0.00000000e+00
  0.00000000e+00  0.00000000e+00  0.00000000e+00  0.00000000e+00
  0.00000000e+00  0.00000000e+00 -5.86211312e-06 -6.61162898e-06
  0.00000000e+00  0.00000000e+00  0.00000000e+00  6.92121192e-06]","[[-0.00090844  0.02635996]
 [-0.00079139 -0.00026104]]",[],0.0,0.0
1787561930.8061724,1.9808166998556416,1.5369724200038837,2.2252994866078346,"[ 4.83582475e-05  5.18701921e-06  0.00000000e+00  0.00000000e+00
  0.00000000e+00 -5.86211312e-06  5.18701921e-06  3.80387477e-05
  0.00000000e+00  0.00000000e+00  0.00000000e+00 -6.61162898e-06
  0.00000000e+00  0.00000000e+00  0.00000000e+00  0.00000000e+00
  0.00000000e+00  0.00000000e+00  0.00000000e+00  0.00000000e+00
  0.00000000e+00  0.00000000e+00  0.00000000e+00  0.00000000e+00
  0.00000000e+00  0.00000000e+00  0.00000000e+00  0.00000000e+00
  0.00000000e+00  0.00000000e+00 -5.86211312e-06 -6.61162898e-06
  0.00000000e+00  0.00000000e+00  0.00000000e+00  6.92121192e-06]","[[-0.00090844  0.02635996]
 [-0.00079139 -0.00026104]]",[],0.0,0.0
1787561930.8643312,1.9808166998556416,1.5369724200038837,2.2252994866078346,"[ 4.83582475e-05  5.18701921e-06  0.00000000e+00  0.00000000e+00
  0.00000000e+00 -5.86211312e-06  5.18701921e-06  3.80387477e-05
  0.00000000e+00  0.00000000e+00  0.00000000e+00 -6.61162898e-06
  0.00000000e+00  0.00000000e+00  0.00000000e+00  0.00000000e+00
  0.00000000e+00  0.00000000e+00  0.00000000e+00  0.00000000e+00
  0.00000000e+00  0.00000000e+00  0.00000000e+00  0.00000000e+00
  0.00000000e+00  0.00000000e+00  0.00000000e+00  0.00000000e+00
  0.00000000e+00  0.00000000e+00 -5.86211312e-06 -6.61162898e-06
  0.00000000e+00  0.00000000e+00  0.00000000e+00  6.92121192e-06]","[[-0.00090844  0.02635996]
 [-0.00079139 -0.00026104]]",[],0.0,0.0
1787561930.9130697,1.9808166998556416,1.5369724200038837,2.2252994866078346,"[ 4.83582475e-05  5.18701921e-06  0.00000000e+00  0.00000000e+00
  0.00000000e+00 -5.86211312e-06  5.18701921e-06  3.80387477e-05
  0.00000000e+00  0.00000000e+00  0.00000000e+00 -6.61162898e-06
  0.00000000e+00  0.00000000e+00  0.00000000e+00  0.00000000e+00
  0.00000000e+00  0.00000000e+00  0.00000000e+00  0.00000000e+00
  0.00000000e+00  0.00000000e+00  0.00000000e+00  0.00000000e+00
  0.00000000e+00  0.00000000e+00  0.00000000e+00  0.00000000e+00
  0.00000000e+00  0.00000000e+00 -5.86211312e-06 -6.61162898e-06
  0.00000000e+00  0.00000000e+00  0.00000000e+00  6.92121192e-06]","[[-0.00090844  0.02635996]
 [-0.00079139 -0.00026104]]",[],0.0,0.0
1787561930.954797,2.0057305756354364,1.5157052533865447,2.3066010081333364,"[ 2.75449346e-05  2.00986086e-06  0.00000000e+00  0.00000000e+00
  0.00000000e+00 -3.37632514e-06  2.00986086e-06  2.25375628e-05
  0.00000000e+00  0.00000000e+00  0.00000000e+00 -2.59910241e-06
  0.00000000e+00  0.00000000e+00  0.00000000e+00  0.00000000e+00
  0.00000000e+00  0.00000000e+00  0.00000000e+00  0.00000000e+00
  0.00000000e+00  0.00000000e+00  0.00000000e+00  0.00000000e+00
  0.00000000e+00  0.00000000e+00  0.00000000e+00  0.00000000e+00
  0.00000000e+00  0.00000000e+00 -3.37632514e-06 -2.59910241e-06
  0.00000000e+00  0.00000000e+00  0.00000000e+00  4.74484479e-06]","[[ 0.00044615  0.02535169]
 [-0.00036721  0.02043999]]",[],0.0,0.0
1787561931.0083904,2.0057305756354364,1.5157052533865447,2.3066010081333364,"[ 2.75449346e-05  2.00986086e-06  0.00000000e+00  0.00000000e+00
  0.00000000e+00 -3.37632514e-06  2.00986086e-06  2.25375628e-05
  0.00000000e+00  0.00000000e+00  0.00000000e+00 -2.59910241e-06
  0.00000000e+00  0.00000000e+00  0.00000000e+00  0.00000000e+00
  0.00000000e+00  0.00000000e+00  0.00000000e+00  0.00000000e+00
  0.00000000e+00  0.00000000e+00  0.00000000e+00  0.00000000e+00
  0.00000000e+00  0.00000000e+00  0.00000000e+00  0.00000000e+00
  0.00000000e+00  0.00000000e+00 -3.37632514e-06 -2.59910241e-06
  0.00000000e+00  0.00000000e+00  0.00000000e+00  4.74484479e-06]","[[ 0.00044615  0.02535169]
 [-0.00036721  0.02043999]]",[],0.0,0.0
1787561931.0562618,2.0057305756354364,1.5157052533865447,2.3066010081333364,"[ 2.75449346e-05  2.00986086e-06  0.00000000e+00  0.00000000e+00
  0.00000000e+00 -3.37632514e-06  2.00986086e-06  2.25375628e-05
  0.00000000e+00  0.00000000e+00  0.00000000e+00 -2.59910241e-06
  0.00000000e+00  0.00000000e+00  0.00000000e+00  0.00000000e+00
  0.00000000e+00  0.00000000e+00  0.00000000e+00  0.00000000e+00
  0.00000000e+00  0.00000000e+00  0.00000000e+00  0.00000000e+00
  0.00000000e+00  0.00000000e+00  0.00000000e+00  0.00000000e+00
  0.00000000e+00  0.00000000e+00 -3.37632514e-06 -2.59910241e-06
  0.00000000e+00  0.00000000e+00  0.00000000e+00  4.74484479e-06]","[[ 0.00044615  0.02535169]
 [-0.00036721  0.02043999]]",[],0.0,0.0
1787561931.1093938,2.0057305756354364,1.5157052533865447,2.3066010081333364,"[ 2.75449346e-05  2.00986086e-06  0.00000000e+00  0.00000000e+00
  0.00000000e+00 -3.37632514e-06  2.00986086e-06  2.25375628e-05
  0.00000000e+00  0.00000000e+00  0.00000000e+00 -2.59910241e-06
  0.00000000e+00  0.00000000e+00  0.00000000e+00  0.00000000e+00
  0.00000000e+00  0.00000000e+00  0.00000000e+00  0.00000000e+00
  0.00000000e+00  0.00000000e+00  0.00000000e+00  0.00000000e+00
  0.00000000e+00  0.00000000e+00  0.00000000e+00  0.00000000e+00
  0.00000000e+00  0.00000000e+00 -3.37632514e-06 -2.59910241e-06
  0.00000000e+00  0.00000000e+00  0.00000000e+00  4.74484479e-06]","[[ 0.00044615  0.02535169]
 [-0.00036721  0.02043999]]",[],0.0,0.0
1787561931.1557765,2.0057305756354364,1.5157052533865447,2.3066010081333364,"[ 2.75449346e-05  2.00986086e-06  0.00000000e+00  0.00000000e+00
  0.00000000e+00 -3.37632514e-06  2.00986086e-06  2.25375628e-05
  0.00000000e+00  0.00000000e+00  0.00000000e+00 -2.59910241e-06
  0.00000000e+00  0.00000000e+00  0.00000000e+00  0.00000000e+00
  0.00000000e+00  0.00000000e+00  0.00000000e+00  0.00000000e+00
  0.00000000e+00  0.00000000e+00  0.00000000e+00  0.00000000e+00
  0.00000000e+00  0.00000000e+00  0.00000000e+00  0.00000000e+00
  0.00000000e+00  0.00000000e+00 -3.37632514e-06 -2.59910241e-06
  0.00000000e+00  0.00000000e+00  0.00000000e+00  4.74484479e-06]","[[ 0.00044615  0.02535169]
 [-0.00036721  0.02043999]]",[],0.0,0.0
1787561931.206061,2.0057305756354364,1.5157052533865447,2.3066010081333364,"[ 2.75449346e-05  2.00986086e-06  0.00000000e+00  0.00000000e+00
  0.00000000e+00 -3.37632514e-06  2.00986086e-06  2.25375628e-05
  0.00000000e+00  0.00000000e+00  0.00000000e+00 -2.59910241e-06
  0.00000000e+00  0.00000000e+00  0.00000000e+00  0.00000000e+00
  0.00000000e+00  0.00000000e+00  0.00000000e+00  0.00000000e+00
  0.00000000e+00  0.00000000e+00  0.00000000e+00  0.00000000e+00
  0.00000000e+00  0.00000000e+00  0.00000000e+00  0.00000000e+00
  0.00000000e+00  0.00000000e+00 -3.37632514e-06 -2.59910241e-06
  0.00000000e+00  0.00000000e+00  0.00000000e+00  4.74484479e-06]","[[ 0.00044615  0.02535169]
 [-0.00036721  0.02043999]]",[],0.0,0.0
1787561931.2551055,2.0057305756354364,1.5157052533865447,2.3066010081333364,"[ 2.75449346e-05  2.00986086e-06  0.00000000e+00  0.00000000e+00
  0.00000000e+00 -3.37632514e-06  2.00986086e-06  2.25375628e-05
  0.00000000e+00  0.00000000e+00  0.00000000e+00 -2.59910241e-06
  0.00000000e+00  0.00000000e+00  0.00000000e+00  0.00000000e+00
  0.00000000e+00  0.00000000e+00  0.00000000e+00  0.00000000e+00
  0.00000000e+00  0.00000000e+00  0.00000000e+00  0.00000000e+00
  0.00000000e+00  0.00000000e+00  0.00000000e+00  0.00000000e+00
  0.00000000e+00  0.00000000e+00 -3.37632514e-06 -2.59910241e-06
  0.00000000e+00  0.00000000e+00  0.00000000e+00  4.74484479e-06]","[[ 0.00044615  0.02535169]
 [-0.00036721  0.02043999]]",[],0.0,0.0
1787561931.3151422,2.0057305756354364,1.5157052533865447,2.3066010081333364,"[ 2.75449346e-05  2.00986086e-06  0.00000000e+00  0.00000000e+00
  0.00000000e+00 -3.37632514e-06  2.00986086e-06  2.25375628e-05
  0.00000000e+00  0.00000000e+00  0.00000000e+00 -2.59910241e-06
  0.00000000e+00  0.00000000e+00  0.00000000e+00  0.00000000e+00
  0.00000000e+00  0.00000000e+00  0.00000000e+00  0.00000000e+00
  0.00000000e+00  0.00000000e+00  0.00000000e+00  0.00000000e+00
  0.00000000e+00  0.00000000e+00  0.00000000e+00  0.00000000e+00
  0.00000000e+00  0.00000000e+00 -3.37632514e-06 -2.59910241e-06
  0.00000000e+00  0.00000000e+00  0.00000000e+00  4.74484479e-06]","[[ 0.00044615  0.02535169]
 [-0.00036721  0.02043999]]",[],0.0,0.0
1787561931.3675594,2.0057305756354364,1.5157052533865447,2.3066010081333364,"[ 2.75449346e-05  2.00986086e-06  0.00000000e+00  0.00000000e+00
  0.00000000e+00 -3.37632514e-06  2.00986086e-06  2.25375628e-05
  0.00000000e+00  0.00000000e+00  0.00000000e+00 -2.59910241e-06
  0.00000000e+00  0.00000000e+00  0.00000000e+00  0.00000000e+00
  0.00000000e+00  0.00000000e+00  0.00000000e+00  0.00000000e+00
  0.00000000e+00  0.00000000e+00  0.00000000e+00  0.00000000e+00
  0.00000000e+00  0.00000000e+00  0.00000000e+00  0.00000000e+00
  0.00000000e+00  0.00000000e+00 -3.37632514e-06 -2.59910241e-06
  0.00000000e+00  0.00000000e+00  0.00000000e+00  4.74484479e-06]","[[ 0.00044615  0.02535169]
 [-0.00036721  0.02043999]]",[],0.0,0.0
1787561931.4288516,2.0057305756354364,1.5157052533865447,2.3066010081333364,"[ 2.75449346e-05  2.00986086e-06  0.00000000e+00  0.00000000e+00
  0.00000000e+00 -3.37632514e-06  2.00986086e-06  2.25375628e-05
  0.00000000e+00  0.00000000e+00  0.00000000e+00 -2.59910241e-06
  0.00000000e+00  0.00000000e+00  0.00000000e+00  0.00000000e+00
  0.00000000e+00  0.00000000e+00  0.00000000e+00  0.00000000e+00
  0.00000000e+00  0.00000000e+00  0.00000000e+00  0.00000000e+00
  0.00000000e+00  0.00000000e+00  0.00000000e+00  0.00000000e+00
  0.00000000e+00  0.00000000e+00 -3.37632514e-06 -2.59910241e-06
  0.00000000e+00  0.00000000e+00  0.00000000e+00  4.74484479e-06]","[[ 0.00044615  0.02535169]
 [-0.00036721  0.02043999]]",[],0.0,0.0
1787561931.4803174,2.0057305756354364,1.5157052533865447,2.3066010081333364,"[ 2.75449346e-05  2.00986086e-06  0.00000000e+00  0.00000000e+00
  0.00000000e+00 -3.37632514e-06  2.00986086e-06  2.25375628e-05
  0.00000000e+00  0.00000000e+00  0.00000000e+00 -2.59910241e-06
  0.00000000e+00  0.00000000e+00  0.00000000e+00  0.00000000e+00
  0.00000000e+00  0.00000000e+00  0.00000000e+00  0.00000000e+00
  0.00000000e+00  0.00000000e+00  0.00000000e+00  0.00000000e+00
  0.00000000e+00  0.00000000e+00  0.00000000e+00  0.00000000e+00
  0.00000000e+00  0.00000000e+00 -3.37632514e-06 -2.59910241e-06
  0.00000000e+00  0.00000000e+00  0.00000000e+00  4.74484479e-06]","[[ 0.00044615  0.02535169]
 [-0.00036721  0.02043999]]",[],0.0,0.0
1787561931.5081897,2.0057305756354364,1.5157052533865447,2.3066010081333364,"[ 2.75449346e-05  2.00986086e-06  0.00000000e+00  0.00000000e+00
  0.00000000e+00 -3.37632514e-06  2.00986086e-06  2.25375628e-05
  0.00000000e+00  0.00000000e+00  0.00000000e+00 -2.59910241e-06
  0.00000000e+00  0.00000000e+00  0.00000000e+00  0.00000000e+00
  0.00000000e+00  0.00000000e+00  0.00000000e+00  0.00000000e+00
  0.00000000e+00  0.00000000e+00  0.00000000e+00  0.00000000e+00
  0.00000000e+00  0.00000000e+00  0.00000000e+00  0.00000000e+00
  0.00000000e+00  0.00000000e+00 -3.37632514e-06 -2.59910241e-06
  0.00000000e+00  0.00000000e+00  0.00000000e+00  4.74484479e-06]","[[ 0.00044615  0.02535169]
 [-0.00036721  0.02043999]]",[],0.0,0.0
1787561931.5544271,2.0057305756354364,1.5157052533865447,2.3066010081333364,"[ 2.75449346e-05  2.00986086e-06  0.00000000e+00  0.00000000e+00
  0.00000000e+00 -3.37632514e-06  2.00986086e-06  2.25375628e-05
  0.00000000e+00  0.00000000e+00  0.00000000e+00 -2.59910241e-06
  0.00000000e+00  0.00000000e+00  0.00000000e+00  0.00000000e+00
  0.00000000e+00  0.00000000e+00  0.00000000e+00  0.00000000e+00
  0.00000000e+00  0.00000000e+00  0.00000000e+00  0.00000000e+00
  0.00000000e+00  0.00000000e+00  0.00000000e+00  0.00000000e+00
  0.00000000e+00  0.00000000e+00 -3.37632514e-06 -2.59910241e-06
  0.00000000e+00  0.00000000e+00  0.00000000e+00  4.74484479e-06]","[[ 0.00044615  0.02535169]
 [-0.00036721  0.02043999]]",[],0.0,0.0
1787561931.6044629,2.043200420863497,1.5057060288487476,2.2949745271717585,"[ 2.15990990e-05  1.81112932e-06  0.00000000e+00  0.00000000e+00
  0.00000000e+00 -2.72439807e-06  1.81112932e-06  1.70871355e-05
  0.00000000e+00  0.00000000e+00  0.00000000e+00 -1.73801553e-06
  0.00000000e+00  0.00000000e+00  0.00000000e+00  0.00000000e+00
  0.00000000e+00  0.00000000e+00  0.00000000e+00  0.00000000e+00
  0.00000000e+00  0.00000000e+00  0.00000000e+00  0.00000000e+00
  0.00000000e+00  0.00000000e+00  0.00000000e+00  0.00000000e+00
  0.00000000e+00  0.00000000e+00 -2.72439807e-06 -1.73801553e-06
  0.00000000e+00  0.00000000e+00  0.00000000e+00  4.71375862e-06]","[[-0.00038489  0.01246081]
 [-0.00035438 -0.00218863]]",[],0.0,0.0
1787561931.6550953,2.043200420863497,1.5057060288487476,2.2949745271717585,"[ 2.15990990e-05  1.81112932e-06  0.00000000e+00  0.00000000e+00
  0.00000000e+00 -2.72439807e-06  1.81112932e-06  1.70871355e-05
  0.00000000e+00  0.00000000e+00  0.00000000e+00 -1.73801553e-06
  0.00000000e+00  0.00000000e+00  0.00000000e+00  0.00000000e+00
  0.00000000e+00  0.00000000e+00  0.00000000e+00  0.00000000e+00
  0.00000000e+00  0.00000000e+00  0.00000000e+00  0.00000000e+00
  0.00000000e+00  0.00000000e+00  0.00000000e+00  0.00000000e+00
  0.00000000e+00  0.00000000e+00 -2.72439807e-06 -1.73801553e-06
  0.00000000e+00  0.00000000e+00  0.00000000e+00  4.71375862e-06]","[[-0.00038489  0.01246081]
 [-0.00035438 -0.00218863]]",[],0.0,0.0
1787561931.708699,2.043200420863497,1.5057060288487476,2.2949745271717585,"[ 2.15990990e-05  1.81112932e-06  0.00000000e+00  0.00000000e+00
  0.00000000e+00 -2.72439807e-06  1.81112932e-06  1.70871355e-05
  0.00000000e+00  0.00000000e+00  0.00000000e+00 -1.73801553e-06
  0.00000000e+00  0.00000000e+00  0.00000000e+00  0.00000000e+00
  0.00000000e+00  0.00000000e+00  0.00000000e+00  0.00000000e+00
  0.00000000e+00  0.00000000e+00  0.00000000e+00  0.00000000e+00
  0.00000000e+00  0.00000000e+00  0.00000000e+00  0.00000000e+00
  0.00000000e+00  0.00000000e+00 -2.72439807e-06 -1.73801553e-06
  0.00000000e+00  0.00000000e+00  0.00000000e+00  4.71375862e-06]","[[-0.00038489  0.01246081]
 [-0.00035438 -0.00218863]]",[],0.0,0.0
1787561931.754705,2.043200420863497,1.5057060288487476,2.2949745271717585,"[ 2.15990990e-05  1.81112932e-06  0.00000000e+00  0.00000000e+00
  0.00000000e+00 -2.72439807e-06  1.81112932e-06  1.70871355e-05
  0.00000000e+00  0.00000000e+00  0.00000000e+00 -1.73801553e-06
  0.00000000e+00  0.00000000e+00  0.00000000e+00  0.00000000e+00
  0.00000000e+00  0.00000000e+00  0.00000000e+00  0.00000000e+00
  0.00000000e+00  0.00000000e+00  0.00000000e+00  0.00000000e+00
  0.00000000e+00  0.00000000e+00  0.00000000e+00  0.00000000e+00
  0.00000000e+00  0.00000000e+00 -2.72439807e-06 -1.73801553e-06
  0.00000000e+00  0.00000000e+00  0.00000000e+00  4.71375862e-06]","[[-0.00038489  0.01246081]
 [-0.00035438 -0.00218863]]",[],0.0,0.0
1787561931.8045588,2.043200420863497,1.5057060288487476,2.2949745271717585,"[ 2.15990990e-05  1.81112932e-06  0.00000000e+00  0.00000000e+00
  0.00000000e+00 -2.72439807e-06  1.81112932e-06  1.70871355e-05
  0.00000000e+00  0.00000000e+00  0.00000000e+00 -1.73801553e-06
  0.00000000e+00  0.00000000e+00  0.00000000e+00  0.00000000e+00
  0.00000000e+00  0.00000000e+00  0.00000000e+00  0.00000000e+00
  0.00000000e+00  0.00000000e+00  0.00000000e+00  0.00000000e+00
  0.00000000e+00  0.00000000e+00  0.00000000e+00  0.00000000e+00
  0.00000000e+00  0.00000000e+00 -2.72439807e-06 -1.73801553e-06
  0.00000000e+00  0.00000000e+00  0.00000000e+00  4.71375862e-06]","[[-0.00038489  0.01246081]
 [-0.00035438 -0.00218863]]",[],0.0,0.0
1787561931.8682227,2.043200420863497,1.5057060288487476,2.2949745271717585,"[ 2.15990990e-05  1.81112932e-06  0.00000000e+00  0.00000000e+00
  0.00000000e+00 -2.72439807e-06  1.81112932e-06  1.70871355e-05
  0.00000000e+00  0.00000000e+00  0.00000000e+00 -1.73801553e-06
  0.00000000e+00  0.00000000e+00  0.00000000e+00  0.00000000e+00
  0.00000000e+00  0.00000000e+00  0.00000000e+00  0.00000000e+00
  0.00000000e+00  0.00000000e+00  0.00000000e+00  0.00000000e+00
  0.00000000e+00  0.00000000e+00  0.00000000e+00  0.00000000e+00
  0.00000000e+00  0.00000000e+00 -2.72439807e-06 -1.73801553e-06
  0.00000000e+00  0.00000000e+00  0.00000000e+00  4.71375862e-06]","[[-0.00038489  0.01246081]
 [-0.00035438 -0.00218863]]",[],0.0,0.0
1787561931.90666,2.043200420863497,1.5057060288487476,2.2949745271717585,"[ 2.15990990e-05  1.81112932e-06  0.00000000e+00  0.00000000e+00
  0.00000000e+00 -2.72439807e-06  1.81112932e-06  1.70871355e-05
  0.00000000e+00  0.00000000e+00  0.00000000e+00 -1.73801553e-06
  0.00000000e+00  0.00000000e+00  0.00000000e+00  0.00000000e+00
  0.00000000e+00  0.00000000e+00  0.00000000e+00  0.00000000e+00
  0.00000000e+00  0.00000000e+00  0.00000000e+00  0.00000000e+00
  0.00000000e+00  0.00000000e+00  0.00000000e+00  0.00000000e+00
  0.00000000e+00  0.00000000e+00 -2.72439807e-06 -1.73801553e-06
  0.00000000e+00  0.00000000e+00  0.00000000e+00  4.71375862e-06]","[[-0.00038489  0.01246081]
 [-0.00035438 -0.00218863]]",[],0.0,0.0
1787561931.9547544,2.043200420863497,1.5057060288487476,2.2949745271717585,"[ 2.15990990e-05  1.81112932e-06  0.00000000e+00  0.00000000e+00
  0.00000000e+00 -2.72439807e-06  1.81112932e-06  1.70871355e-05
  0.00000000e+00  0.00000000e+00  0.00000000e+00 -1.73801553e-06
  0.00000000e+00  0.00000000e+00  0.00000000e+00  0.00000000e+00
  0.00000000e+00  0.00000000e+00  0.00000000e+00  0.00000000e+00
  0.00000000e+00  0.00000000e+00  0.00000000e+00  0.00000000e+00
  0.00000000e+00  0.00000000e+00  0.00000000e+00  0.00000000e+00
  0.00000000e+00  0.00000000e+00 -2.72439807e-06 -1.73801553e-06
  0.00000000e+00  0.00000000e+00  0.00000000e+00  4.71375862e-06]","[[-0.00038489  0.01246081]
 [-0.00035438 -0.00218863]]",[],0.0,0.0
1787561932.0051048,2.043200420863497,1.5057060288487476,2.2949745271717585,"[ 2.15990990e-05  1.81112932e-06  0.00000000e+00  0.00000000e+00
  0.00000000e+00 -2.72439807e-06  1.81112932e-06  1.70871355e-05
  0.00000000e+00  0.00000000e+00  0.00000000e+00 -1.73801553e-06
  0.00000000e+00  0.00000000e+00  0.00000000e+00  0.00000000e+00
  0.00000000e+00  0.00000000e+00  0.00000000e+00  0.00000000e+00
  0.00000000e+00  0.00000000e+00  0.00000000e+00  0.00000000e+00
  0.00000000e+00  0.00000000e+00  0.00000000e+00  0.00000000e+00
  0.00000000e+00  0.00000000e+00 -2.72439807e-06 -1.73801553e-06
  0.00000000e+00  0.00000000e+00  0.00000000e+00  4.71375862e-06]","[[-0.00038489  0.01246081]
 [-0.00035438 -0.00218863]]",[],0.0,0.0
1787561932.0555253,2.043200420863497,1.5057060288487476,2.2949745271717585,"[ 2.15990990e-05  1.81112932e-06  0.00000000e+00  0.00000000e+00
  0.00000000e+00 -2.72439807e-06  1.81112932e-06  1.70871355e-05
  0.00000000e+00  0.00000000e+00  0.00000000e+00 -1.73801553e-06
  0.00000000e+00  0.00000000e+00  0.00000000e+00  0.00000000e+00
  0.00000000e+00  0.00000000e+00  0.00000000e+00  0.00000000e+00
  0.00000000e+00  0.00000000e+00  0.00000000e+00  0.00000000e+00
  0.00000000e+00  0.00000000e+00  0.00000000e+00  0.00000000e+00
  0.00000000e+00  0.00000000e+00 -2.72439807e-06 -1.73801553e-06
  0.00000000e+00  0.00000000e+00  0.00000000e+00  4.71375862e-06]","[[-0.00038489  0.01246081]
 [-0.00035438 -0.00218863]]",[],0.0,0.0
1787561932.1051147,2.043200420863497,1.5057060288487476,2.2949745271717585,"[ 2.15990990e-05  1.81112932e-06  0.00000000e+00  0.00000000e+00
  0.00000000e+00 -2.72439807e-06  1.81112932e-06  1.70871355e-05
  0.00000000e+00  0.00000000e+00  0.00000000e+00 -1.73801553e-06
  0.00000000e+00  0.00000000e+00  0.00000000e+00  0.00000000e+00
  0.00000000e+00  0.00000000e+00  0.00000000e+00  0.00000000e+00
  0.00000000e+00  0.00000000e+00  0.00000000e+00  0.00000000e+00
  0.00000000e+00  0.00000000e+00  0.00000000e+00  0.00000000e+00
  0.00000000e+00  0.00000000e+00 -2.72439807e-06 -1.73801553e-06
  0.00000000e+00  0.00000000e+00  0.00000000e+00  4.71375862e-06]","[[-0.00038489  0.01246081]
 [-0.00035438 -0.00218863]]",[],0.0,0.0
1787561932.1549594,2.043200420863497,1.5057060288487476,2.2949745271717585,"[ 2.15990990e-05  1.81112932e-06  0.00000000e+00  0.00000000e+00
  0.00000000e+00 -2.72439807e-06  1.81112932e-06  1.70871355e-05
  0.00000000e+00  0.00000000e+00  0.00000000e+00 -1.73801553e-06
  0.00000000e+00  0.00000000e+00  0.00000000e+00  0.00000000e+00
  0.00000000e+00  0.00000000e+00  0.00000000e+00  0.00000000e+00
  0.00000000e+00  0.00000000e+00  0.00000000e+00  0.00000000e+00
  0.00000000e+00  0.00000000e+00  0.00000000e+00  0.00000000e+00
  0.00000000e+00  0.00000000e+00 -2.72439807e-06 -1.73801553e-06
  0.00000000e+00  0.00000000e+00  0.00000000e+00  4.71375862e-06]","[[-0.00038489  0.01246081]
 [-0.00035438 -0.00218863]]",[],0.0,0.0
1787561932.2155387,2.043200420863497,1.5057060288487476,2.2949745271717585,"[ 2.15990990e-05  1.81112932e-06  0.00000000e+00  0.00000000e+00
  0.00000000e+00 -2.72439807e-06  1.81112932e-06  1.70871355e-05
  0.00000000e+00  0.00000000e+00  0.00000000e+00 -1.73801553e-06
  0.00000000e+00  0.00000000e+00  0.00000000e+00  0.00000000e+00
  0.00000000e+00  0.00000000e+00  0.00000000e+00  0.00000000e+00
  0.00000000e+00  0.00000000e+00  0.00000000e+00  0.00000000e+00
  0.00000000e+00  0.00000000e+00  0.00000000e+00  0.00000000e+00
  0.00000000e+00  0.00000000e+00 -2.72439807e-06 -1.73801553e-06
  0.00000000e+00  0.00000000e+00  0.00000000e+00  4.71375862e-06]","[[-0.00038489  0.01246081]
 [-0.00035438 -0.00218863]]",[],0.0,0.0
1787561932.254832,2.043200420863497,1.5057060288487476,2.2949745271717585,"[ 2.15990990e-05  1.81112932e-06  0.00000000e+00  0.00000000e+00
  0.00000000e+00 -2.72439807e-06  1.81112932e-06  1.70871355e-05
  0.00000000e+00  0.00000000e+00  0.00000000e+00 -1.73801553e-06
  0.00000000e+00  0.00000000e+00  0.00000000e+00  0.00000000e+00
  0.00000000e+00  0.00000000e+00  0.00000000e+00  0.00000000e+00
  0.00000000e+00  0.00000000e+00  0.00000000e+00  0.00000000e+00
  0.00000000e+00  0.00000000e+00  0.00000000e+00  0.00000000e+00
  0.00000000e+00  0.00000000e+00 -2.72439807e-06 -1.73801553e-06
  0.00000000e+00  0.00000000e+00  0.00000000e+00  4.71375862e-06]","[[-0.00038489  0.01246081]
 [-0.00035438 -0.00218863]]",[],0.0,0.0
1787561932.3058133,2.043200420863497,1.5057060288487476,2.2949745271717585,"[ 2.15990990e-05  1.81112932e-06  0.00000000e+00  0.00000000e+00
  0.00000000e+00 -2.72439807e-06  1.81112932e-06  1.70871355e-05
  0.00000000e+00  0.00000000e+00  0.00000000e+00 -1.73801553e-06
  0.00000000e+00  0.00000000e+00  0.00000000e+00  0.00000000e+00
  0.00000000e+00  0.00000000e+00  0.00000000e+00  0.00000000e+00
  0.00000000e+00  0.00000000e+00  0.00000000e+00  0.00000000e+00
  0.00000000e+00  0.00000000e+00  0.00000000e+00  0.00000000e+00
  0.00000000e+00  0.00000000e+00 -2.72439807e-06 -1.73801553e-06
  0.00000000e+00  0.00000000e+00  0.00000000e+00  4.71375862e-06]","[[-0.00038489  0.01246081]
 [-0.00035438 -0.00218863]]",[],0.0,0.0
1787561932.3549721,2.043200420863497,1.5057060288487476,2.2949745271717585,"[ 2.15990990e-05  1.81112932e-06  0.00000000e+00  0.00000000e+00
  0.00000000e+00 -2.72439807e-06  1.81112932e-06  1.70871355e-05
  0.00000000e+00  0.00000000e+00  0.00000000e+00 -1.73801553e-06
  0.00000000e+00  0.00000000e+00  0.00000000e+00  0.00000000e+00
  0.00000000e+00  0.00000000e+00  0.00000000e+00  0.00000000e+00
  0.00000000e+00  0.00000000e+00  0.00000000e+00  0.00000000e+00
  0.00000000e+00  0.00000000e+00  0.00000000e+00  0.00000000e+00
  0.00000000e+00  0.00000000e+00 -2.72439807e-06 -1.73801553e-06
  0.00000000e+00  0.00000000e+00  0.00000000e+00  4.71375862e-06]","[[-0.00038489  0.01246081]
 [-0.00035438 -0.00218863]]",[],0.0,0.0
1787561932.4046497,2.043200420863497,1.5057060288487476,2.2949745271717585,"[ 2.15990990e-05  1.81112932e-06  0.00000000e+00  0.00000000e+00
  0.00000000e+00 -2.72439807e-06  1.81112932e-06  1.70871355e-05
  0.00000000e+00  0.00000000e+00  0.00000000e+00 -1.73801553e-06
  0.00000000e+00  0.00000000e+00  0.00000000e+00  0.00000000e+00
  0.00000000e+00  0.00000000e+00  0.00000000e+00  0.00000000e+00
  0.00000000e+00  0.00000000e+00  0.00000000e+00  0.00000000e+00
  0.00000000e+00  0.00000000e+00  0.00000000e+00  0.00000000e+00
  0.00000000e+00  0.00000000e+00 -2.72439807e-06 -1.73801553e-06
  0.00000000e+00  0.00000000e+00  0.00000000e+00  4.71375862e-06]","[[-0.00038489  0.01246081]
 [-0.00035438 -0.00218863]]",[],0.0,0.0
1787561932.4603891,2.043200420863497,1.5057060288487476,2.2949745271717585,"[ 2.15990990e-05  1.81112932e-06  0.00000000e+00  0.00000000e+00
  0.00000000e+00 -2.72439807e-06  1.81112932e-06  1.70871355e-05
  0.00000000e+00  0.00000000e+00  0.00000000e+00 -1.73801553e-06
  0.00000000e+00  0.00000000e+00  0.00000000e+00  0.00000000e+00
  0.00000000e+00  0.00000000e+00  0.00000000e+00  0.00000000e+00
  0.00000000e+00  0.00000000e+00  0.00000000e+00  0.00000000e+00
  0.00000000e+00  0.00000000e+00  0.00000000e+00  0.00000000e+00
  0.00000000e+00  0.00000000e+00 -2.72439807e-06 -1.73801553e-06
  0.00000000e+00  0.00000000e+00  0.00000000e+00  4.71375862e-06]","[[-0.00038489  0.01246081]
 [-0.00035438 -0.00218863]]",[],0.0,0.0
1787561932.506538,2.0351675330399663,1.4869361521598823,2.369959554460105,"[ 1.80596872e-05  5.37905013e-07  0.00000000e+00  0.00000000e+00
  0.00000000e+00 -2.04375023e-06  5.37905013e-07  1.33860779e-05
  0.00000000e+00  0.00000000e+00  0.00000000e+00 -7.20733902e-07
  0.00000000e+00  0.00000000e+00  0.00000000e+00  0.00000000e+00
  0.00000000e+00  0.00000000e+00  0.00000000e+00  0.00000000e+00
  0.00000000e+00  0.00000000e+00  0.00000000e+00  0.00000000e+00
  0.00000000e+00  0.00000000e+00  0.00000000e+00  0.00000000e+00
  0.00000000e+00  0.00000000e+00 -2.04375023e-06 -7.20733902e-07
  0.00000000e+00  0.00000000e+00  0.00000000e+00  5.08190967e-06]","[[-0.00031529  0.01589683]
 [-0.00025558 -0.00718402]]",[],0.0,0.0
1787561932.5546489,2.0351675330399663,1.4869361521598823,2.369959554460105,"[ 1.80596872e-05  5.37905013e-07  0.00000000e+00  0.00000000e+00
  0.00000000e+00 -2.04375023e-06  5.37905013e-07  1.33860779e-05
  0.00000000e+00  0.00000000e+00  0.00000000e+00 -7.20733902e-07
  0.00000000e+00  0.00000000e+00  0.00000000e+00  0.00000000e+00
  0.00000000e+00  0.00000000e+00  0.00000000e+00  0.00000000e+00
  0.00000000e+00  0.00000000e+00  0.00000000e+00  0.00000000e+00
  0.00000000e+00  0.00000000e+00  0.00000000e+00  0.00000000e+00
  0.00000000e+00  0.00000000e+00 -2.04375023e-06 -7.20733902e-07
  0.00000000e+00  0.00000000e+00  0.00000000e+00  5.08190967e-06]","[[-0.00031529  0.01589683]
 [-0.00025558 -0.00718402]]",[],0.0,0.0
1787561932.6047971,2.0351675330399663,1.4869361521598823,2.369959554460105,"[ 1.80596872e-05  5.37905013e-07  0.00000000e+00  0.00000000e+00
  0.00000000e+00 -2.04375023e-06  5.37905013e-07  1.33860779e-05
  0.00000000e+00  0.00000000e+00  0.00000000e+00 -7.20733902e-07
  0.00000000e+00  0.00000000e+00  0.00000000e+00  0.00000000e+00
  0.00000000e+00  0.00000000e+00  0.00000000e+00  0.00000000e+00
  0.00000000e+00  0.00000000e+00  0.00000000e+00  0.00000000e+00
  0.00000000e+00  0.00000000e+00  0.00000000e+00  0.00000000e+00
  0.00000000e+00  0.00000000e+00 -2.04375023e-06 -7.20733902e-07
  0.00000000e+00  0.00000000e+00  0.00000000e+00  5.08190967e-06]","[[-0.00031529  0.01589683]
 [-0.00025558 -0.00718402]]",[],0.0,0.0
1787561932.6566913,2.0351675330399663,1.4869361521598823,2.369959554460105,"[ 1.80596872e-05  5.37905013e-07  0.00000000e+00  0.00000000e+00
  0.00000000e+00 -2.04375023e-06  5.37905013e-07  1.33860779e-05
  0.00000000e+00  0.00000000e+00  0.00000000e+00 -7.20733902e-07
  0.00000000e+00  0.00000000e+00  0.00000000e+00  0.00000000e+00
  0.00000000e+00  0.00000000e+00  0.00000000e+00  0.00000000e+00
  0.00000000e+00  0.00000000e+00  0.00000000e+00  0.00000000e+00
  0.00000000e+00  0.00000000e+00  0.00000000e+00  0.00000000e+00
  0.00000000e+00  0.00000000e+00 -2.04375023e-06 -7.20733902e-07
  0.00000000e+00  0.00000000e+00  0.00000000e+00  5.08190967e-06]","[[-0.00031529  0.01589683]
 [-0.00025558 -0.00718402]]",[],0.0,0.0
1787561932.7073035,2.0351675330399663,1.4869361521598823,2.369959554460105,"[ 1.80596872e-05  5.37905013e-07  0.00000000e+00  0.00000000e+00
  0.00000000e+00 -2.04375023e-06  5.37905013e-07  1.33860779e-05
  0.00000000e+00  0.00000000e+00  0.00000000e+00 -7.20733902e-07
  0.00000000e+00  0.00000000e+00  0.00000000e+00  0.00000000e+00
  0.00000000e+00  0.00000000e+00  0.00000000e+00  0.00000000e+00
  0.00000000e+00  0.00000000e+00  0.00000000e+00  0.00000000e+00
  0.00000000e+00  0.00000000e+00  0.00000000e+00  0.00000000e+00
  0.00000000e+00  0.00000000e+00 -2.04375023e-06 -7.20733902e-07
  0.00000000e+00  0.00000000e+00  0.00000000e+00  5.08190967e-06]","[[-0.00031529  0.01589683]
 [-0.00025558 -0.00718402]]",[],0.0,0.0
1787561932.7548988,2.0351675330399663,1.4869361521598823,2.369959554460105,"[ 1.80596872e-05  5.37905013e-07  0.00000000e+00  0.00000000e+00
  0.00000000e+00 -2.04375023e-06  5.37905013e-07  1.33860779e-05
  0.00000000e+00  0.00000000e+00  0.00000000e+00 -7.20733902e-07
  0.00000000e+00  0.00000000e+00  0.00000000e+00  0.00000000e+00
  0.00000000e+00  0.00000000e+00  0.00000000e+00  0.00000000e+00
  0.00000000e+00  0.00000000e+00  0.00000000e+00  0.00000000e+00
  0.00000000e+00  0.00000000e+00  0.00000000e+00  0.00000000e+00
  0.00000000e+00  0.00000000e+00 -2.04375023e-06 -7.20733902e-07
  0.00000000e+00  0.00000000e+00  0.00000000e+00  5.08190967e-06]","[[-0.00031529  0.01589683]
 [-0.00025558 -0.00718402]]",[],0.0,0.0
1787561932.8051095,2.0351675330399663,1.4869361521598823,2.369959554460105,"[ 1.80596872e-05  5.37905013e-07  0.00000000e+00  0.00000000e+00
  0.00000000e+00 -2.04375023e-06  5.37905013e-07  1.33860779e-05
  0.00000000e+00  0.00000000e+00  0.00000000e+00 -7.20733902e-07
  0.00000000e+00  0.00000000e+00  0.00000000e+00  0.00000000e+00
  0.00000000e+00  0.00000000e+00  0.00000000e+00  0.00000000e+00
  0.00000000e+00  0.00000000e+00  0.00000000e+00  0.00000000e+00
  0.00000000e+00  0.00000000e+00  0.00000000e+00  0.00000000e+00
  0.00000000e+00  0.00000000e+00 -2.04375023e-06 -7.20733902e-07
  0.00000000e+00  0.00000000e+00  0.00000000e+00  5.08190967e-06]","[[-0.00031529  0.01589683]
 [-0.00025558 -0.00718402]]",[],0.0,0.0
1787561932.8545208,2.0351675330399663,1.4869361521598823,2.369959554460105,"[ 1.80596872e-05  5.37905013e-07  0.00000000e+00  0.00000000e+00
  0.00000000e+00 -2.04375023e-06  5.37905013e-07  1.33860779e-05
  0.00000000e+00  0.00000000e+00  0.00000000e+00 -7.20733902e-07
  0.00000000e+00  0.00000000e+00  0.00000000e+00  0.00000000e+00
  0.00000000e+00  0.00000000e+00  0.00000000e+00  0.00000000e+00
  0.00000000e+00  0.00000000e+00  0.00000000e+00  0.00000000e+00
  0.00000000e+00  0.00000000e+00  0.00000000e+00  0.00000000e+00
  0.00000000e+00  0.00000000e+00 -2.04375023e-06 -7.20733902e-07
  0.00000000e+00  0.00000000e+00  0.00000000e+00  5.08190967e-06]","[[-0.00031529  0.01589683]
 [-0.00025558 -0.00718402]]",[],0.0,0.0
1787561932.9047382,2.0351675330399663,1.4869361521598823,2.369959554460105,"[ 1.80596872e-05  5.37905013e-07  0.00000000e+00  0.00000000e+00
  0.00000000e+00 -2.04375023e-06  5.37905013e-07  1.33860779e-05
  0.00000000e+00  0.00000000e+00  0.00000000e+00 -7.20733902e-07
  0.00000000e+00  0.00000000e+00  0.00000000e+00  0.00000000e+00
  0.00000000e+00  0.00000000e+00  0.00000000e+00  0.00000000e+00
  0.00000000e+00  0.00000000e+00  0.00000000e+00  0.00000000e+00
  0.00000000e+00  0.00000000e+00  0.00000000e+00  0.00000000e+00
  0.00000000e+00  0.00000000e+00 -2.04375023e-06 -7.20733902e-07
  0.00000000e+00  0.00000000e+00  0.00000000e+00  5.08190967e-06]","[[-0.00031529  0.01589683]
 [-0.00025558 -0.00718402]]",[],0.0,0.0
1787561932.9569168,2.0351675330399663,1.4869361521598823,2.369959554460105,"[ 1.80596872e-05  5.37905013e-07  0.00000000e+00  0.00000000e+00
  0.00000000e+00 -2.04375023e-06  5.37905013e-07  1.33860779e-05
  0.00000000e+00  0.00000000e+00  0.00000000e+00 -7.20733902e-07
  0.00000000e+00  0.00000000e+00  0.00000000e+00  0.00000000e+00
  0.00000000e+00  0.00000000e+00  0.00000000e+00  0.00000000e+00
  0.00000000e+00  0.00000000e+00  0.00000000e+00  0.00000000e+00
  0.00000000e+00  0.00000000e+00  0.00000000e+00  0.00000000e+00
  0.00000000e+00  0.00000000e+00 -2.04375023e-06 -7.20733902e-07
  0.00000000e+00  0.00000000e+00  0.00000000e+00  5.08190967e-06]","[[-0.00031529  0.01589683]
 [-0.00025558 -0.00718402]]",[],0.0,0.0
1787561933.0048358,2.0351675330399663,1.4869361521598823,2.369959554460105,"[ 1.80596872e-05  5.37905013e-07  0.00000000e+00  0.00000000e+00
  0.00000000e+00 -2.04375023e-06  5.37905013e-07  1.33860779e-05
  0.00000000e+00  0.00000000e+00  0.00000000e+00 -7.20733902e-07
  0.00000000e+00  0.00000000e+00  0.00000000e+00  0.00000000e+00
  0.00000000e+00  0.00000000e+00  0.00000000e+00  0.00000000e+00
  0.00000000e+00  0.00000000e+00  0.00000000e+00  0.00000000e+00
  0.00000000e+00  0.00000000e+00  0.00000000e+00  0.00000000e+00
  0.00000000e+00  0.00000000e+00 -2.04375023e-06 -7.20733902e-07
  0.00000000e+00  0.00000000e+00  0.00000000e+00  5.08190967e-06]","[[-0.00031529  0.01589683]
 [-0.00025558 -0.00718402]]",[],0.0,0.0
1787561933.0587006,2.0351675330399663,1.4869361521598823,2.369959554460105,"[ 1.80596872e-05  5.37905013e-07  0.00000000e+00  0.00000000e+00
  0.00000000e+00 -2.04375023e-06  5.37905013e-07  1.33860779e-05
  0.00000000e+00  0.00000000e+00  0.00000000e+00 -7.20733902e-07
  0.00000000e+00  0.00000000e+00  0.00000000e+00  0.00000000e+00
  0.00000000e+00  0.00000000e+00  0.00000000e+00  0.00000000e+00
  0.00000000e+00  0.00000000e+00  0.00000000e+00  0.00000000e+00
  0.00000000e+00  0.00000000e+00  0.00000000e+00  0.00000000e+00
  0.00000000e+00  0.00000000e+00 -2.04375023e-06 -7.20733902e-07
  0.00000000e+00  0.00000000e+00  0.00000000e+00  5.08190967e-06]","[[-0.00031529  0.01589683]
 [-0.00025558 -0.00718402]]",[],0.0,0.0
1787561933.104222,2.0351675330399663,1.4869361521598823,2.369959554460105,"[ 1.80596872e-05  5.37905013e-07  0.00000000e+00  0.00000000e+00
  0.00000000e+00 -2.04375023e-06  5.37905013e-07  1.33860779e-05
  0.00000000e+00  0.00000000e+00  0.00000000e+00 -7.20733902e-07
  0.00000000e+00  0.00000000e+00  0.00000000e+00  0.00000000e+00
  0.00000000e+00  0.00000000e+00  0.00000000e+00  0.00000000e+00
  0.00000000e+00  0.00000000e+00  0.00000000e+00  0.00000000e+00
  0.00000000e+00  0.00000000e+00  0.00000000e+00  0.00000000e+00
  0.00000000e+00  0.00000000e+00 -2.04375023e-06 -7.20733902e-07
  0.00000000e+00  0.00000000e+00  0.00000000e+00  5.08190967e-06]","[[-0.00031529  0.01589683]
 [-0.00025558 -0.00718402]]",[],0.0,0.0
1787561933.158744,2.0351675330399663,1.4869361521598823,2.369959554460105,"[ 1.80596872e-05  5.37905013e-07  0.00000000e+00  0.00000000e+00
  0.00000000e+00 -2.04375023e-06  5.37905013e-07  1.33860779e-05
  0.00000000e+00  0.00000000e+00  0.00000000e+00 -7.20733902e-07
  0.00000000e+00  0.00000000e+00  0.00000000e+00  0.00000000e+00
  0.00000000e+00  0.00000000e+00  0.00000000e+00  0.00000000e+00
  0.00000000e+00  0.00000000e+00  0.00000000e+00  0.00000000e+00
  0.00000000e+00  0.00000000e+00  0.00000000e+00  0.00000000e+00
  0.00000000e+00  0.00000000e+00 -2.04375023e-06 -7.20733902e-07
  0.00000000e+00  0.00000000e+00  0.00000000e+00  5.08190967e-06]","[[-0.00031529  0.01589683]
 [-0.00025558 -0.00718402]]",[],0.0,0.0
1787561933.2055721,2.0351675330399663,1.4869361521598823,2.369959554460105,"[ 1.80596872e-05  5.37905013e-07  0.00000000e+00  0.00000000e+00
  0.00000000e+00 -2.04375023e-06  5.37905013e-07  1.33860779e-05
  0.00000000e+00  0.00000000e+00  0.00000000e+00 -7.20733902e-07
  0.00000000e+00  0.00000000e+00  0.00000000e+00  0.00000000e+00
  0.00000000e+00  0.00000000e+00  0.00000000e+00  0.00000000e+00
  0.00000000e+00  0.00000000e+00  0.00000000e+00  0.00000000e+00
  0.00000000e+00  0.00000000e+00  0.00000000e+00  0.00000000e+00
  0.00000000e+00  0.00000000e+00 -2.04375023e-06 -7.20733902e-07
  0.00000000e+00  0.00000000e+00  0.00000000e+00  5.08190967e-06]","[[-0.00031529  0.01589683]
 [-0.00025558 -0.00718402]]",[],0.0,0.0
1787561933.2576184,2.0351675330399663,1.4869361521598823,2.369959554460105,"[ 1.80596872e-05  5.37905013e-07  0.00000000e+00  0.00000000e+00
  0.00000000e+00 -2.04375023e-06  5.37905013e-07  1.33860779e-05
  0.00000000e+00  0.00000000e+00  0.00000000e+00 -7.20733902e-07
  0.00000000e+00  0.00000000e+00  0.00000000e+00  0.00000000e+00
  0.00000000e+00  0.00000000e+00  0.00000000e+00  0.00000000e+00
  0.00000000e+00  0.00000000e+00  0.00000000e+00  0.00000000e+00
  0.00000000e+00  0.00000000e+00  0.00000000e+00  0.00000000e+00
  0.00000000e+00  0.00000000e+00 -2.04375023e-06 -7.20733902e-07
  0.00000000e+00  0.00000000e+00  0.00000000e+00  5.08190967e-06]","[[-0.00031529  0.01589683]
 [-0.00025558 -0.00718402]]",[],0.0,0.0
1787561933.3120027,2.0351675330399663,1.4869361521598823,2.369959554460105,"[ 1.80596872e-05  5.37905013e-07  0.00000000e+00  0.00000000e+00
  0.00000000e+00 -2.04375023e-06  5.37905013e-07  1.33860779e-05
  0.00000000e+00  0.00000000e+00  0.00000000e+00 -7.20733902e-07
  0.00000000e+00  0.00000000e+00  0.00000000e+00  0.00000000e+00
  0.00000000e+00  0.00000000e+00  0.00000000e+00  0.00000000e+00
  0.00000000e+00  0.00000000e+00  0.00000000e+00  0.00000000e+00
  0.00000000e+00  0.00000000e+00  0.00000000e+00  0.00000000e+00
  0.00000000e+00  0.00000000e+00 -2.04375023e-06 -7.20733902e-07
  0.00000000e+00  0.00000000e+00  0.00000000e+00  5.08190967e-06]","[[-0.00031529  0.01589683]
 [-0.00025558 -0.00718402]]",[],0.0,0.0
1787561933.3551114,2.0468846611572347,1.472143906866547,2.40144694826773,"[ 1.55359089e-05  1.12454537e-07  0.00000000e+00  0.00000000e+00
  0.00000000e+00 -2.03078591e-06  1.12454537e-07  1.13730328e-05
  0.00000000e+00  0.00000000e+00  0.00000000e+00 -2.39134190e-08
  0.00000000e+00  0.00000000e+00  0.00000000e+00  0.00000000e+00
  0.00000000e+00  0.00000000e+00  0.00000000e+00  0.00000000e+00
  0.00000000e+00  0.00000000e+00  0.00000000e+00  0.00000000e+00
  0.00000000e+00  0.00000000e+00  0.00000000e+00  0.00000000e+00
  0.00000000e+00  0.00000000e+00 -2.03078591e-06 -2.39134190e-08
  0.00000000e+00  0.00000000e+00  0.00000000e+00  4.65725900e-06]","[[-0.00025038  0.00954543]
 [-0.00022048 -0.00370133]]",[],0.0,0.0
1787561933.4056776,2.0468846611572347,1.472143906866547,2.40144694826773,"[ 1.55359089e-05  1.12454537e-07  0.00000000e+00  0.00000000e+00
  0.00000000e+00 -2.03078591e-06  1.12454537e-07  1.13730328e-05
  0.00000000e+00  0.00000000e+00  0.00000000e+00 -2.39134190e-08
  0.00000000e+00  0.00000000e+00  0.00000000e+00  0.00000000e+00
  0.00000000e+00  0.00000000e+00  0.00000000e+00  0.00000000e+00
  0.00000000e+00  0.00000000e+00  0.00000000e+00  0.00000000e+00
  0.00000000e+00  0.00000000e+00  0.00000000e+00  0.00000000e+00
  0.00000000e+00  0.00000000e+00 -2.03078591e-06 -2.39134190e-08
  0.00000000e+00  0.00000000e+00  0.00000000e+00  4.65725900e-06]","[[-0.00025038  0.00954543]
 [-0.00022048 -0.00370133]]",[],0.0,0.0
1787561933.454437,2.0468846611572347,1.472143906866547,2.40144694826773,"[ 1.55359089e-05  1.12454537e-07  0.00000000e+00  0.00000000e+00
  0.00000000e+00 -2.03078591e-06  1.12454537e-07  1.13730328e-05
  0.00000000e+00  0.00000000e+00  0.00000000e+00 -2.39134190e-08
  0.00000000e+00  0.00000000e+00  0.00000000e+00  0.00000000e+00
  0.00000000e+00  0.00000000e+00  0.00000000e+00  0.00000000e+00
  0.00000000e+00  0.00000000e+00  0.00000000e+00  0.00000000e+00
  0.00000000e+00  0.00000000e+00  0.00000000e+00  0.00000000e+00
  0.00000000e+00  0.00000000e+00 -2.03078591e-06 -2.39134190e-08
  0.00000000e+00  0.00000000e+00  0.00000000e+00  4.65725900e-06]","[[-0.00025038  0.00954543]
 [-0.00022048 -0.00370133]]",[],0.0,0.0
1787561933.5064795,2.0468846611572347,1.472143906866547,2.40144694826773,"[ 1.55359089e-05  1.12454537e-07  0.00000000e+00  0.00000000e+00
  0.00000000e+00 -2.03078591e-06  1.12454537e-07  1.13730328e-05
  0.00000000e+00  0.00000000e+00  0.00000000e+00 -2.39134190e-08
  0.00000000e+00  0.00000000e+00  0.00000000e+00  0.00000000e+00
  0.00000000e+00  0.00000000e+00  0.00000000e+00  0.00000000e+00
  0.00000000e+00  0.00000000e+00  0.00000000e+00  0.00000000e+00
  0.00000000e+00  0.00000000e+00  0.00000000e+00  0.00000000e+00
  0.00000000e+00  0.00000000e+00 -2.03078591e-06 -2.39134190e-08
  0.00000000e+00  0.00000000e+00  0.00000000e+00  4.65725900e-06]","[[-0.00025038  0.00954543]
 [-0.00022048 -0.00370133]]",[],0.0,0.0
1787561933.5544546,2.0468846611572347,1.472143906866547,2.40144694826773,"[ 1.55359089e-05  1.12454537e-07  0.00000000e+00  0.00000000e+00
  0.00000000e+00 -2.03078591e-06  1.12454537e-07  1.13730328e-05
  0.00000000e+00  0.00000000e+00  0.00000000e+00 -2.39134190e-08
  0.00000000e+00  0.00000000e+00  0.00000000e+00  0.00000000e+00
  0.00000000e+00  0.00000000e+00  0.00000000e+00  0.00000000e+00
  0.00000000e+00  0.00000000e+00  0.00000000e+00  0.00000000e+00
  0.00000000e+00  0.00000000e+00  0.00000000e+00  0.00000000e+00
  0.00000000e+00  0.00000000e+00 -2.03078591e-06 -2.39134190e-08
  0.00000000e+00  0.00000000e+00  0.00000000e+00  4.65725900e-06]","[[-0.00025038  0.00954543]
 [-0.00022048 -0.00370133]]",[],0.0,0.0
1787561933.6045704,2.0468846611572347,1.472143906866547,2.40144694826773,"[ 1.55359089e-05  1.12454537e-07  0.00000000e+00  0.00000000e+00
  0.00000000e+00 -2.03078591e-06  1.12454537e-07  1.13730328e-05
  0.00000000e+00  0.00000000e+00  0.00000000e+00 -2.39134190e-08
  0.00000000e+00  0.00000000e+00  0.00000000e+00  0.00000000e+00
  0.00000000e+00  0.00000000e+00  0.00000000e+00  0.00000000e+00
  0.00000000e+00  0.00000000e+00  0.00000000e+00  0.00000000e+00
  0.00000000e+00  0.00000000e+00  0.00000000e+00  0.00000000e+00
  0.00000000e+00  0.00000000e+00 -2.03078591e-06 -2.39134190e-08
  0.00000000e+00  0.00000000e+00  0.00000000e+00  4.65725900e-06]","[[-0.00025038  0.00954543]
 [-0.00022048 -0.00370133]]",[],0.0,0.0
1787561933.6551442,2.0468846611572347,1.472143906866547,2.40144694826773,"[ 1.55359089e-05  1.12454537e-07  0.00000000e+00  0.00000000e+00
  0.00000000e+00 -2.03078591e-06  1.12454537e-07  1.13730328e-05
  0.00000000e+00  0.00000000e+00  0.00000000e+00 -2.39134190e-08
  0.00000000e+00  0.00000000e+00  0.00000000e+00  0.00000000e+00
  0.00000000e+00  0.00000000e+00  0.00000000e+00  0.00000000e+00
  0.00000000e+00  0.00000000e+00  0.00000000e+00  0.00000000e+00
  0.00000000e+00  0.00000000e+00  0.00000000e+00  0.00000000e+00
  0.00000000e+00  0.00000000e+00 -2.03078591e-06 -2.39134190e-08
  0.00000000e+00  0.00000000e+00  0.00000000e+00  4.65725900e-06]","[[-0.00025038  0.00954543]
 [-0.00022048 -0.00370133]]",[],0.0,0.0
1787561933.7207997,2.0468846611572347,1.472143906866547,2.40144694826773,"[ 1.55359089e-05  1.12454537e-07  0.00000000e+00  0.00000000e+00
  0.00000000e+00 -2.03078591e-06  1.12454537e-07  1.13730328e-05
  0.00000000e+00  0.00000000e+00  0.00000000e+00 -2.39134190e-08
  0.00000000e+00  0.00000000e+00  0.00000000e+00  0.00000000e+00
  0.00000000e+00  0.00000000e+00  0.00000000e+00  0.00000000e+00
  0.00000000e+00  0.00000000e+00  0.00000000e+00  0.00000000e+00
  0.00000000e+00  0.00000000e+00  0.00000000e+00  0.00000000e+00
  0.00000000e+00  0.00000000e+00 -2.03078591e-06 -2.39134190e-08
  0.00000000e+00  0.00000000e+00  0.00000000e+00  4.65725900e-06]","[[-0.00025038  0.00954543]
 [-0.00022048 -0.00370133]]",[],0.0,0.0
1787561933.755559,2.0436401810754097,1.462109565166481,2.4113612479505324,"[ 1.45586108e-05  3.08003935e-07  0.00000000e+00  0.00000000e+00
  0.00000000e+00 -7.80312644e-07  3.08003935e-07  1.06731548e-05
  0.00000000e+00  0.00000000e+00  0.00000000e+00  3.78491780e-07
  0.00000000e+00  0.00000000e+00  0.00000000e+00  0.00000000e+00
  0.00000000e+00  0.00000000e+00  0.00000000e+00  0.00000000e+00
  0.00000000e+00  0.00000000e+00  0.00000000e+00  0.00000000e+00
  0.00000000e+00  0.00000000e+00  0.00000000e+00  0.00000000e+00
  0.00000000e+00  0.00000000e+00 -7.80312644e-07  3.78491780e-07
  0.00000000e+00  0.00000000e+00  0.00000000e+00  5.63504547e-06]","[[-0.00026805  0.0090425 ]
 [-0.00019022 -0.00651967]]",[],0.0,0.0
1787561933.807747,2.0436401810754097,1.462109565166481,2.4113612479505324,"[ 1.45586108e-05  3.08003935e-07  0.00000000e+00  0.00000000e+00
  0.00000000e+00 -7.80312644e-07  3.08003935e-07  1.06731548e-05
  0.00000000e+00  0.00000000e+00  0.00000000e+00  3.78491780e-07
  0.00000000e+00  0.00000000e+00  0.00000000e+00  0.00000000e+00
  0.00000000e+00  0.00000000e+00  0.00000000e+00  0.00000000e+00
  0.00000000e+00  0.00000000e+00  0.00000000e+00  0.00000000e+00
  0.00000000e+00  0.00000000e+00  0.00000000e+00  0.00000000e+00
  0.00000000e+00  0.00000000e+00 -7.80312644e-07  3.78491780e-07
  0.00000000e+00  0.00000000e+00  0.00000000e+00  5.63504547e-06]","[[-0.00026805  0.0090425 ]
 [-0.00019022 -0.00651967]]",[],0.0,0.0
1787561933.8558824,2.0436401810754097,1.462109565166481,2.4113612479505324,"[ 1.45586108e-05  3.08003935e-07  0.00000000e+00  0.00000000e+00
  0.00000000e+00 -7.80312644e-07  3.08003935e-07  1.06731548e-05
  0.00000000e+00  0.00000000e+00  0.00000000e+00  3.78491780e-07
  0.00000000e+00  0.00000000e+00  0.00000000e+00  0.00000000e+00
  0.00000000e+00  0.00000000e+00  0.00000000e+00  0.00000000e+00
  0.00000000e+00  0.00000000e+00  0.00000000e+00  0.00000000e+00
  0.00000000e+00  0.00000000e+00  0.00000000e+00  0.00000000e+00
  0.00000000e+00  0.00000000e+00 -7.80312644e-07  3.78491780e-07
  0.00000000e+00  0.00000000e+00  0.00000000e+00  5.63504547e-06]","[[-0.00026805  0.0090425 ]
 [-0.00019022 -0.00651967]]",[],0.0,0.0
1787561933.9061508,2.0436401810754097,1.462109565166481,2.4113612479505324,"[ 1.45586108e-05  3.08003935e-07  0.00000000e+00  0.00000000e+00
  0.00000000e+00 -7.80312644e-07  3.08003935e-07  1.06731548e-05
  0.00000000e+00  0.00000000e+00  0.00000000e+00  3.78491780e-07
  0.00000000e+00  0.00000000e+00  0.00000000e+00  0.00000000e+00
  0.00000000e+00  0.00000000e+00  0.00000000e+00  0.00000000e+00
  0.00000000e+00  0.00000000e+00  0.00000000e+00  0.00000000e+00
  0.00000000e+00  0.00000000e+00  0.00000000e+00  0.00000000e+00
  0.00000000e+00  0.00000000e+00 -7.80312644e-07  3.78491780e-07
  0.00000000e+00  0.00000000e+00  0.00000000e+00  5.63504547e-06]","[[-0.00026805  0.0090425 ]
 [-0.00019022 -0.00651967]]",[],0.0,0.0
1787561933.9545875,2.0436401810754097,1.462109565166481,2.4113612479505324,"[ 1.45586108e-05  3.08003935e-07  0.00000000e+00  0.00000000e+00
  0.00000000e+00 -7.80312644e-07  3.08003935e-07  1.06731548e-05
  0.00000000e+00  0.00000000e+00  0.00000000e+00  3.78491780e-07
  0.00000000e+00  0.00000000e+00  0.00000000e+00  0.00000000e+00
  0.00000000e+00  0.00000000e+00  0.00000000e+00  0.00000000e+00
  0.00000000e+00  0.00000000e+00  0.00000000e+00  0.00000000e+00
  0.00000000e+00  0.00000000e+00  0.00000000e+00  0.00000000e+00
  0.00000000e+00  0.00000000e+00 -7.80312644e-07  3.78491780e-07
  0.00000000e+00  0.00000000e+00  0.00000000e+00  5.63504547e-06]","[[-0.00026805  0.0090425 ]
 [-0.00019022 -0.00651967]]",[],0.0,0.0
1787561934.0098083,2.0436401810754097,1.462109565166481,2.4113612479505324,"[ 1.45586108e-05  3.08003935e-07  0.00000000e+00  0.00000000e+00
  0.00000000e+00 -7.80312644e-07  3.08003935e-07  1.06731548e-05
  0.00000000e+00  0.00000000e+00  0.00000000e+00  3.78491780e-07
  0.00000000e+00  0.00000000e+00  0.00000000e+00  0.00000000e+00
  0.00000000e+00  0.00000000e+00  0.00000000e+00  0.00000000e+00
  0.00000000e+00  0.00000000e+00  0.00000000e+00  0.00000000e+00
  0.00000000e+00  0.00000000e+00  0.00000000e+00  0.00000000e+00
  0.00000000e+00  0.00000000e+00 -7.80312644e-07  3.78491780e-07
  0.00000000e+00  0.00000000e+00  0.00000000e+00  5.63504547e-06]","[[-0.00026805  0.0090425 ]
 [-0.00019022 -0.00651967]]",[],0.0,0.0
1787561934.0563543,2.0436401810754097,1.462109565166481,2.4113612479505324,"[ 1.45586108e-05  3.08003935e-07  0.00000000e+00  0.00000000e+00
  0.00000000e+00 -7.80312644e-07  3.08003935e-07  1.06731548e-05
  0.00000000e+00  0.00000000e+00  0.00000000e+00  3.78491780e-07
  0.00000000e+00  0.00000000e+00  0.00000000e+00  0.00000000e+00
  0.00000000e+00  0.00000000e+00  0.00000000e+00  0.00000000e+00
  0.00000000e+00  0.00000000e+00  0.00000000e+00  0.00000000e+00
  0.00000000e+00  0.00000000e+00  0.00000000e+00  0.00000000e+00
  0.00000000e+00  0.00000000e+00 -7.80312644e-07  3.78491780e-07
  0.00000000e+00  0.00000000e+00  0.00000000e+00  5.63504547e-06]","[[-0.00026805  0.0090425 ]
 [-0.00019022 -0.00651967]]",[],0.0,0.0
1787561934.1050725,2.0436401810754097,1.462109565166481,2.4113612479505324,"[ 1.45586108e-05  3.08003935e-07  0.00000000e+00  0.00000000e+00
  0.00000000e+00 -7.80312644e-07  3.08003935e-07  1.06731548e-05
  0.00000000e+00  0.00000000e+00  0.00000000e+00  3.78491780e-07
  0.00000000e+00  0.00000000e+00  0.00000000e+00  0.00000000e+00
  0.00000000e+00  0.00000000e+00  0.00000000e+00  0.00000000e+00
  0.00000000e+00  0.00000000e+00  0.00000000e+00  0.00000000e+00
  0.00000000e+00  0.00000000e+00  0.00000000e+00  0.00000000e+00
  0.00000000e+00  0.00000000e+00 -7.80312644e-07  3.78491780e-07
  0.00000000e+00  0.00000000e+00  0.00000000e+00  5.63504547e-06]","[[-0.00026805  0.0090425 ]
 [-0.00019022 -0.00651967]]",[],0.0,0.0
1787561934.1564114,2.0436401810754097,1.462109565166481,2.4113612479505324,"[ 1.45586108e-05  3.08003935e-07  0.00000000e+00  0.00000000e+00
  0.00000000e+00 -7.80312644e-07  3.08003935e-07  1.06731548e-05
  0.00000000e+00  0.00000000e+00  0.00000000e+00  3.78491780e-07
  0.00000000e+00  0.00000000e+00  0.00000000e+00  0.00000000e+00
  0.00000000e+00  0.00000000e+00  0.00000000e+00  0.00000000e+00
  0.00000000e+00  0.00000000e+00  0.00000000e+00  0.00000000e+00
  0.00000000e+00  0.00000000e+00  0.00000000e+00  0.00000000e+00
  0.00000000e+00  0.00000000e+00 -7.80312644e-07  3.78491780e-07
  0.00000000e+00  0.00000000e+00  0.00000000e+00  5.63504547e-06]","[[-0.00026805  0.0090425 ]
 [-0.00019022 -0.00651967]]",[],0.0,0.0
1787561934.2054172,2.0436401810754097,1.462109565166481,2.4113612479505324,"[ 1.45586108e-05  3.08003935e-07  0.00000000e+00  0.00000000e+00
  0.00000000e+00 -7.80312644e-07  3.08003935e-07  1.06731548e-05
  0.00000000e+00  0.00000000e+00  0.00000000e+00  3.78491780e-07
  0.00000000e+00  0.00000000e+00  0.00000000e+00  0.00000000e+00
  0.00000000e+00  0.00000000e+00  0.00000000e+00  0.00000000e+00
  0.00000000e+00  0.00000000e+00  0.00000000e+00  0.00000000e+00
  0.00000000e+00  0.00000000e+00  0.00000000e+00  0.00000000e+00
  0.00000000e+00  0.00000000e+00 -7.80312644e-07  3.78491780e-07
  0.00000000e+00  0.00000000e+00  0.00000000e+00  5.63504547e-06]","[[-0.00026805  0.0090425 ]
 [-0.00019022 -0.00651967]]",[],0.0,0.0
1787561934.2556,2.0436401810754097,1.462109565166481,2.4113612479505324,"[ 1.45586108e-05  3.08003935e-07  0.00000000e+00  0.00000000e+00
  0.00000000e+00 -7.80312644e-07  3.08003935e-07  1.06731548e-05
  0.00000000e+00  0.00000000e+00  0.00000000e+00  3.78491780e-07
  0.00000000e+00  0.00000000e+00  0.00000000e+00  0.00000000e+00
  0.00000000e+00  0.00000000e+00  0.00000000e+00  0.00000000e+00
  0.00000000e+00  0.00000000e+00  0.00000000e+00  0.00000000e+00
  0.00000000e+00  0.00000000e+00  0.00000000e+00  0.00000000e+00
  0.00000000e+00  0.00000000e+00 -7.80312644e-07  3.78491780e-07
  0.00000000e+00  0.00000000e+00  0.00000000e+00  5.63504547e-06]","[[-0.00026805  0.0090425 ]
 [-0.00019022 -0.00651967]]",[],0.0,0.0
1787561934.3043742,2.0436401810754097,1.462109565166481,2.4113612479505324,"[ 1.45586108e-05  3.08003935e-07  0.00000000e+00  0.00000000e+00
  0.00000000e+00 -7.80312644e-07  3.08003935e-07  1.06731548e-05
  0.00000000e+00  0.00000000e+00  0.00000000e+00  3.78491780e-07
  0.00000000e+00  0.00000000e+00  0.00000000e+00  0.00000000e+00
  0.00000000e+00  0.00000000e+00  0.00000000e+00  0.00000000e+00
  0.00000000e+00  0.00000000e+00  0.00000000e+00  0.00000000e+00
  0.00000000e+00  0.00000000e+00  0.00000000e+00  0.00000000e+00
  0.00000000e+00  0.00000000e+00 -7.80312644e-07  3.78491780e-07
  0.00000000e+00  0.00000000e+00  0.00000000e+00  5.63504547e-06]","[[-0.00026805  0.0090425 ]
 [-0.00019022 -0.00651967]]",[],0.0,0.0
1787561934.356364,2.0436401810754097,1.462109565166481,2.4113612479505324,"[ 1.45586108e-05  3.08003935e-07  0.00000000e+00  0.00000000e+00
  0.00000000e+00 -7.80312644e-07  3.08003935e-07  1.06731548e-05
  0.00000000e+00  0.00000000e+00  0.00000000e+00  3.78491780e-07
  0.00000000e+00  0.00000000e+00  0.00000000e+00  0.00000000e+00
  0.00000000e+00  0.00000000e+00  0.00000000e+00  0.00000000e+00
  0.00000000e+00  0.00000000e+00  0.00000000e+00  0.00000000e+00
  0.00000000e+00  0.00000000e+00  0.00000000e+00  0.00000000e+00
  0.00000000e+00  0.00000000e+00 -7.80312644e-07  3.78491780e-07
  0.00000000e+00  0.00000000e+00  0.00000000e+00  5.63504547e-06]","[[-0.00026805  0.0090425 ]
 [-0.00019022 -0.00651967]]",[],0.0,0.0
1787561934.4053035,2.0436401810754097,1.462109565166481,2.4113612479505324,"[ 1.45586108e-05  3.08003935e-07  0.00000000e+00  0.00000000e+00
  0.00000000e+00 -7.80312644e-07  3.08003935e-07  1.06731548e-05
  0.00000000e+00  0.00000000e+00  0.00000000e+00  3.78491780e-07
  0.00000000e+00  0.00000000e+00  0.00000000e+00  0.00000000e+00
  0.00000000e+00  0.00000000e+00  0.00000000e+00  0.00000000e+00
  0.00000000e+00  0.00000000e+00  0.00000000e+00  0.00000000e+00
  0.00000000e+00  0.00000000e+00  0.00000000e+00  0.00000000e+00
  0.00000000e+00  0.00000000e+00 -7.80312644e-07  3.78491780e-07
  0.00000000e+00  0.00000000e+00  0.00000000e+00  5.63504547e-06]","[[-0.00026805  0.0090425 ]
 [-0.00019022 -0.00651967]]",[],0.0,0.0
1787561934.4551592,2.0436401810754097,1.462109565166481,2.4113612479505324,"[ 1.45586108e-05  3.08003935e-07  0.00000000e+00  0.00000000e+00
  0.00000000e+00 -7.80312644e-07  3.08003935e-07  1.06731548e-05
  0.00000000e+00  0.00000000e+00  0.00000000e+00  3.78491780e-07
  0.00000000e+00  0.00000000e+00  0.00000000e+00  0.00000000e+00
  0.00000000e+00  0.00000000e+00  0.00000000e+00  0.00000000e+00
  0.00000000e+00  0.00000000e+00  0.00000000e+00  0.00000000e+00
  0.00000000e+00  0.00000000e+00  0.00000000e+00  0.00000000e+00
  0.00000000e+00  0.00000000e+00 -7.80312644e-07  3.78491780e-07
  0.00000000e+00  0.00000000e+00  0.00000000e+00  5.63504547e-06]","[[-0.00026805  0.0090425 ]
 [-0.00019022 -0.00651967]]",[],0.0,0.0
1787561934.504704,2.0436401810754097,1.462109565166481,2.4113612479505324,"[ 1.45586108e-05  3.08003935e-07  0.00000000e+00  0.00000000e+00
  0.00000000e+00 -7.80312644e-07  3.08003935e-07  1.06731548e-05
  0.00000000e+00  0.00000000e+00  0.00000000e+00  3.78491780e-07
  0.00000000e+00  0.00000000e+00  0.00000000e+00  0.00000000e+00
  0.00000000e+00  0.00000000e+00  0.00000000e+00  0.00000000e+00
  0.00000000e+00  0.00000000e+00  0.00000000e+00  0.00000000e+00
  0.00000000e+00  0.00000000e+00  0.00000000e+00  0.00000000e+00
  0.00000000e+00  0.00000000e+00 -7.80312644e-07  3.78491780e-07
  0.00000000e+00  0.00000000e+00  0.00000000e+00  5.63504547e-06]","[[-0.00026805  0.0090425 ]
 [-0.00019022 -0.00651967]]",[],0.0,0.0
1787561934.55477,2.0436401810754097,1.462109565166481,2.4113612479505324,"[ 1.45586108e-05  3.08003935e-07  0.00000000e+00  0.00000000e+00
  0.00000000e+00 -7.80312644e-07  3.08003935e-07  1.06731548e-05
  0.00000000e+00  0.00000000e+00  0.00000000e+00  3.78491780e-07
  0.00000000e+00  0.00000000e+00  0.00000000e+00  0.00000000e+00
  0.00000000e+00  0.00000000e+00  0.00000000e+00  0.00000000e+00
  0.00000000e+00  0.00000000e+00  0.00000000e+00  0.00000000e+00
  0.00000000e+00  0.00000000e+00  0.00000000e+00  0.00000000e+00
  0.00000000e+00  0.00000000e+00 -7.80312644e-07  3.78491780e-07
  0.00000000e+00  0.00000000e+00  0.00000000e+00  5.63504547e-06]","[[-0.00026805  0.0090425 ]
 [-0.00019022 -0.00651967]]",[],0.0,0.0
1787561934.6054907,2.0436401810754097,1.462109565166481,2.4113612479505324,"[ 1.45586108e-05  3.08003935e-07  0.00000000e+00  0.00000000e+00
  0.00000000e+00 -7.80312644e-07  3.08003935e-07  1.06731548e-05
  0.00000000e+00  0.00000000e+00  0.00000000e+00  3.78491780e-07
  0.00000000e+00  0.00000000e+00  0.00000000e+00  0.00000000e+00
  0.00000000e+00  0.00000000e+00  0.00000000e+00  0.00000000e+00
  0.00000000e+00  0.00000000e+00  0.00000000e+00  0.00000000e+00
  0.00000000e+00  0.00000000e+00  0.00000000e+00  0.00000000e+00
  0.00000000e+00  0.00000000e+00 -7.80312644e-07  3.78491780e-07
  0.00000000e+00  0.00000000e+00  0.00000000e+00  5.63504547e-06]","[[-0.00026805  0.0090425 ]
 [-0.00019022 -0.00651967]]",[],0.0,0.0
1787561934.6544073,2.0436401810754097,1.462109565166481,2.4113612479505324,"[ 1.45586108e-05  3.08003935e-07  0.00000000e+00  0.00000000e+00
  0.00000000e+00 -7.80312644e-07  3.08003935e-07  1.06731548e-05
  0.00000000e+00  0.00000000e+00  0.00000000e+00  3.78491780e-07
  0.00000000e+00  0.00000000e+00  0.00000000e+00  0.00000000e+00
  0.00000000e+00  0.00000000e+00  0.00000000e+00  0.00000000e+00
  0.00000000e+00  0.00000000e+00  0.00000000e+00  0.00000000e+00
  0.00000000e+00  0.00000000e+00  0.00000000e+00  0.00000000e+00
  0.00000000e+00  0.00000000e+00 -7.80312644e-07  3.78491780e-07
  0.00000000e+00  0.00000000e+00  0.00000000e+00  5.63504547e-06]","[[-0.00026805  0.0090425 ]
 [-0.00019022 -0.00651967]]",[],0.0,0.0
1787561934.7180364,2.0436401810754097,1.462109565166481,2.4113612479505324,"[ 1.45586108e-05  3.08003935e-07  0.00000000e+00  0.00000000e+00
  0.00000000e+00 -7.80312644e-07  3.08003935e-07  1.06731548e-05
  0.00000000e+00  0.00000000e+00  0.00000000e+00  3.78491780e-07
  0.00000000e+00  0.00000000e+00  0.00000000e+00  0.00000000e+00
  0.00000000e+00  0.00000000e+00  0.00000000e+00  0.00000000e+00
  0.00000000e+00  0.00000000e+00  0.00000000e+00  0.00000000e+00
  0.00000000e+00  0.00000000e+00  0.00000000e+00  0.00000000e+00
  0.00000000e+00  0.00000000e+00 -7.80312644e-07  3.78491780e-07
  0.00000000e+00  0.00000000e+00  0.00000000e+00  5.63504547e-06]","[[-0.00026805  0.0090425 ]
 [-0.00019022 -0.00651967]]",[],0.0,0.0
1787561934.7566197,2.0436401810754097,1.462109565166481,2.4113612479505324,"[ 1.45586108e-05  3.08003935e-07  0.00000000e+00  0.00000000e+00
  0.00000000e+00 -7.80312644e-07  3.08003935e-07  1.06731548e-05
  0.00000000e+00  0.00000000e+00  0.00000000e+00  3.78491780e-07
  0.00000000e+00  0.00000000e+00  0.00000000e+00  0.00000000e+00
  0.00000000e+00  0.00000000e+00  0.00000000e+00  0.00000000e+00
  0.00000000e+00  0.00000000e+00  0.00000000e+00  0.00000000e+00
  0.00000000e+00  0.00000000e+00  0.00000000e+00  0.00000000e+00
  0.00000000e+00  0.00000000e+00 -7.80312644e-07  3.78491780e-07
  0.00000000e+00  0.00000000e+00  0.00000000e+00  5.63504547e-06]","[[-0.00026805  0.0090425 ]
 [-0.00019022 -0.00651967]]",[],0.0,0.0
1787561934.8047588,2.0494500628486563,1.448979716907972,2.449602399990992,"[ 1.22010877e-05  1.04564913e-07  0.00000000e+00  0.00000000e+00
  0.00000000e+00 -1.18440817e-06  1.04564913e-07  8.87318689e-06
  0.00000000e+00  0.00000000e+00  0.00000000e+00 -4.13186566e-07
  0.00000000e+00  0.00000000e+00  0.00000000e+00  0.00000000e+00
  0.00000000e+00  0.00000000e+00  0.00000000e+00  0.00000000e+00
  0.00000000e+00  0.00000000e+00  0.00000000e+00  0.00000000e+00
  0.00000000e+00  0.00000000e+00  0.00000000e+00  0.00000000e+00
  0.00000000e+00  0.00000000e+00 -1.18440817e-06 -4.13186566e-07
  0.00000000e+00  0.00000000e+00  0.00000000e+00  3.87322159e-06]","[[ 2.83945447e-05  5.44132879e-03]
 [-2.20415820e-04  9.71675046e-04]]",[],0.0,0.0
1787561934.8575544,2.0494500628486563,1.448979716907972,2.449602399990992,"[ 1.22010877e-05  1.04564913e-07  0.00000000e+00  0.00000000e+00
  0.00000000e+00 -1.18440817e-06  1.04564913e-07  8.87318689e-06
  0.00000000e+00  0.00000000e+00  0.00000000e+00 -4.13186566e-07
  0.00000000e+00  0.00000000e+00  0.00000000e+00  0.00000000e+00
  0.00000000e+00  0.00000000e+00  0.00000000e+00  0.00000000e+00
  0.00000000e+00  0.00000000e+00  0.00000000e+00  0.00000000e+00
  0.00000000e+00  0.00000000e+00  0.00000000e+00  0.00000000e+00
  0.00000000e+00  0.00000000e+00 -1.18440817e-06 -4.13186566e-07
  0.00000000e+00  0.00000000e+00  0.00000000e+00  3.87322159e-06]","[[ 2.83945447e-05  5.44132879e-03]
 [-2.20415820e-04  9.71675046e-04]]",[],0.0,0.0
1787561934.910923,2.0494500628486563,1.448979716907972,2.449602399990992,"[ 1.22010877e-05  1.04564913e-07  0.00000000e+00  0.00000000e+00
  0.00000000e+00 -1.18440817e-06  1.04564913e-07  8.87318689e-06
  0.00000000e+00  0.00000000e+00  0.00000000e+00 -4.13186566e-07
  0.00000000e+00  0.00000000e+00  0.00000000e+00  0.00000000e+00
  0.00000000e+00  0.00000000e+00  0.00000000e+00  0.00000000e+00
  0.00000000e+00  0.00000000e+00  0.00000000e+00  0.00000000e+00
  0.00000000e+00  0.00000000e+00  0.00000000e+00  0.00000000e+00
  0.00000000e+00  0.00000000e+00 -1.18440817e-06 -4.13186566e-07
  0.00000000e+00  0.00000000e+00  0.00000000e+00  3.87322159e-06]","[[ 2.83945447e-05  5.44132879e-03]
 [-2.20415820e-04  9.71675046e-04]]",[],0.0,0.0
1787561934.9573054,2.0494500628486563,1.448979716907972,2.449602399990992,"[ 1.22010877e-05  1.04564913e-07  0.00000000e+00  0.00000000e+00
  0.00000000e+00 -1.18440817e-06  1.04564913e-07  8.87318689e-06
  0.00000000e+00  0.00000000e+00  0.00000000e+00 -4.13186566e-07
  0.00000000e+00  0.00000000e+00  0.00000000e+00  0.00000000e+00
  0.00000000e+00  0.00000000e+00  0.00000000e+00  0.00000000e+00
  0.00000000e+00  0.00000000e+00  0.00000000e+00  0.00000000e+00
  0.00000000e+00  0.00000000e+00  0.00000000e+00  0.00000000e+00
  0.00000000e+00  0.00000000e+00 -1.18440817e-06 -4.13186566e-07
  0.00000000e+00  0.00000000e+00  0.00000000e+00  3.87322159e-06]","[[ 2.83945447e-05  5.44132879e-03]
 [-2.20415820e-04  9.71675046e-04]]",[],0.0,0.0
1787561935.0054963,2.0494500628486563,1.448979716907972,2.449602399990992,"[ 1.22010877e-05  1.04564913e-07  0.00000000e+00  0.00000000e+00
  0.00000000e+00 -1.18440817e-06  1.04564913e-07  8.87318689e-06
  0.00000000e+00  0.00000000e+00  0.00000000e+00 -4.13186566e-07
  0.00000000e+00  0.00000000e+00  0.00000000e+00  0.00000000e+00
  0.00000000e+00  0.00000000e+00  0.00000000e+00  0.00000000e+00
  0.00000000e+00  0.00000000e+00  0.00000000e+00  0.00000000e+00
  0.00000000e+00  0.00000000e+00  0.00000000e+00  0.00000000e+00
  0.00000000e+00  0.00000000e+00 -1.18440817e-06 -4.13186566e-07
  0.00000000e+00  0.00000000e+00  0.00000000e+00  3.87322159e-06]","[[ 2.83945447e-05  5.44132879e-03]
 [-2.20415820e-04  9.71675046e-04]]",[],0.0,0.0
1787561935.0553734,2.0494500628486563,1.448979716907972,2.449602399990992,"[ 1.22010877e-05  1.04564913e-07  0.00000000e+00  0.00000000e+00
  0.00000000e+00 -1.18440817e-06  1.04564913e-07  8.87318689e-06
  0.00000000e+00  0.00000000e+00  0.00000000e+00 -4.13186566e-07
  0.00000000e+00  0.00000000e+00  0.00000000e+00  0.00000000e+00
  0.00000000e+00  0.00000000e+00  0.00000000e+00  0.00000000e+00
  0.00000000e+00  0.00000000e+00  0.00000000e+00  0.00000000e+00
  0.00000000e+00  0.00000000e+00  0.00000000e+00  0.00000000e+00
  0.00000000e+00  0.00000000e+00 -1.18440817e-06 -4.13186566e-07
  0.00000000e+00  0.00000000e+00  0.00000000e+00  3.87322159e-06]","[[ 2.83945447e-05  5.44132879e-03]
 [-2.20415820e-04  9.71675046e-04]]",[],0.0,0.0
1787561935.1104908,2.0494500628486563,1.448979716907972,2.449602399990992,"[ 1.22010877e-05  1.04564913e-07  0.00000000e+00  0.00000000e+00
  0.00000000e+00 -1.18440817e-06  1.04564913e-07  8.87318689e-06
  0.00000000e+00  0.00000000e+00  0.00000000e+00 -4.13186566e-07
  0.00000000e+00  0.00000000e+00  0.00000000e+00  0.00000000e+00
  0.00000000e+00  0.00000000e+00  0.00000000e+00  0.00000000e+00
  0.00000000e+00  0.00000000e+00  0.00000000e+00  0.00000000e+00
  0.00000000e+00  0.00000000e+00  0.00000000e+00  0.00000000e+00
  0.00000000e+00  0.00000000e+00 -1.18440817e-06 -4.13186566e-07
  0.00000000e+00  0.00000000e+00  0.00000000e+00  3.87322159e-06]","[[ 2.83945447e-05  5.44132879e-03]
 [-2.20415820e-04  9.71675046e-04]]",[],0.0,0.0
1787561935.1558905,2.0494500628486563,1.448979716907972,2.449602399990992,"[ 1.22010877e-05  1.04564913e-07  0.00000000e+00  0.00000000e+00
  0.00000000e+00 -1.18440817e-06  1.04564913e-07  8.87318689e-06
  0.00000000e+00  0.00000000e+00  0.00000000e+00 -4.13186566e-07
  0.00000000e+00  0.00000000e+00  0.00000000e+00  0.00000000e+00
  0.00000000e+00  0.00000000e+00  0.00000000e+00  0.00000000e+00
  0.00000000e+00  0.00000000e+00  0.00000000e+00  0.00000000e+00
  0.00000000e+00  0.00000000e+00  0.00000000e+00  0.00000000e+00
  0.00000000e+00  0.00000000e+00 -1.18440817e-06 -4.13186566e-07
  0.00000000e+00  0.00000000e+00  0.00000000e+00  3.87322159e-06]","[[ 2.83945447e-05  5.44132879e-03]
 [-2.20415820e-04  9.71675046e-04]]",[],0.0,0.0
1787561935.2043018,2.0494500628486563,1.448979716907972,2.449602399990992,"[ 1.22010877e-05  1.04564913e-07  0.00000000e+00  0.00000000e+00
  0.00000000e+00 -1.18440817e-06  1.04564913e-07  8.87318689e-06
  0.00000000e+00  0.00000000e+00  0.00000000e+00 -4.13186566e-07
  0.00000000e+00  0.00000000e+00  0.00000000e+00  0.00000000e+00
  0.00000000e+00  0.00000000e+00  0.00000000e+00  0.00000000e+00
  0.00000000e+00  0.00000000e+00  0.00000000e+00  0.00000000e+00
  0.00000000e+00  0.00000000e+00  0.00000000e+00  0.00000000e+00
  0.00000000e+00  0.00000000e+00 -1.18440817e-06 -4.13186566e-07
  0.00000000e+00  0.00000000e+00  0.00000000e+00  3.87322159e-06]","[[ 2.83945447e-05  5.44132879e-03]
 [-2.20415820e-04  9.71675046e-04]]",[],0.0,0.0
1787561935.2555044,2.0494500628486563,1.448979716907972,2.449602399990992,"[ 1.22010877e-05  1.04564913e-07  0.00000000e+00  0.00000000e+00
  0.00000000e+00 -1.18440817e-06  1.04564913e-07  8.87318689e-06
  0.00000000e+00  0.00000000e+00  0.00000000e+00 -4.13186566e-07
  0.00000000e+00  0.00000000e+00  0.00000000e+00  0.00000000e+00
  0.00000000e+00  0.00000000e+00  0.00000000e+00  0.00000000e+00
  0.00000000e+00  0.00000000e+00  0.00000000e+00  0.00000000e+00
  0.00000000e+00  0.00000000e+00  0.00000000e+00  0.00000000e+00
  0.00000000e+00  0.00000000e+00 -1.18440817e-06 -4.13186566e-07
  0.00000000e+00  0.00000000e+00  0.00000000e+00  3.87322159e-06]","[[ 2.83945447e-05  5.44132879e-03]
 [-2.20415820e-04  9.71675046e-04]]",[],0.0,0.0
1787561935.3202236,2.0494500628486563,1.448979716907972,2.449602399990992,"[ 1.22010877e-05  1.04564913e-07  0.00000000e+00  0.00000000e+00
  0.00000000e+00 -1.18440817e-06  1.04564913e-07  8.87318689e-06
  0.00000000e+00  0.00000000e+00  0.00000000e+00 -4.13186566e-07
  0.00000000e+00  0.00000000e+00  0.00000000e+00  0.00000000e+00
  0.00000000e+00  0.00000000e+00  0.00000000e+00  0.00000000e+00
  0.00000000e+00  0.00000000e+00  0.00000000e+00  0.00000000e+00
  0.00000000e+00  0.00000000e+00  0.00000000e+00  0.00000000e+00
  0.00000000e+00  0.00000000e+00 -1.18440817e-06 -4.13186566e-07
  0.00000000e+00  0.00000000e+00  0.00000000e+00  3.87322159e-06]","[[ 2.83945447e-05  5.44132879e-03]
 [-2.20415820e-04  9.71675046e-04]]",[],0.0,0.0
1787561935.3544981,2.0494500628486563,1.448979716907972,2.449602399990992,"[ 1.22010877e-05  1.04564913e-07  0.00000000e+00  0.00000000e+00
  0.00000000e+00 -1.18440817e-06  1.04564913e-07  8.87318689e-06
  0.00000000e+00  0.00000000e+00  0.00000000e+00 -4.13186566e-07
  0.00000000e+00  0.00000000e+00  0.00000000e+00  0.00000000e+00
  0.00000000e+00  0.00000000e+00  0.00000000e+00  0.00000000e+00
  0.00000000e+00  0.00000000e+00  0.00000000e+00  0.00000000e+00
  0.00000000e+00  0.00000000e+00  0.00000000e+00  0.00000000e+00
  0.00000000e+00  0.00000000e+00 -1.18440817e-06 -4.13186566e-07
  0.00000000e+00  0.00000000e+00  0.00000000e+00  3.87322159e-06]","[[ 2.83945447e-05  5.44132879e-03]
 [-2.20415820e-04  9.71675046e-04]]",[],0.0,0.0
1787561935.406457,2.0494500628486563,1.448979716907972,2.449602399990992,"[ 1.22010877e-05  1.04564913e-07  0.00000000e+00  0.00000000e+00
  0.00000000e+00 -1.18440817e-06  1.04564913e-07  8.87318689e-06
  0.00000000e+00  0.00000000e+00  0.00000000e+00 -4.13186566e-07
  0.00000000e+00  0.00000000e+00  0.00000000e+00  0.00000000e+00
  0.00000000e+00  0.00000000e+00  0.00000000e+00  0.00000000e+00
  0.00000000e+00  0.00000000e+00  0.00000000e+00  0.00000000e+00
  0.00000000e+00  0.00000000e+00  0.00000000e+00  0.00000000e+00
  0.00000000e+00  0.00000000e+00 -1.18440817e-06 -4.13186566e-07
  0.00000000e+00  0.00000000e+00  0.00000000e+00  3.87322159e-06]","[[ 2.83945447e-05  5.44132879e-03]
 [-2.20415820e-04  9.71675046e-04]]",[],0.0,0.0
1787561935.4544785,2.0494500628486563,1.448979716907972,2.449602399990992,"[ 1.22010877e-05  1.04564913e-07  0.00000000e+00  0.00000000e+00
  0.00000000e+00 -1.18440817e-06  1.04564913e-07  8.87318689e-06
  0.00000000e+00  0.00000000e+00  0.00000000e+00 -4.13186566e-07
  0.00000000e+00  0.00000000e+00  0.00000000e+00  0.00000000e+00
  0.00000000e+00  0.00000000e+00  0.00000000e+00  0.00000000e+00
  0.00000000e+00  0.00000000e+00  0.00000000e+00  0.00000000e+00
  0.00000000e+00  0.00000000e+00  0.00000000e+00  0.00000000e+00
  0.00000000e+00  0.00000000e+00 -1.18440817e-06 -4.13186566e-07
  0.00000000e+00  0.00000000e+00  0.00000000e+00  3.87322159e-06]","[[ 2.83945447e-05  5.44132879e-03]
 [-2.20415820e-04  9.71675046e-04]]",[],0.0,0.0
1787561935.5116677,2.0494500628486563,1.448979716907972,2.449602399990992,"[ 1.22010877e-05  1.04564913e-07  0.00000000e+00  0.00000000e+00
  0.00000000e+00 -1.18440817e-06  1.04564913e-07  8.87318689e-06
  0.00000000e+00  0.00000000e+00  0.00000000e+00 -4.13186566e-07
  0.00000000e+00  0.00000000e+00  0.00000000e+00  0.00000000e+00
  0.00000000e+00  0.00000000e+00  0.00000000e+00  0.00000000e+00
  0.00000000e+00  0.00000000e+00  0.00000000e+00  0.00000000e+00
  0.00000000e+00  0.00000000e+00  0.00000000e+00  0.00000000e+00
  0.00000000e+00  0.00000000e+00 -1.18440817e-06 -4.13186566e-07
  0.00000000e+00  0.00000000e+00  0.00000000e+00  3.87322159e-06]","[[ 2.83945447e-05  5.44132879e-03]
 [-2.20415820e-04  9.71675046e-04]]",[],0.0,0.0
1787561935.555768,2.0494500628486563,1.448979716907972,2.449602399990992,"[ 1.22010877e-05  1.04564913e-07  0.00000000e+00  0.00000000e+00
  0.00000000e+00 -1.18440817e-06  1.04564913e-07  8.87318689e-06
  0.00000000e+00  0.00000000e+00  0.00000000e+00 -4.13186566e-07
  0.00000000e+00  0.00000000e+00  0.00000000e+00  0.00000000e+00
  0.00000000e+00  0.00000000e+00  0.00000000e+00  0.00000000e+00
  0.00000000e+00  0.00000000e+00  0.00000000e+00  0.00000000e+00
  0.00000000e+00  0.00000000e+00  0.00000000e+00  0.00000000e+00
  0.00000000e+00  0.00000000e+00 -1.18440817e-06 -4.13186566e-07
  0.00000000e+00  0.00000000e+00  0.00000000e+00  3.87322159e-06]","[[ 2.83945447e-05  5.44132879e-03]
 [-2.20415820e-04  9.71675046e-04]]",[],0.0,0.0
1787561935.605286,2.0494500628486563,1.448979716907972,2.449602399990992,"[ 1.22010877e-05  1.04564913e-07  0.00000000e+00  0.00000000e+00
  0.00000000e+00 -1.18440817e-06  1.04564913e-07  8.87318689e-06
  0.00000000e+00  0.00000000e+00  0.00000000e+00 -4.13186566e-07
  0.00000000e+00  0.00000000e+00  0.00000000e+00  0.00000000e+00
  0.00000000e+00  0.00000000e+00  0.00000000e+00  0.00000000e+00
  0.00000000e+00  0.00000000e+00  0.00000000e+00  0.00000000e+00
  0.00000000e+00  0.00000000e+00  0.00000000e+00  0.00000000e+00
  0.00000000e+00  0.00000000e+00 -1.18440817e-06 -4.13186566e-07
  0.00000000e+00  0.00000000e+00  0.00000000e+00  3.87322159e-06]","[[ 2.83945447e-05  5.44132879e-03]
 [-2.20415820e-04  9.71675046e-04]]",[],0.0,0.0
1787561935.6545346,2.0494500628486563,1.448979716907972,2.449602399990992,"[ 1.22010877e-05  1.04564913e-07  0.00000000e+00  0.00000000e+00
  0.00000000e+00 -1.18440817e-06  1.04564913e-07  8.87318689e-06
  0.00000000e+00  0.00000000e+00  0.00000000e+00 -4.13186566e-07
  0.00000000e+00  0.00000000e+00  0.00000000e+00  0.00000000e+00
  0.00000000e+00  0.00000000e+00  0.00000000e+00  0.00000000e+00
  0.00000000e+00  0.00000000e+00  0.00000000e+00  0.00000000e+00
  0.00000000e+00  0.00000000e+00  0.00000000e+00  0.00000000e+00
  0.00000000e+00  0.00000000e+00 -1.18440817e-06 -4.13186566e-07
  0.00000000e+00  0.00000000e+00  0.00000000e+00  3.87322159e-06]","[[ 2.83945447e-05  5.44132879e-03]
 [-2.20415820e-04  9.71675046e-04]]",[],0.0,0.0
1787561935.7048843,2.0494500628486563,1.448979716907972,2.449602399990992,"[ 1.22010877e-05  1.04564913e-07  0.00000000e+00  0.00000000e+00
  0.00000000e+00 -1.18440817e-06  1.04564913e-07  8.87318689e-06
  0.00000000e+00  0.00000000e+00  0.00000000e+00 -4.13186566e-07
  0.00000000e+00  0.00000000e+00  0.00000000e+00  0.00000000e+00
  0.00000000e+00  0.00000000e+00  0.00000000e+00  0.00000000e+00
  0.00000000e+00  0.00000000e+00  0.00000000e+00  0.00000000e+00
  0.00000000e+00  0.00000000e+00  0.00000000e+00  0.00000000e+00
  0.00000000e+00  0.00000000e+00 -1.18440817e-06 -4.13186566e-07
  0.00000000e+00  0.00000000e+00  0.00000000e+00  3.87322159e-06]","[[ 2.83945447e-05  5.44132879e-03]
 [-2.20415820e-04  9.71675046e-04]]",[],0.0,0.0
1787561935.7552822,2.0494500628486563,1.448979716907972,2.449602399990992,"[ 1.22010877e-05  1.04564913e-07  0.00000000e+00  0.00000000e+00
  0.00000000e+00 -1.18440817e-06  1.04564913e-07  8.87318689e-06
  0.00000000e+00  0.00000000e+00  0.00000000e+00 -4.13186566e-07
  0.00000000e+00  0.00000000e+00  0.00000000e+00  0.00000000e+00
  0.00000000e+00  0.00000000e+00  0.00000000e+00  0.00000000e+00
  0.00000000e+00  0.00000000e+00  0.00000000e+00  0.00000000e+00
  0.00000000e+00  0.00000000e+00  0.00000000e+00  0.00000000e+00
  0.00000000e+00  0.00000000e+00 -1.18440817e-06 -4.13186566e-07
  0.00000000e+00  0.00000000e+00  0.00000000e+00  3.87322159e-06]","[[ 2.83945447e-05  5.44132879e-03]
 [-2.20415820e-04  9.71675046e-04]]",[],0.0,0.0
1787561935.8055756,2.055897763335435,1.4363403232739353,2.47638778537194,"[ 1.06949473e-05 -1.59952571e-08  0.00000000e+00  0.00000000e+00
  0.00000000e+00 -1.25303057e-06 -1.59952571e-08  7.61783820e-06
  0.00000000e+00  0.00000000e+00  0.00000000e+00 -2.88395503e-07
  0.00000000e+00  0.00000000e+00  0.00000000e+00  0.00000000e+00
  0.00000000e+00  0.00000000e+00  0.00000000e+00  0.00000000e+00
  0.00000000e+00  0.00000000e+00  0.00000000e+00  0.00000000e+00
  0.00000000e+00  0.00000000e+00  0.00000000e+00  0.00000000e+00
  0.00000000e+00  0.00000000e+00 -1.25303057e-06 -2.88395503e-07
  0.00000000e+00  0.00000000e+00  0.00000000e+00  4.08436865e-06]","[[ 2.43784819e-04  4.28823735e-03]
 [-7.88383815e-05  3.97515336e-03]]",[],0.0,0.0
1787561935.860392,2.055897763335435,1.4363403232739353,2.47638778537194,"[ 1.06949473e-05 -1.59952571e-08  0.00000000e+00  0.00000000e+00
  0.00000000e+00 -1.25303057e-06 -1.59952571e-08  7.61783820e-06
  0.00000000e+00  0.00000000e+00  0.00000000e+00 -2.88395503e-07
  0.00000000e+00  0.00000000e+00  0.00000000e+00  0.00000000e+00
  0.00000000e+00  0.00000000e+00  0.00000000e+00  0.00000000e+00
  0.00000000e+00  0.00000000e+00  0.00000000e+00  0.00000000e+00
  0.00000000e+00  0.00000000e+00  0.00000000e+00  0.00000000e+00
  0.00000000e+00  0.00000000e+00 -1.25303057e-06 -2.88395503e-07
  0.00000000e+00  0.00000000e+00  0.00000000e+00  4.08436865e-06]","[[ 2.43784819e-04  4.28823735e-03]
 [-7.88383815e-05  3.97515336e-03]]",[],0.0,0.0
1787561935.9058998,2.055897763335435,1.4363403232739353,2.47638778537194,"[ 1.06949473e-05 -1.59952571e-08  0.00000000e+00  0.00000000e+00
  0.00000000e+00 -1.25303057e-06 -1.59952571e-08  7.61783820e-06
  0.00000000e+00  0.00000000e+00  0.00000000e+00 -2.88395503e-07
  0.00000000e+00  0.00000000e+00  0.00000000e+00  0.00000000e+00
  0.00000000e+00  0.00000000e+00  0.00000000e+00  0.00000000e+00
  0.00000000e+00  0.00000000e+00  0.00000000e+00  0.00000000e+00
  0.00000000e+00  0.00000000e+00  0.00000000e+00  0.00000000e+00
  0.00000000e+00  0.00000000e+00 -1.25303057e-06 -2.88395503e-07
  0.00000000e+00  0.00000000e+00  0.00000000e+00  4.08436865e-06]","[[ 2.43784819e-04  4.28823735e-03]
 [-7.88383815e-05  3.97515336e-03]]",[],0.0,0.0
1787561935.9569182,2.055897763335435,1.4363403232739353,2.47638778537194,"[ 1.06949473e-05 -1.59952571e-08  0.00000000e+00  0.00000000e+00
  0.00000000e+00 -1.25303057e-06 -1.59952571e-08  7.61783820e-06
  0.00000000e+00  0.00000000e+00  0.00000000e+00 -2.88395503e-07
  0.00000000e+00  0.00000000e+00  0.00000000e+00  0.00000000e+00
  0.00000000e+00  0.00000000e+00  0.00000000e+00  0.00000000e+00
  0.00000000e+00  0.00000000e+00  0.00000000e+00  0.00000000e+00
  0.00000000e+00  0.00000000e+00  0.00000000e+00  0.00000000e+00
  0.00000000e+00  0.00000000e+00 -1.25303057e-06 -2.88395503e-07
  0.00000000e+00  0.00000000e+00  0.00000000e+00  4.08436865e-06]","[[ 2.43784819e-04  4.28823735e-03]
 [-7.88383815e-05  3.97515336e-03]]",[],0.0,0.0
1787561936.0167124,2.055897763335435,1.4363403232739353,2.47638778537194,"[ 1.06949473e-05 -1.59952571e-08  0.00000000e+00  0.00000000e+00
  0.00000000e+00 -1.25303057e-06 -1.59952571e-08  7.61783820e-06
  0.00000000e+00  0.00000000e+00  0.00000000e+00 -2.88395503e-07
  0.00000000e+00  0.00000000e+00  0.00000000e+00  0.00000000e+00
  0.00000000e+00  0.00000000e+00  0.00000000e+00  0.00000000e+00
  0.00000000e+00  0.00000000e+00  0.00000000e+00  0.00000000e+00
  0.00000000e+00  0.00000000e+00  0.00000000e+00  0.00000000e+00
  0.00000000e+00  0.00000000e+00 -1.25303057e-06 -2.88395503e-07
  0.00000000e+00  0.00000000e+00  0.00000000e+00  4.08436865e-06]","[[ 2.43784819e-04  4.28823735e-03]
 [-7.88383815e-05  3.97515336e-03]]",[],0.0,0.0
1787561936.0568178,2.05319672125683,1.4335572017803038,2.4822949345679035,"[ 1.06153643e-05 -9.29174683e-08  0.00000000e+00  0.00000000e+00
  0.00000000e+00 -1.10412577e-06 -9.29174683e-08  7.52589259e-06
  0.00000000e+00  0.00000000e+00  0.00000000e+00 -1.69220893e-08
  0.00000000e+00  0.00000000e+00  0.00000000e+00  0.00000000e+00
  0.00000000e+00  0.00000000e+00  0.00000000e+00  0.00000000e+00
  0.00000000e+00  0.00000000e+00  0.00000000e+00  0.00000000e+00
  0.00000000e+00  0.00000000e+00  0.00000000e+00  0.00000000e+00
  0.00000000e+00  0.00000000e+00 -1.10412577e-06 -1.69220893e-08
  0.00000000e+00  0.00000000e+00  0.00000000e+00  5.18832543e-06]","[[ 2.42474728e-04  3.99589407e-03]
 [-8.01022372e-05  3.45196192e-03]]",[],0.0,0.0
1787561936.1045945,2.05319672125683,1.4335572017803038,2.4822949345679035,"[ 1.06153643e-05 -9.29174683e-08  0.00000000e+00  0.00000000e+00
  0.00000000e+00 -1.10412577e-06 -9.29174683e-08  7.52589259e-06
  0.00000000e+00  0.00000000e+00  0.00000000e+00 -1.69220893e-08
  0.00000000e+00  0.00000000e+00  0.00000000e+00  0.00000000e+00
  0.00000000e+00  0.00000000e+00  0.00000000e+00  0.00000000e+00
  0.00000000e+00  0.00000000e+00  0.00000000e+00  0.00000000e+00
  0.00000000e+00  0.00000000e+00  0.00000000e+00  0.00000000e+00
  0.00000000e+00  0.00000000e+00 -1.10412577e-06 -1.69220893e-08
  0.00000000e+00  0.00000000e+00  0.00000000e+00  5.18832543e-06]","[[ 2.42474728e-04  3.99589407e-03]
 [-8.01022372e-05  3.45196192e-03]]",[],0.0,0.0
1787561936.156732,2.05319672125683,1.4335572017803038,2.4822949345679035,"[ 1.06153643e-05 -9.29174683e-08  0.00000000e+00  0.00000000e+00
  0.00000000e+00 -1.10412577e-06 -9.29174683e-08  7.52589259e-06
  0.00000000e+00  0.00000000e+00  0.00000000e+00 -1.69220893e-08
  0.00000000e+00  0.00000000e+00  0.00000000e+00  0.00000000e+00
  0.00000000e+00  0.00000000e+00  0.00000000e+00  0.00000000e+00
  0.00000000e+00  0.00000000e+00  0.00000000e+00  0.00000000e+00
  0.00000000e+00  0.00000000e+00  0.00000000e+00  0.00000000e+00
  0.00000000e+00  0.00000000e+00 -1.10412577e-06 -1.69220893e-08
  0.00000000e+00  0.00000000e+00  0.00000000e+00  5.18832543e-06]","[[ 2.42474728e-04  3.99589407e-03]
 [-8.01022372e-05  3.45196192e-03]]",[],0.0,0.0
1787561936.206045,2.05319672125683,1.4335572017803038,2.4822949345679035,"[ 1.06153643e-05 -9.29174683e-08  0.00000000e+00  0.00000000e+00
  0.00000000e+00 -1.10412577e-06 -9.29174683e-08  7.52589259e-06
  0.00000000e+00  0.00000000e+00  0.00000000e+00 -1.69220893e-08
  0.00000000e+00  0.00000000e+00  0.00000000e+00  0.00000000e+00
  0.00000000e+00  0.00000000e+00  0.00000000e+00  0.00000000e+00
  0.00000000e+00  0.00000000e+00  0.00000000e+00  0.00000000e+00
  0.00000000e+00  0.00000000e+00  0.00000000e+00  0.00000000e+00
  0.00000000e+00  0.00000000e+00 -1.10412577e-06 -1.69220893e-08
  0.00000000e+00  0.00000000e+00  0.00000000e+00  5.18832543e-06]","[[ 2.42474728e-04  3.99589407e-03]
 [-8.01022372e-05  3.45196192e-03]]",[],0.0,0.0
1787561936.2615235,2.05319672125683,1.4335572017803038,2.4822949345679035,"[ 1.06153643e-05 -9.29174683e-08  0.00000000e+00  0.00000000e+00
  0.00000000e+00 -1.10412577e-06 -9.29174683e-08  7.52589259e-06
  0.00000000e+00  0.00000000e+00  0.00000000e+00 -1.69220893e-08
  0.00000000e+00  0.00000000e+00  0.00000000e+00  0.00000000e+00
  0.00000000e+00  0.00000000e+00  0.00000000e+00  0.00000000e+00
  0.00000000e+00  0.00000000e+00  0.00000000e+00  0.00000000e+00
  0.00000000e+00  0.00000000e+00  0.00000000e+00  0.00000000e+00
  0.00000000e+00  0.00000000e+00 -1.10412577e-06 -1.69220893e-08
  0.00000000e+00  0.00000000e+00  0.00000000e+00  5.18832543e-06]","[[ 2.42474728e-04  3.99589407e-03]
 [-8.01022372e-05  3.45196192e-03]]",[],0.0,0.0
1787561936.3133807,2.05319672125683,1.4335572017803038,2.4822949345679035,"[ 1.06153643e-05 -9.29174683e-08  0.00000000e+00  0.00000000e+00
  0.00000000e+00 -1.10412577e-06 -9.29174683e-08  7.52589259e-06
  0.00000000e+00  0.00000000e+00  0.00000000e+00 -1.69220893e-08
  0.00000000e+00  0.00000000e+00  0.00000000e+00  0.00000000e+00
  0.00000000e+00  0.00000000e+00  0.00000000e+00  0.00000000e+00
  0.00000000e+00  0.00000000e+00  0.00000000e+00  0.00000000e+00
  0.00000000e+00  0.00000000e+00  0.00000000e+00  0.00000000e+00
  0.00000000e+00  0.00000000e+00 -1.10412577e-06 -1.69220893e-08
  0.00000000e+00  0.00000000e+00  0.00000000e+00  5.18832543e-06]","[[ 2.42474728e-04  3.99589407e-03]
 [-8.01022372e-05  3.45196192e-03]]",[],0.0,0.0
1787561936.3636768,2.05319672125683,1.4335572017803038,2.4822949345679035,"[ 1.06153643e-05 -9.29174683e-08  0.00000000e+00  0.00000000e+00
  0.00000000e+00 -1.10412577e-06 -9.29174683e-08  7.52589259e-06
  0.00000000e+00  0.00000000e+00  0.00000000e+00 -1.69220893e-08
  0.00000000e+00  0.00000000e+00  0.00000000e+00  0.00000000e+00
  0.00000000e+00  0.00000000e+00  0.00000000e+00  0.00000000e+00
  0.00000000e+00  0.00000000e+00  0.00000000e+00  0.00000000e+00
  0.00000000e+00  0.00000000e+00  0.00000000e+00  0.00000000e+00
  0.00000000e+00  0.00000000e+00 -1.10412577e-06 -1.69220893e-08
  0.00000000e+00  0.00000000e+00  0.00000000e+00  5.18832543e-06]","[[ 2.42474728e-04  3.99589407e-03]
 [-8.01022372e-05  3.45196192e-03]]",[],0.0,0.0
1787561936.406329,2.05319672125683,1.4335572017803038,2.4822949345679035,"[ 1.06153643e-05 -9.29174683e-08  0.00000000e+00  0.00000000e+00
  0.00000000e+00 -1.10412577e-06 -9.29174683e-08  7.52589259e-06
  0.00000000e+00  0.00000000e+00  0.00000000e+00 -1.69220893e-08
  0.00000000e+00  0.00000000e+00  0.00000000e+00  0.00000000e+00
  0.00000000e+00  0.00000000e+00  0.00000000e+00  0.00000000e+00
  0.00000000e+00  0.00000000e+00  0.00000000e+00  0.00000000e+00
  0.00000000e+00  0.00000000e+00  0.00000000e+00  0.00000000e+00
  0.00000000e+00  0.00000000e+00 -1.10412577e-06 -1.69220893e-08
  0.00000000e+00  0.00000000e+00  0.00000000e+00  5.18832543e-06]","[[ 2.42474728e-04  3.99589407e-03]
 [-8.01022372e-05  3.45196192e-03]]",[],0.0,0.0
1787561936.4578536,2.05319672125683,1.4335572017803038,2.4822949345679035,"[ 1.06153643e-05 -9.29174683e-08  0.00000000e+00  0.00000000e+00
  0.00000000e+00 -1.10412577e-06 -9.29174683e-08  7.52589259e-06
  0.00000000e+00  0.00000000e+00  0.00000000e+00 -1.69220893e-08
  0.00000000e+00  0.00000000e+00  0.00000000e+00  0.00000000e+00
  0.00000000e+00  0.00000000e+00  0.00000000e+00  0.00000000e+00
  0.00000000e+00  0.00000000e+00  0.00000000e+00  0.00000000e+00
  0.00000000e+00  0.00000000e+00  0.00000000e+00  0.00000000e+00
  0.00000000e+00  0.00000000e+00 -1.10412577e-06 -1.69220893e-08
  0.00000000e+00  0.00000000e+00  0.00000000e+00  5.18832543e-06]","[[ 2.42474728e-04  3.99589407e-03]
 [-8.01022372e-05  3.45196192e-03]]",[],0.0,0.0
1787561936.5132384,2.05319672125683,1.4335572017803038,2.4822949345679035,"[ 1.06153643e-05 -9.29174683e-08  0.00000000e+00  0.00000000e+00
  0.00000000e+00 -1.10412577e-06 -9.29174683e-08  7.52589259e-06
  0.00000000e+00  0.00000000e+00  0.00000000e+00 -1.69220893e-08
  0.00000000e+00  0.00000000e+00  0.00000000e+00  0.00000000e+00
  0.00000000e+00  0.00000000e+00  0.00000000e+00  0.00000000e+00
  0.00000000e+00  0.00000000e+00  0.00000000e+00  0.00000000e+00
  0.00000000e+00  0.00000000e+00  0.00000000e+00  0.00000000e+00
  0.00000000e+00  0.00000000e+00 -1.10412577e-06 -1.69220893e-08
  0.00000000e+00  0.00000000e+00  0.00000000e+00  5.18832543e-06]","[[ 2.42474728e-04  3.99589407e-03]
 [-8.01022372e-05  3.45196192e-03]]",[],0.0,0.0
1787561936.5563269,2.05319672125683,1.4335572017803038,2.4822949345679035,"[ 1.06153643e-05 -9.29174683e-08  0.00000000e+00  0.00000000e+00
  0.00000000e+00 -1.10412577e-06 -9.29174683e-08  7.52589259e-06
  0.00000000e+00  0.00000000e+00  0.00000000e+00 -1.69220893e-08
  0.00000000e+00  0.00000000e+00  0.00000000e+00  0.00000000e+00
  0.00000000e+00  0.00000000e+00  0.00000000e+00  0.00000000e+00
  0.00000000e+00  0.00000000e+00  0.00000000e+00  0.00000000e+00
  0.00000000e+00  0.00000000e+00  0.00000000e+00  0.00000000e+00
  0.00000000e+00  0.00000000e+00 -1.10412577e-06 -1.69220893e-08
  0.00000000e+00  0.00000000e+00  0.00000000e+00  5.18832543e-06]","[[ 2.42474728e-04  3.99589407e-03]
 [-8.01022372e-05  3.45196192e-03]]",[],0.0,0.0
1787561936.6053972,2.05319672125683,1.4335572017803038,2.4822949345679035,"[ 1.06153643e-05 -9.29174683e-08  0.00000000e+00  0.00000000e+00
  0.00000000e+00 -1.10412577e-06 -9.29174683e-08  7.52589259e-06
  0.00000000e+00  0.00000000e+00  0.00000000e+00 -1.69220893e-08
  0.00000000e+00  0.00000000e+00  0.00000000e+00  0.00000000e+00
  0.00000000e+00  0.00000000e+00  0.00000000e+00  0.00000000e+00
  0.00000000e+00  0.00000000e+00  0.00000000e+00  0.00000000e+00
  0.00000000e+00  0.00000000e+00  0.00000000e+00  0.00000000e+00
  0.00000000e+00  0.00000000e+00 -1.10412577e-06 -1.69220893e-08
  0.00000000e+00  0.00000000e+00  0.00000000e+00  5.18832543e-06]","[[ 2.42474728e-04  3.99589407e-03]
 [-8.01022372e-05  3.45196192e-03]]",[],0.0,0.0
1787561936.6548102,2.05319672125683,1.4335572017803038,2.4822949345679035,"[ 1.06153643e-05 -9.29174683e-08  0.00000000e+00  0.00000000e+00
  0.00000000e+00 -1.10412577e-06 -9.29174683e-08  7.52589259e-06
  0.00000000e+00  0.00000000e+00  0.00000000e+00 -1.69220893e-08
  0.00000000e+00  0.00000000e+00  0.00000000e+00  0.00000000e+00
  0.00000000e+00  0.00000000e+00  0.00000000e+00  0.00000000e+00
  0.00000000e+00  0.00000000e+00  0.00000000e+00  0.00000000e+00
  0.00000000e+00  0.00000000e+00  0.00000000e+00  0.00000000e+00
  0.00000000e+00  0.00000000e+00 -1.10412577e-06 -1.69220893e-08
  0.00000000e+00  0.00000000e+00  0.00000000e+00  5.18832543e-06]","[[ 2.42474728e-04  3.99589407e-03]
 [-8.01022372e-05  3.45196192e-03]]",[],0.0,0.0
1787561936.7055511,2.05319672125683,1.4335572017803038,2.4822949345679035,"[ 1.06153643e-05 -9.29174683e-08  0.00000000e+00  0.00000000e+00
  0.00000000e+00 -1.10412577e-06 -9.29174683e-08  7.52589259e-06
  0.00000000e+00  0.00000000e+00  0.00000000e+00 -1.69220893e-08
  0.00000000e+00  0.00000000e+00  0.00000000e+00  0.00000000e+00
  0.00000000e+00  0.00000000e+00  0.00000000e+00  0.00000000e+00
  0.00000000e+00  0.00000000e+00  0.00000000e+00  0.00000000e+00
  0.00000000e+00  0.00000000e+00  0.00000000e+00  0.00000000e+00
  0.00000000e+00  0.00000000e+00 -1.10412577e-06 -1.69220893e-08
  0.00000000e+00  0.00000000e+00  0.00000000e+00  5.18832543e-06]","[[ 2.42474728e-04  3.99589407e-03]
 [-8.01022372e-05  3.45196192e-03]]",[],0.0,0.0
1787561936.7608566,2.05319672125683,1.4335572017803038,2.4822949345679035,"[ 1.06153643e-05 -9.29174683e-08  0.00000000e+00  0.00000000e+00
  0.00000000e+00 -1.10412577e-06 -9.29174683e-08  7.52589259e-06
  0.00000000e+00  0.00000000e+00  0.00000000e+00 -1.69220893e-08
  0.00000000e+00  0.00000000e+00  0.00000000e+00  0.00000000e+00
  0.00000000e+00  0.00000000e+00  0.00000000e+00  0.00000000e+00
  0.00000000e+00  0.00000000e+00  0.00000000e+00  0.00000000e+00
  0.00000000e+00  0.00000000e+00  0.00000000e+00  0.00000000e+00
  0.00000000e+00  0.00000000e+00 -1.10412577e-06 -1.69220893e-08
  0.00000000e+00  0.00000000e+00  0.00000000e+00  5.18832543e-06]","[[ 2.42474728e-04  3.99589407e-03]
 [-8.01022372e-05  3.45196192e-03]]",[],0.0,0.0
1787561936.805262,2.0615641672747804,1.4280455702121315,2.4877260119267577,"[ 9.91112861e-06 -1.51991683e-07  0.00000000e+00  0.00000000e+00
  0.00000000e+00 -8.24006264e-07 -1.51991683e-07  6.98533058e-06
  0.00000000e+00  0.00000000e+00  0.00000000e+00 -1.02148078e-06
  0.00000000e+00  0.00000000e+00  0.00000000e+00  0.00000000e+00
  0.00000000e+00  0.00000000e+00  0.00000000e+00  0.00000000e+00
  0.00000000e+00  0.00000000e+00  0.00000000e+00  0.00000000e+00
  0.00000000e+00  0.00000000e+00  0.00000000e+00  0.00000000e+00
  0.00000000e+00  0.00000000e+00 -8.24006264e-07 -1.02148078e-06
  0.00000000e+00  0.00000000e+00  0.00000000e+00  6.03223238e-06]","[[ 2.92382475e-05  4.17007345e-03]
 [-1.74099433e-04  1.85108791e-03]]",[],0.0,0.0
1787561936.8553731,2.0615641672747804,1.4280455702121315,2.4877260119267577,"[ 9.91112861e-06 -1.51991683e-07  0.00000000e+00  0.00000000e+00
  0.00000000e+00 -8.24006264e-07 -1.51991683e-07  6.98533058e-06
  0.00000000e+00  0.00000000e+00  0.00000000e+00 -1.02148078e-06
  0.00000000e+00  0.00000000e+00  0.00000000e+00  0.00000000e+00
  0.00000000e+00  0.00000000e+00  0.00000000e+00  0.00000000e+00
  0.00000000e+00  0.00000000e+00  0.00000000e+00  0.00000000e+00
  0.00000000e+00  0.00000000e+00  0.00000000e+00  0.00000000e+00
  0.00000000e+00  0.00000000e+00 -8.24006264e-07 -1.02148078e-06
  0.00000000e+00  0.00000000e+00  0.00000000e+00  6.03223238e-06]","[[ 2.92382475e-05  4.17007345e-03]
 [-1.74099433e-04  1.85108791e-03]]",[],0.0,0.0
1787561936.9049914,2.0615641672747804,1.4280455702121315,2.4877260119267577,"[ 9.91112861e-06 -1.51991683e-07  0.00000000e+00  0.00000000e+00
  0.00000000e+00 -8.24006264e-07 -1.51991683e-07  6.98533058e-06
  0.00000000e+00  0.00000000e+00  0.00000000e+00 -1.02148078e-06
  0.00000000e+00  0.00000000e+00  0.00000000e+00  0.00000000e+00
  0.00000000e+00  0.00000000e+00  0.00000000e+00  0.00000000e+00
  0.00000000e+00  0.00000000e+00  0.00000000e+00  0.00000000e+00
  0.00000000e+00  0.00000000e+00  0.00000000e+00  0.00000000e+00
  0.00000000e+00  0.00000000e+00 -8.24006264e-07 -1.02148078e-06
  0.00000000e+00  0.00000000e+00  0.00000000e+00  6.03223238e-06]","[[ 2.92382475e-05  4.17007345e-03]
 [-1.74099433e-04  1.85108791e-03]]",[],0.0,0.0
1787561936.9552865,2.0615641672747804,1.4280455702121315,2.4877260119267577,"[ 9.91112861e-06 -1.51991683e-07  0.00000000e+00  0.00000000e+00
  0.00000000e+00 -8.24006264e-07 -1.51991683e-07  6.98533058e-06
  0.00000000e+00  0.00000000e+00  0.00000000e+00 -1.02148078e-06
  0.00000000e+00  0.00000000e+00  0.00000000e+00  0.00000000e+00
  0.00000000e+00  0.00000000e+00  0.00000000e+00  0.00000000e+00
  0.00000000e+00  0.00000000e+00  0.00000000e+00  0.00000000e+00
  0.00000000e+00  0.00000000e+00  0.00000000e+00  0.00000000e+00
  0.00000000e+00  0.00000000e+00 -8.24006264e-07 -1.02148078e-06
  0.00000000e+00  0.00000000e+00  0.00000000e+00  6.03223238e-06]","[[ 2.92382475e-05  4.17007345e-03]
 [-1.74099433e-04  1.85108791e-03]]",[],0.0,0.0
1787561937.0142274,2.0615641672747804,1.4280455702121315,2.4877260119267577,"[ 9.91112861e-06 -1.51991683e-07  0.00000000e+00  0.00000000e+00
  0.00000000e+00 -8.24006264e-07 -1.51991683e-07  6.98533058e-06
  0.00000000e+00  0.00000000e+00  0.00000000e+00 -1.02148078e-06
  0.00000000e+00  0.00000000e+00  0.00000000e+00  0.00000000e+00
  0.00000000e+00  0.00000000e+00  0.00000000e+00  0.00000000e+00
  0.00000000e+00  0.00000000e+00  0.00000000e+00  0.00000000e+00
  0.00000000e+00  0.00000000e+00  0.00000000e+00  0.00000000e+00
  0.00000000e+00  0.00000000e+00 -8.24006264e-07 -1.02148078e-06
  0.00000000e+00  0.00000000e+00  0.00000000e+00  6.03223238e-06]","[[ 2.92382475e-05  4.17007345e-03]
 [-1.74099433e-04  1.85108791e-03]]",[],0.0,0.0
1787561937.056411,2.0615641672747804,1.4280455702121315,2.4877260119267577,"[ 9.91112861e-06 -1.51991683e-07  0.00000000e+00  0.00000000e+00
  0.00000000e+00 -8.24006264e-07 -1.51991683e-07  6.98533058e-06
  0.00000000e+00  0.00000000e+00  0.00000000e+00 -1.02148078e-06
  0.00000000e+00  0.00000000e+00  0.00000000e+00  0.00000000e+00
  0.00000000e+00  0.00000000e+00  0.00000000e+00  0.00000000e+00
  0.00000000e+00  0.00000000e+00  0.00000000e+00  0.00000000e+00
  0.00000000e+00  0.00000000e+00  0.00000000e+00  0.00000000e+00
  0.00000000e+00  0.00000000e+00 -8.24006264e-07 -1.02148078e-06
  0.00000000e+00  0.00000000e+00  0.00000000e+00  6.03223238e-06]","[[ 2.92382475e-05  4.17007345e-03]
 [-1.74099433e-04  1.85108791e-03]]",[],0.0,0.0
1787561937.105002,2.0615641672747804,1.4280455702121315,2.4877260119267577,"[ 9.91112861e-06 -1.51991683e-07  0.00000000e+00  0.00000000e+00
  0.00000000e+00 -8.24006264e-07 -1.51991683e-07  6.98533058e-06
  0.00000000e+00  0.00000000e+00  0.00000000e+00 -1.02148078e-06
  0.00000000e+00  0.00000000e+00  0.00000000e+00  0.00000000e+00
  0.00000000e+00  0.00000000e+00  0.00000000e+00  0.00000000e+00
  0.00000000e+00  0.00000000e+00  0.00000000e+00  0.00000000e+00
  0.00000000e+00  0.00000000e+00  0.00000000e+00  0.00000000e+00
  0.00000000e+00  0.00000000e+00 -8.24006264e-07 -1.02148078e-06
