time,x,y,yaw,cov_prop,K_gain,innovation,v_ekf,omega_ekf
1787561457.8953938,1.7450410656883337,1.3911535820940726,2.0649943447912955,"[ 6.87438439e-05 -1.14826606e-06  0.00000000e+00  0.00000000e+00
  0.00000000e+00 -7.93309715e-06 -1.14826606e-06  5.01005912e-05
  0.00000000e+00  0.00000000e+00  0.00000000e+00 -1.71004971e-06
  0.00000000e+00  0.00000000e+00  0.00000000e+00  0.00000000e+00
  0.00000000e+00  0.00000000e+00  0.00000000e+00  0.00000000e+00
  0.00000000e+00  0.00000000e+00  0.00000000e+00  0.00000000e+00
  0.00000000e+00  0.00000000e+00  0.00000000e+00  0.00000000e+00
  0.00000000e+00  0.00000000e+00 -7.93309715e-06 -1.71004971e-06
  0.00000000e+00  0.00000000e+00  0.00000000e+00  5.01232271e-06]","[[-0.00108166  0.03512946]
 [-0.00094168 -0.01078616]]",[],0.0,0.0
1787561457.942348,1.7450410656883337,1.3911535820940726,2.0649943447912955,"[ 6.87438439e-05 -1.14826606e-06  0.00000000e+00  0.00000000e+00
  0.00000000e+00 -7.93309715e-06 -1.14826606e-06  5.01005912e-05
  0.00000000e+00  0.00000000e+00  0.00000000e+00 -1.71004971e-06
  0.00000000e+00  0.00000000e+00  0.00000000e+00  0.00000000e+00
  0.00000000e+00  0.00000000e+00  0.00000000e+00  0.00000000e+00
  0.00000000e+00  0.00000000e+00  0.00000000e+00  0.00000000e+00
  0.00000000e+00  0.00000000e+00  0.00000000e+00  0.00000000e+00
  0.00000000e+00  0.00000000e+00 -7.93309715e-06 -1.71004971e-06
  0.00000000e+00  0.00000000e+00  0.00000000e+00  5.01232271e-06]","[[-0.00108166  0.03512946]
 [-0.00094168 -0.01078616]]",[],0.0,0.0
1787561457.9926147,1.7450410656883337,1.3911535820940726,2.0649943447912955,"[ 6.87438439e-05 -1.14826606e-06  0.00000000e+00  0.00000000e+00
  0.00000000e+00 -7.93309715e-06 -1.14826606e-06  5.01005912e-05
  0.00000000e+00  0.00000000e+00  0.00000000e+00 -1.71004971e-06
  0.00000000e+00  0.00000000e+00  0.00000000e+00  0.00000000e+00
  0.00000000e+00  0.00000000e+00  0.00000000e+00  0.00000000e+00
  0.00000000e+00  0.00000000e+00  0.00000000e+00  0.00000000e+00
  0.00000000e+00  0.00000000e+00  0.00000000e+00  0.00000000e+00
  0.00000000e+00  0.00000000e+00 -7.93309715e-06 -1.71004971e-06
  0.00000000e+00  0.00000000e+00  0.00000000e+00  5.01232271e-06]","[[-0.00108166  0.03512946]
 [-0.00094168 -0.01078616]]",[],0.0,0.0
1787561458.0451124,1.7450410656883337,1.3911535820940726,2.0649943447912955,"[ 6.87438439e-05 -1.14826606e-06  0.00000000e+00  0.00000000e+00
  0.00000000e+00 -7.93309715e-06 -1.14826606e-06  5.01005912e-05
  0.00000000e+00  0.00000000e+00  0.00000000e+00 -1.71004971e-06
  0.00000000e+00  0.00000000e+00  0.00000000e+00  0.00000000e+00
  0.00000000e+00  0.00000000e+00  0.00000000e+00  0.00000000e+00
  0.00000000e+00  0.00000000e+00  0.00000000e+00  0.00000000e+00
  0.00000000e+00  0.00000000e+00  0.00000000e+00  0.00000000e+00
  0.00000000e+00  0.00000000e+00 -7.93309715e-06 -1.71004971e-06
  0.00000000e+00  0.00000000e+00  0.00000000e+00  5.01232271e-06]","[[-0.00108166  0.03512946]
 [-0.00094168 -0.01078616]]",[],0.0,0.0
1787561458.0960677,1.7450410656883337,1.3911535820940726,2.0649943447912955,"[ 6.87438439e-05 -1.14826606e-06  0.00000000e+00  0.00000000e+00
  0.00000000e+00 -7.93309715e-06 -1.14826606e-06  5.01005912e-05
  0.00000000e+00  0.00000000e+00  0.00000000e+00 -1.71004971e-06
  0.00000000e+00  0.00000000e+00  0.00000000e+00  0.00000000e+00
  0.00000000e+00  0.00000000e+00  0.00000000e+00  0.00000000e+00
  0.00000000e+00  0.00000000e+00  0.00000000e+00  0.00000000e+00
  0.00000000e+00  0.00000000e+00  0.00000000e+00  0.00000000e+00
  0.00000000e+00  0.00000000e+00 -7.93309715e-06 -1.71004971e-06
  0.00000000e+00  0.00000000e+00  0.00000000e+00  5.01232271e-06]","[[-0.00108166  0.03512946]
 [-0.00094168 -0.01078616]]",[],0.0,0.0
1787561458.1491349,1.7450410656883337,1.3911535820940726,2.0649943447912955,"[ 6.87438439e-05 -1.14826606e-06  0.00000000e+00  0.00000000e+00
  0.00000000e+00 -7.93309715e-06 -1.14826606e-06  5.01005912e-05
  0.00000000e+00  0.00000000e+00  0.00000000e+00 -1.71004971e-06
  0.00000000e+00  0.00000000e+00  0.00000000e+00  0.00000000e+00
  0.00000000e+00  0.00000000e+00  0.00000000e+00  0.00000000e+00
  0.00000000e+00  0.00000000e+00  0.00000000e+00  0.00000000e+00
  0.00000000e+00  0.00000000e+00  0.00000000e+00  0.00000000e+00
  0.00000000e+00  0.00000000e+00 -7.93309715e-06 -1.71004971e-06
  0.00000000e+00  0.00000000e+00  0.00000000e+00  5.01232271e-06]","[[-0.00108166  0.03512946]
 [-0.00094168 -0.01078616]]",[],0.0,0.0
1787561458.193414,1.7450410656883337,1.3911535820940726,2.0649943447912955,"[ 6.87438439e-05 -1.14826606e-06  0.00000000e+00  0.00000000e+00
  0.00000000e+00 -7.93309715e-06 -1.14826606e-06  5.01005912e-05
  0.00000000e+00  0.00000000e+00  0.00000000e+00 -1.71004971e-06
  0.00000000e+00  0.00000000e+00  0.00000000e+00  0.00000000e+00
  0.00000000e+00  0.00000000e+00  0.00000000e+00  0.00000000e+00
  0.00000000e+00  0.00000000e+00  0.00000000e+00  0.00000000e+00
  0.00000000e+00  0.00000000e+00  0.00000000e+00  0.00000000e+00
  0.00000000e+00  0.00000000e+00 -7.93309715e-06 -1.71004971e-06
  0.00000000e+00  0.00000000e+00  0.00000000e+00  5.01232271e-06]","[[-0.00108166  0.03512946]
 [-0.00094168 -0.01078616]]",[],0.0,0.0
1787561458.242746,1.7450410656883337,1.3911535820940726,2.0649943447912955,"[ 6.87438439e-05 -1.14826606e-06  0.00000000e+00  0.00000000e+00
  0.00000000e+00 -7.93309715e-06 -1.14826606e-06  5.01005912e-05
  0.00000000e+00  0.00000000e+00  0.00000000e+00 -1.71004971e-06
  0.00000000e+00  0.00000000e+00  0.00000000e+00  0.00000000e+00
  0.00000000e+00  0.00000000e+00  0.00000000e+00  0.00000000e+00
  0.00000000e+00  0.00000000e+00  0.00000000e+00  0.00000000e+00
  0.00000000e+00  0.00000000e+00  0.00000000e+00  0.00000000e+00
  0.00000000e+00  0.00000000e+00 -7.93309715e-06 -1.71004971e-06
  0.00000000e+00  0.00000000e+00  0.00000000e+00  5.01232271e-06]","[[-0.00108166  0.03512946]
 [-0.00094168 -0.01078616]]",[],0.0,0.0
1787561458.2933352,1.7450410656883337,1.3911535820940726,2.0649943447912955,"[ 6.87438439e-05 -1.14826606e-06  0.00000000e+00  0.00000000e+00
  0.00000000e+00 -7.93309715e-06 -1.14826606e-06  5.01005912e-05
  0.00000000e+00  0.00000000e+00  0.00000000e+00 -1.71004971e-06
  0.00000000e+00  0.00000000e+00  0.00000000e+00  0.00000000e+00
  0.00000000e+00  0.00000000e+00  0.00000000e+00  0.00000000e+00
  0.00000000e+00  0.00000000e+00  0.00000000e+00  0.00000000e+00
  0.00000000e+00  0.00000000e+00  0.00000000e+00  0.00000000e+00
  0.00000000e+00  0.00000000e+00 -7.93309715e-06 -1.71004971e-06
  0.00000000e+00  0.00000000e+00  0.00000000e+00  5.01232271e-06]","[[-0.00108166  0.03512946]
 [-0.00094168 -0.01078616]]",[],0.0,0.0
1787561458.3527462,1.7450410656883337,1.3911535820940726,2.0649943447912955,"[ 6.87438439e-05 -1.14826606e-06  0.00000000e+00  0.00000000e+00
  0.00000000e+00 -7.93309715e-06 -1.14826606e-06  5.01005912e-05
  0.00000000e+00  0.00000000e+00  0.00000000e+00 -1.71004971e-06
  0.00000000e+00  0.00000000e+00  0.00000000e+00  0.00000000e+00
  0.00000000e+00  0.00000000e+00  0.00000000e+00  0.00000000e+00
  0.00000000e+00  0.00000000e+00  0.00000000e+00  0.00000000e+00
  0.00000000e+00  0.00000000e+00  0.00000000e+00  0.00000000e+00
  0.00000000e+00  0.00000000e+00 -7.93309715e-06 -1.71004971e-06
  0.00000000e+00  0.00000000e+00  0.00000000e+00  5.01232271e-06]","[[-0.00108166  0.03512946]
 [-0.00094168 -0.01078616]]",[],0.0,0.0
1787561458.3929703,1.7450410656883337,1.3911535820940726,2.0649943447912955,"[ 6.87438439e-05 -1.14826606e-06  0.00000000e+00  0.00000000e+00
  0.00000000e+00 -7.93309715e-06 -1.14826606e-06  5.01005912e-05
  0.00000000e+00  0.00000000e+00  0.00000000e+00 -1.71004971e-06
  0.00000000e+00  0.00000000e+00  0.00000000e+00  0.00000000e+00
  0.00000000e+00  0.00000000e+00  0.00000000e+00  0.00000000e+00
  0.00000000e+00  0.00000000e+00  0.00000000e+00  0.00000000e+00
  0.00000000e+00  0.00000000e+00  0.00000000e+00  0.00000000e+00
  0.00000000e+00  0.00000000e+00 -7.93309715e-06 -1.71004971e-06
  0.00000000e+00  0.00000000e+00  0.00000000e+00  5.01232271e-06]","[[-0.00108166  0.03512946]
 [-0.00094168 -0.01078616]]",[],0.0,0.0
1787561458.4423904,1.7450410656883337,1.3911535820940726,2.0649943447912955,"[ 6.87438439e-05 -1.14826606e-06  0.00000000e+00  0.00000000e+00
  0.00000000e+00 -7.93309715e-06 -1.14826606e-06  5.01005912e-05
  0.00000000e+00  0.00000000e+00  0.00000000e+00 -1.71004971e-06
  0.00000000e+00  0.00000000e+00  0.00000000e+00  0.00000000e+00
  0.00000000e+00  0.00000000e+00  0.00000000e+00  0.00000000e+00
  0.00000000e+00  0.00000000e+00  0.00000000e+00  0.00000000e+00
  0.00000000e+00  0.00000000e+00  0.00000000e+00  0.00000000e+00
  0.00000000e+00  0.00000000e+00 -7.93309715e-06 -1.71004971e-06
  0.00000000e+00  0.00000000e+00  0.00000000e+00  5.01232271e-06]","[[-0.00108166  0.03512946]
 [-0.00094168 -0.01078616]]",[],0.0,0.0
1787561458.4922867,1.7450410656883337,1.3911535820940726,2.0649943447912955,"[ 6.87438439e-05 -1.14826606e-06  0.00000000e+00  0.00000000e+00
  0.00000000e+00 -7.93309715e-06 -1.14826606e-06  5.01005912e-05
  0.00000000e+00  0.00000000e+00  0.00000000e+00 -1.71004971e-06
  0.00000000e+00  0.00000000e+00  0.00000000e+00  0.00000000e+00
  0.00000000e+00  0.00000000e+00  0.00000000e+00  0.00000000e+00
  0.00000000e+00  0.00000000e+00  0.00000000e+00  0.00000000e+00
  0.00000000e+00  0.00000000e+00  0.00000000e+00  0.00000000e+00
  0.00000000e+00  0.00000000e+00 -7.93309715e-06 -1.71004971e-06
  0.00000000e+00  0.00000000e+00  0.00000000e+00  5.01232271e-06]","[[-0.00108166  0.03512946]
 [-0.00094168 -0.01078616]]",[],0.0,0.0
1787561458.5484202,1.7450410656883337,1.3911535820940726,2.0649943447912955,"[ 6.87438439e-05 -1.14826606e-06  0.00000000e+00  0.00000000e+00
  0.00000000e+00 -7.93309715e-06 -1.14826606e-06  5.01005912e-05
  0.00000000e+00  0.00000000e+00  0.00000000e+00 -1.71004971e-06
  0.00000000e+00  0.00000000e+00  0.00000000e+00  0.00000000e+00
  0.00000000e+00  0.00000000e+00  0.00000000e+00  0.00000000e+00
  0.00000000e+00  0.00000000e+00  0.00000000e+00  0.00000000e+00
  0.00000000e+00  0.00000000e+00  0.00000000e+00  0.00000000e+00
  0.00000000e+00  0.00000000e+00 -7.93309715e-06 -1.71004971e-06
  0.00000000e+00  0.00000000e+00  0.00000000e+00  5.01232271e-06]","[[-0.00108166  0.03512946]
 [-0.00094168 -0.01078616]]",[],0.0,0.0
1787561458.604528,1.7450410656883337,1.3911535820940726,2.0649943447912955,"[ 6.87438439e-05 -1.14826606e-06  0.00000000e+00  0.00000000e+00
  0.00000000e+00 -7.93309715e-06 -1.14826606e-06  5.01005912e-05
  0.00000000e+00  0.00000000e+00  0.00000000e+00 -1.71004971e-06
  0.00000000e+00  0.00000000e+00  0.00000000e+00  0.00000000e+00
  0.00000000e+00  0.00000000e+00  0.00000000e+00  0.00000000e+00
  0.00000000e+00  0.00000000e+00  0.00000000e+00  0.00000000e+00
  0.00000000e+00  0.00000000e+00  0.00000000e+00  0.00000000e+00
  0.00000000e+00  0.00000000e+00 -7.93309715e-06 -1.71004971e-06
  0.00000000e+00  0.00000000e+00  0.00000000e+00  5.01232271e-06]","[[-0.00108166  0.03512946]
 [-0.00094168 -0.01078616]]",[],0.0,0.0
1787561458.6429164,1.7450410656883337,1.3911535820940726,2.0649943447912955,"[ 6.87438439e-05 -1.14826606e-06  0.00000000e+00  0.00000000e+00
  0.00000000e+00 -7.93309715e-06 -1.14826606e-06  5.01005912e-05
  0.00000000e+00  0.00000000e+00  0.00000000e+00 -1.71004971e-06
  0.00000000e+00  0.00000000e+00  0.00000000e+00  0.00000000e+00
  0.00000000e+00  0.00000000e+00  0.00000000e+00  0.00000000e+00
  0.00000000e+00  0.00000000e+00  0.00000000e+00  0.00000000e+00
  0.00000000e+00  0.00000000e+00  0.00000000e+00  0.00000000e+00
  0.00000000e+00  0.00000000e+00 -7.93309715e-06 -1.71004971e-06
  0.00000000e+00  0.00000000e+00  0.00000000e+00  5.01232271e-06]","[[-0.00108166  0.03512946]
 [-0.00094168 -0.01078616]]",[],0.0,0.0
1787561458.6961963,1.7450410656883337,1.3911535820940726,2.0649943447912955,"[ 6.87438439e-05 -1.14826606e-06  0.00000000e+00  0.00000000e+00
  0.00000000e+00 -7.93309715e-06 -1.14826606e-06  5.01005912e-05
  0.00000000e+00  0.00000000e+00  0.00000000e+00 -1.71004971e-06
  0.00000000e+00  0.00000000e+00  0.00000000e+00  0.00000000e+00
  0.00000000e+00  0.00000000e+00  0.00000000e+00  0.00000000e+00
  0.00000000e+00  0.00000000e+00  0.00000000e+00  0.00000000e+00
  0.00000000e+00  0.00000000e+00  0.00000000e+00  0.00000000e+00
  0.00000000e+00  0.00000000e+00 -7.93309715e-06 -1.71004971e-06
  0.00000000e+00  0.00000000e+00  0.00000000e+00  5.01232271e-06]","[[-0.00108166  0.03512946]
 [-0.00094168 -0.01078616]]",[],0.0,0.0
1787561458.7434142,1.7450410656883337,1.3911535820940726,2.0649943447912955,"[ 6.87438439e-05 -1.14826606e-06  0.00000000e+00  0.00000000e+00
  0.00000000e+00 -7.93309715e-06 -1.14826606e-06  5.01005912e-05
  0.00000000e+00  0.00000000e+00  0.00000000e+00 -1.71004971e-06
  0.00000000e+00  0.00000000e+00  0.00000000e+00  0.00000000e+00
  0.00000000e+00  0.00000000e+00  0.00000000e+00  0.00000000e+00
  0.00000000e+00  0.00000000e+00  0.00000000e+00  0.00000000e+00
  0.00000000e+00  0.00000000e+00  0.00000000e+00  0.00000000e+00
  0.00000000e+00  0.00000000e+00 -7.93309715e-06 -1.71004971e-06
  0.00000000e+00  0.00000000e+00  0.00000000e+00  5.01232271e-06]","[[-0.00108166  0.03512946]
 [-0.00094168 -0.01078616]]",[],0.0,0.0
1787561458.7933846,1.7450410656883337,1.3911535820940726,2.0649943447912955,"[ 6.87438439e-05 -1.14826606e-06  0.00000000e+00  0.00000000e+00
  0.00000000e+00 -7.93309715e-06 -1.14826606e-06  5.01005912e-05
  0.00000000e+00  0.00000000e+00  0.00000000e+00 -1.71004971e-06
  0.00000000e+00  0.00000000e+00  0.00000000e+00  0.00000000e+00
  0.00000000e+00  0.00000000e+00  0.00000000e+00  0.00000000e+00
  0.00000000e+00  0.00000000e+00  0.00000000e+00  0.00000000e+00
  0.00000000e+00  0.00000000e+00  0.00000000e+00  0.00000000e+00
  0.00000000e+00  0.00000000e+00 -7.93309715e-06 -1.71004971e-06
  0.00000000e+00  0.00000000e+00  0.00000000e+00  5.01232271e-06]","[[-0.00108166  0.03512946]
 [-0.00094168 -0.01078616]]",[],0.0,0.0
1787561458.8423288,1.7450410656883337,1.3911535820940726,2.0649943447912955,"[ 6.87438439e-05 -1.14826606e-06  0.00000000e+00  0.00000000e+00
  0.00000000e+00 -7.93309715e-06 -1.14826606e-06  5.01005912e-05
  0.00000000e+00  0.00000000e+00  0.00000000e+00 -1.71004971e-06
  0.00000000e+00  0.00000000e+00  0.00000000e+00  0.00000000e+00
  0.00000000e+00  0.00000000e+00  0.00000000e+00  0.00000000e+00
  0.00000000e+00  0.00000000e+00  0.00000000e+00  0.00000000e+00
  0.00000000e+00  0.00000000e+00  0.00000000e+00  0.00000000e+00
  0.00000000e+00  0.00000000e+00 -7.93309715e-06 -1.71004971e-06
  0.00000000e+00  0.00000000e+00  0.00000000e+00  5.01232271e-06]","[[-0.00108166  0.03512946]
 [-0.00094168 -0.01078616]]",[],0.0,0.0
1787561458.8926222,1.7450410656883337,1.3911535820940726,2.0649943447912955,"[ 6.87438439e-05 -1.14826606e-06  0.00000000e+00  0.00000000e+00
  0.00000000e+00 -7.93309715e-06 -1.14826606e-06  5.01005912e-05
  0.00000000e+00  0.00000000e+00  0.00000000e+00 -1.71004971e-06
  0.00000000e+00  0.00000000e+00  0.00000000e+00  0.00000000e+00
  0.00000000e+00  0.00000000e+00  0.00000000e+00  0.00000000e+00
  0.00000000e+00  0.00000000e+00  0.00000000e+00  0.00000000e+00
  0.00000000e+00  0.00000000e+00  0.00000000e+00  0.00000000e+00
  0.00000000e+00  0.00000000e+00 -7.93309715e-06 -1.71004971e-06
  0.00000000e+00  0.00000000e+00  0.00000000e+00  5.01232271e-06]","[[-0.00108166  0.03512946]
 [-0.00094168 -0.01078616]]",[],0.0,0.0
1787561458.9589877,1.7450410656883337,1.3911535820940726,2.0649943447912955,"[ 6.87438439e-05 -1.14826606e-06  0.00000000e+00  0.00000000e+00
  0.00000000e+00 -7.93309715e-06 -1.14826606e-06  5.01005912e-05
  0.00000000e+00  0.00000000e+00  0.00000000e+00 -1.71004971e-06
  0.00000000e+00  0.00000000e+00  0.00000000e+00  0.00000000e+00
  0.00000000e+00  0.00000000e+00  0.00000000e+00  0.00000000e+00
  0.00000000e+00  0.00000000e+00  0.00000000e+00  0.00000000e+00
  0.00000000e+00  0.00000000e+00  0.00000000e+00  0.00000000e+00
  0.00000000e+00  0.00000000e+00 -7.93309715e-06 -1.71004971e-06
  0.00000000e+00  0.00000000e+00  0.00000000e+00  5.01232271e-06]","[[-0.00108166  0.03512946]
 [-0.00094168 -0.01078616]]",[],0.0,0.0
1787561458.9928544,1.7450410656883337,1.3911535820940726,2.0649943447912955,"[ 6.87438439e-05 -1.14826606e-06  0.00000000e+00  0.00000000e+00
  0.00000000e+00 -7.93309715e-06 -1.14826606e-06  5.01005912e-05
  0.00000000e+00  0.00000000e+00  0.00000000e+00 -1.71004971e-06
  0.00000000e+00  0.00000000e+00  0.00000000e+00  0.00000000e+00
  0.00000000e+00  0.00000000e+00  0.00000000e+00  0.00000000e+00
  0.00000000e+00  0.00000000e+00  0.00000000e+00  0.00000000e+00
  0.00000000e+00  0.00000000e+00  0.00000000e+00  0.00000000e+00
  0.00000000e+00  0.00000000e+00 -7.93309715e-06 -1.71004971e-06
  0.00000000e+00  0.00000000e+00  0.00000000e+00  5.01232271e-06]","[[-0.00108166  0.03512946]
 [-0.00094168 -0.01078616]]",[],0.0,0.0
1787561459.0423765,1.7450410656883337,1.3911535820940726,2.0649943447912955,"[ 6.87438439e-05 -1.14826606e-06  0.00000000e+00  0.00000000e+00
  0.00000000e+00 -7.93309715e-06 -1.14826606e-06  5.01005912e-05
  0.00000000e+00  0.00000000e+00  0.00000000e+00 -1.71004971e-06
  0.00000000e+00  0.00000000e+00  0.00000000e+00  0.00000000e+00
  0.00000000e+00  0.00000000e+00  0.00000000e+00  0.00000000e+00
  0.00000000e+00  0.00000000e+00  0.00000000e+00  0.00000000e+00
  0.00000000e+00  0.00000000e+00  0.00000000e+00  0.00000000e+00
  0.00000000e+00  0.00000000e+00 -7.93309715e-06 -1.71004971e-06
  0.00000000e+00  0.00000000e+00  0.00000000e+00  5.01232271e-06]","[[-0.00108166  0.03512946]
 [-0.00094168 -0.01078616]]",[],0.0,0.0
1787561459.0948203,1.7450410656883337,1.3911535820940726,2.0649943447912955,"[ 6.87438439e-05 -1.14826606e-06  0.00000000e+00  0.00000000e+00
  0.00000000e+00 -7.93309715e-06 -1.14826606e-06  5.01005912e-05
  0.00000000e+00  0.00000000e+00  0.00000000e+00 -1.71004971e-06
  0.00000000e+00  0.00000000e+00  0.00000000e+00  0.00000000e+00
  0.00000000e+00  0.00000000e+00  0.00000000e+00  0.00000000e+00
  0.00000000e+00  0.00000000e+00  0.00000000e+00  0.00000000e+00
  0.00000000e+00  0.00000000e+00  0.00000000e+00  0.00000000e+00
  0.00000000e+00  0.00000000e+00 -7.93309715e-06 -1.71004971e-06
  0.00000000e+00  0.00000000e+00  0.00000000e+00  5.01232271e-06]","[[-0.00108166  0.03512946]
 [-0.00094168 -0.01078616]]",[],0.0,0.0
1787561459.1454842,1.7450410656883337,1.3911535820940726,2.0649943447912955,"[ 6.87438439e-05 -1.14826606e-06  0.00000000e+00  0.00000000e+00
  0.00000000e+00 -7.93309715e-06 -1.14826606e-06  5.01005912e-05
  0.00000000e+00  0.00000000e+00  0.00000000e+00 -1.71004971e-06
  0.00000000e+00  0.00000000e+00  0.00000000e+00  0.00000000e+00
  0.00000000e+00  0.00000000e+00  0.00000000e+00  0.00000000e+00
  0.00000000e+00  0.00000000e+00  0.00000000e+00  0.00000000e+00
  0.00000000e+00  0.00000000e+00  0.00000000e+00  0.00000000e+00
  0.00000000e+00  0.00000000e+00 -7.93309715e-06 -1.71004971e-06
  0.00000000e+00  0.00000000e+00  0.00000000e+00  5.01232271e-06]","[[-0.00108166  0.03512946]
 [-0.00094168 -0.01078616]]",[],0.0,0.0
1787561459.1919777,1.7450410656883337,1.3911535820940726,2.0649943447912955,"[ 6.87438439e-05 -1.14826606e-06  0.00000000e+00  0.00000000e+00
  0.00000000e+00 -7.93309715e-06 -1.14826606e-06  5.01005912e-05
  0.00000000e+00  0.00000000e+00  0.00000000e+00 -1.71004971e-06
  0.00000000e+00  0.00000000e+00  0.00000000e+00  0.00000000e+00
  0.00000000e+00  0.00000000e+00  0.00000000e+00  0.00000000e+00
  0.00000000e+00  0.00000000e+00  0.00000000e+00  0.00000000e+00
  0.00000000e+00  0.00000000e+00  0.00000000e+00  0.00000000e+00
  0.00000000e+00  0.00000000e+00 -7.93309715e-06 -1.71004971e-06
  0.00000000e+00  0.00000000e+00  0.00000000e+00  5.01232271e-06]","[[-0.00108166  0.03512946]
 [-0.00094168 -0.01078616]]",[],0.0,0.0
1787561459.247085,1.752655313732167,1.3659765648521691,2.139521425373002,"[ 3.30049539e-05  2.36075476e-07  0.00000000e+00  0.00000000e+00
  0.00000000e+00 -4.49563600e-06  2.36075476e-07  2.50082201e-05
  0.00000000e+00  0.00000000e+00  0.00000000e+00 -1.63894047e-06
  0.00000000e+00  0.00000000e+00  0.00000000e+00  0.00000000e+00
  0.00000000e+00  0.00000000e+00  0.00000000e+00  0.00000000e+00
  0.00000000e+00  0.00000000e+00  0.00000000e+00  0.00000000e+00
  0.00000000e+00  0.00000000e+00  0.00000000e+00  0.00000000e+00
  0.00000000e+00  0.00000000e+00 -4.49563600e-06 -1.63894047e-06
  0.00000000e+00  0.00000000e+00  0.00000000e+00  4.82490773e-06]","[[-0.00056099  0.01907906]
 [-0.00046549 -0.00532099]]",[],0.0,0.0
1787561459.3032289,1.752655313732167,1.3659765648521691,2.139521425373002,"[ 3.30049539e-05  2.36075476e-07  0.00000000e+00  0.00000000e+00
  0.00000000e+00 -4.49563600e-06  2.36075476e-07  2.50082201e-05
  0.00000000e+00  0.00000000e+00  0.00000000e+00 -1.63894047e-06
  0.00000000e+00  0.00000000e+00  0.00000000e+00  0.00000000e+00
  0.00000000e+00  0.00000000e+00  0.00000000e+00  0.00000000e+00
  0.00000000e+00  0.00000000e+00  0.00000000e+00  0.00000000e+00
  0.00000000e+00  0.00000000e+00  0.00000000e+00  0.00000000e+00
  0.00000000e+00  0.00000000e+00 -4.49563600e-06 -1.63894047e-06
  0.00000000e+00  0.00000000e+00  0.00000000e+00  4.82490773e-06]","[[-0.00056099  0.01907906]
 [-0.00046549 -0.00532099]]",[],0.0,0.0
1787561459.342487,1.752655313732167,1.3659765648521691,2.139521425373002,"[ 3.30049539e-05  2.36075476e-07  0.00000000e+00  0.00000000e+00
  0.00000000e+00 -4.49563600e-06  2.36075476e-07  2.50082201e-05
  0.00000000e+00  0.00000000e+00  0.00000000e+00 -1.63894047e-06
  0.00000000e+00  0.00000000e+00  0.00000000e+00  0.00000000e+00
  0.00000000e+00  0.00000000e+00  0.00000000e+00  0.00000000e+00
  0.00000000e+00  0.00000000e+00  0.00000000e+00  0.00000000e+00
  0.00000000e+00  0.00000000e+00  0.00000000e+00  0.00000000e+00
  0.00000000e+00  0.00000000e+00 -4.49563600e-06 -1.63894047e-06
  0.00000000e+00  0.00000000e+00  0.00000000e+00  4.82490773e-06]","[[-0.00056099  0.01907906]
 [-0.00046549 -0.00532099]]",[],0.0,0.0
1787561459.3929248,1.752655313732167,1.3659765648521691,2.139521425373002,"[ 3.30049539e-05  2.36075476e-07  0.00000000e+00  0.00000000e+00
  0.00000000e+00 -4.49563600e-06  2.36075476e-07  2.50082201e-05
  0.00000000e+00  0.00000000e+00  0.00000000e+00 -1.63894047e-06
  0.00000000e+00  0.00000000e+00  0.00000000e+00  0.00000000e+00
  0.00000000e+00  0.00000000e+00  0.00000000e+00  0.00000000e+00
  0.00000000e+00  0.00000000e+00  0.00000000e+00  0.00000000e+00
  0.00000000e+00  0.00000000e+00  0.00000000e+00  0.00000000e+00
  0.00000000e+00  0.00000000e+00 -4.49563600e-06 -1.63894047e-06
  0.00000000e+00  0.00000000e+00  0.00000000e+00  4.82490773e-06]","[[-0.00056099  0.01907906]
 [-0.00046549 -0.00532099]]",[],0.0,0.0
1787561459.4486825,1.752655313732167,1.3659765648521691,2.139521425373002,"[ 3.30049539e-05  2.36075476e-07  0.00000000e+00  0.00000000e+00
  0.00000000e+00 -4.49563600e-06  2.36075476e-07  2.50082201e-05
  0.00000000e+00  0.00000000e+00  0.00000000e+00 -1.63894047e-06
  0.00000000e+00  0.00000000e+00  0.00000000e+00  0.00000000e+00
  0.00000000e+00  0.00000000e+00  0.00000000e+00  0.00000000e+00
  0.00000000e+00  0.00000000e+00  0.00000000e+00  0.00000000e+00
  0.00000000e+00  0.00000000e+00  0.00000000e+00  0.00000000e+00
  0.00000000e+00  0.00000000e+00 -4.49563600e-06 -1.63894047e-06
  0.00000000e+00  0.00000000e+00  0.00000000e+00  4.82490773e-06]","[[-0.00056099  0.01907906]
 [-0.00046549 -0.00532099]]",[],0.0,0.0
1787561459.4949117,1.752655313732167,1.3659765648521691,2.139521425373002,"[ 3.30049539e-05  2.36075476e-07  0.00000000e+00  0.00000000e+00
  0.00000000e+00 -4.49563600e-06  2.36075476e-07  2.50082201e-05
  0.00000000e+00  0.00000000e+00  0.00000000e+00 -1.63894047e-06
  0.00000000e+00  0.00000000e+00  0.00000000e+00  0.00000000e+00
  0.00000000e+00  0.00000000e+00  0.00000000e+00  0.00000000e+00
  0.00000000e+00  0.00000000e+00  0.00000000e+00  0.00000000e+00
  0.00000000e+00  0.00000000e+00  0.00000000e+00  0.00000000e+00
  0.00000000e+00  0.00000000e+00 -4.49563600e-06 -1.63894047e-06
  0.00000000e+00  0.00000000e+00  0.00000000e+00  4.82490773e-06]","[[-0.00056099  0.01907906]
 [-0.00046549 -0.00532099]]",[],0.0,0.0
1787561459.542235,1.752655313732167,1.3659765648521691,2.139521425373002,"[ 3.30049539e-05  2.36075476e-07  0.00000000e+00  0.00000000e+00
  0.00000000e+00 -4.49563600e-06  2.36075476e-07  2.50082201e-05
  0.00000000e+00  0.00000000e+00  0.00000000e+00 -1.63894047e-06
  0.00000000e+00  0.00000000e+00  0.00000000e+00  0.00000000e+00
  0.00000000e+00  0.00000000e+00  0.00000000e+00  0.00000000e+00
  0.00000000e+00  0.00000000e+00  0.00000000e+00  0.00000000e+00
  0.00000000e+00  0.00000000e+00  0.00000000e+00  0.00000000e+00
  0.00000000e+00  0.00000000e+00 -4.49563600e-06 -1.63894047e-06
  0.00000000e+00  0.00000000e+00  0.00000000e+00  4.82490773e-06]","[[-0.00056099  0.01907906]
 [-0.00046549 -0.00532099]]",[],0.0,0.0
1787561459.5945826,1.752655313732167,1.3659765648521691,2.139521425373002,"[ 3.30049539e-05  2.36075476e-07  0.00000000e+00  0.00000000e+00
  0.00000000e+00 -4.49563600e-06  2.36075476e-07  2.50082201e-05
  0.00000000e+00  0.00000000e+00  0.00000000e+00 -1.63894047e-06
  0.00000000e+00  0.00000000e+00  0.00000000e+00  0.00000000e+00
  0.00000000e+00  0.00000000e+00  0.00000000e+00  0.00000000e+00
  0.00000000e+00  0.00000000e+00  0.00000000e+00  0.00000000e+00
  0.00000000e+00  0.00000000e+00  0.00000000e+00  0.00000000e+00
  0.00000000e+00  0.00000000e+00 -4.49563600e-06 -1.63894047e-06
  0.00000000e+00  0.00000000e+00  0.00000000e+00  4.82490773e-06]","[[-0.00056099  0.01907906]
 [-0.00046549 -0.00532099]]",[],0.0,0.0
1787561459.644935,1.752655313732167,1.3659765648521691,2.139521425373002,"[ 3.30049539e-05  2.36075476e-07  0.00000000e+00  0.00000000e+00
  0.00000000e+00 -4.49563600e-06  2.36075476e-07  2.50082201e-05
  0.00000000e+00  0.00000000e+00  0.00000000e+00 -1.63894047e-06
  0.00000000e+00  0.00000000e+00  0.00000000e+00  0.00000000e+00
  0.00000000e+00  0.00000000e+00  0.00000000e+00  0.00000000e+00
  0.00000000e+00  0.00000000e+00  0.00000000e+00  0.00000000e+00
  0.00000000e+00  0.00000000e+00  0.00000000e+00  0.00000000e+00
  0.00000000e+00  0.00000000e+00 -4.49563600e-06 -1.63894047e-06
  0.00000000e+00  0.00000000e+00  0.00000000e+00  4.82490773e-06]","[[-0.00056099  0.01907906]
 [-0.00046549 -0.00532099]]",[],0.0,0.0
1787561459.69444,1.752655313732167,1.3659765648521691,2.139521425373002,"[ 3.30049539e-05  2.36075476e-07  0.00000000e+00  0.00000000e+00
  0.00000000e+00 -4.49563600e-06  2.36075476e-07  2.50082201e-05
  0.00000000e+00  0.00000000e+00  0.00000000e+00 -1.63894047e-06
  0.00000000e+00  0.00000000e+00  0.00000000e+00  0.00000000e+00
  0.00000000e+00  0.00000000e+00  0.00000000e+00  0.00000000e+00
  0.00000000e+00  0.00000000e+00  0.00000000e+00  0.00000000e+00
  0.00000000e+00  0.00000000e+00  0.00000000e+00  0.00000000e+00
  0.00000000e+00  0.00000000e+00 -4.49563600e-06 -1.63894047e-06
  0.00000000e+00  0.00000000e+00  0.00000000e+00  4.82490773e-06]","[[-0.00056099  0.01907906]
 [-0.00046549 -0.00532099]]",[],0.0,0.0
1787561459.7453158,1.752655313732167,1.3659765648521691,2.139521425373002,"[ 3.30049539e-05  2.36075476e-07  0.00000000e+00  0.00000000e+00
  0.00000000e+00 -4.49563600e-06  2.36075476e-07  2.50082201e-05
  0.00000000e+00  0.00000000e+00  0.00000000e+00 -1.63894047e-06
  0.00000000e+00  0.00000000e+00  0.00000000e+00  0.00000000e+00
  0.00000000e+00  0.00000000e+00  0.00000000e+00  0.00000000e+00
  0.00000000e+00  0.00000000e+00  0.00000000e+00  0.00000000e+00
  0.00000000e+00  0.00000000e+00  0.00000000e+00  0.00000000e+00
  0.00000000e+00  0.00000000e+00 -4.49563600e-06 -1.63894047e-06
  0.00000000e+00  0.00000000e+00  0.00000000e+00  4.82490773e-06]","[[-0.00056099  0.01907906]
 [-0.00046549 -0.00532099]]",[],0.0,0.0
1787561459.801582,1.752655313732167,1.3659765648521691,2.139521425373002,"[ 3.30049539e-05  2.36075476e-07  0.00000000e+00  0.00000000e+00
  0.00000000e+00 -4.49563600e-06  2.36075476e-07  2.50082201e-05
  0.00000000e+00  0.00000000e+00  0.00000000e+00 -1.63894047e-06
  0.00000000e+00  0.00000000e+00  0.00000000e+00  0.00000000e+00
  0.00000000e+00  0.00000000e+00  0.00000000e+00  0.00000000e+00
  0.00000000e+00  0.00000000e+00  0.00000000e+00  0.00000000e+00
  0.00000000e+00  0.00000000e+00  0.00000000e+00  0.00000000e+00
  0.00000000e+00  0.00000000e+00 -4.49563600e-06 -1.63894047e-06
  0.00000000e+00  0.00000000e+00  0.00000000e+00  4.82490773e-06]","[[-0.00056099  0.01907906]
 [-0.00046549 -0.00532099]]",[],0.0,0.0
1787561459.8462164,1.752655313732167,1.3659765648521691,2.139521425373002,"[ 3.30049539e-05  2.36075476e-07  0.00000000e+00  0.00000000e+00
  0.00000000e+00 -4.49563600e-06  2.36075476e-07  2.50082201e-05
  0.00000000e+00  0.00000000e+00  0.00000000e+00 -1.63894047e-06
  0.00000000e+00  0.00000000e+00  0.00000000e+00  0.00000000e+00
  0.00000000e+00  0.00000000e+00  0.00000000e+00  0.00000000e+00
  0.00000000e+00  0.00000000e+00  0.00000000e+00  0.00000000e+00
  0.00000000e+00  0.00000000e+00  0.00000000e+00  0.00000000e+00
  0.00000000e+00  0.00000000e+00 -4.49563600e-06 -1.63894047e-06
  0.00000000e+00  0.00000000e+00  0.00000000e+00  4.82490773e-06]","[[-0.00056099  0.01907906]
 [-0.00046549 -0.00532099]]",[],0.0,0.0
1787561459.8967319,1.752655313732167,1.3659765648521691,2.139521425373002,"[ 3.30049539e-05  2.36075476e-07  0.00000000e+00  0.00000000e+00
  0.00000000e+00 -4.49563600e-06  2.36075476e-07  2.50082201e-05
  0.00000000e+00  0.00000000e+00  0.00000000e+00 -1.63894047e-06
  0.00000000e+00  0.00000000e+00  0.00000000e+00  0.00000000e+00
  0.00000000e+00  0.00000000e+00  0.00000000e+00  0.00000000e+00
  0.00000000e+00  0.00000000e+00  0.00000000e+00  0.00000000e+00
  0.00000000e+00  0.00000000e+00  0.00000000e+00  0.00000000e+00
  0.00000000e+00  0.00000000e+00 -4.49563600e-06 -1.63894047e-06
  0.00000000e+00  0.00000000e+00  0.00000000e+00  4.82490773e-06]","[[-0.00056099  0.01907906]
 [-0.00046549 -0.00532099]]",[],0.0,0.0
1787561459.942372,1.752655313732167,1.3659765648521691,2.139521425373002,"[ 3.30049539e-05  2.36075476e-07  0.00000000e+00  0.00000000e+00
  0.00000000e+00 -4.49563600e-06  2.36075476e-07  2.50082201e-05
  0.00000000e+00  0.00000000e+00  0.00000000e+00 -1.63894047e-06
  0.00000000e+00  0.00000000e+00  0.00000000e+00  0.00000000e+00
  0.00000000e+00  0.00000000e+00  0.00000000e+00  0.00000000e+00
  0.00000000e+00  0.00000000e+00  0.00000000e+00  0.00000000e+00
  0.00000000e+00  0.00000000e+00  0.00000000e+00  0.00000000e+00
  0.00000000e+00  0.00000000e+00 -4.49563600e-06 -1.63894047e-06
  0.00000000e+00  0.00000000e+00  0.00000000e+00  4.82490773e-06]","[[-0.00056099  0.01907906]
 [-0.00046549 -0.00532099]]",[],0.0,0.0
1787561459.992643,1.752655313732167,1.3659765648521691,2.139521425373002,"[ 3.30049539e-05  2.36075476e-07  0.00000000e+00  0.00000000e+00
  0.00000000e+00 -4.49563600e-06  2.36075476e-07  2.50082201e-05
  0.00000000e+00  0.00000000e+00  0.00000000e+00 -1.63894047e-06
  0.00000000e+00  0.00000000e+00  0.00000000e+00  0.00000000e+00
  0.00000000e+00  0.00000000e+00  0.00000000e+00  0.00000000e+00
  0.00000000e+00  0.00000000e+00  0.00000000e+00  0.00000000e+00
  0.00000000e+00  0.00000000e+00  0.00000000e+00  0.00000000e+00
  0.00000000e+00  0.00000000e+00 -4.49563600e-06 -1.63894047e-06
  0.00000000e+00  0.00000000e+00  0.00000000e+00  4.82490773e-06]","[[-0.00056099  0.01907906]
 [-0.00046549 -0.00532099]]",[],0.0,0.0
1787561460.0426915,1.752655313732167,1.3659765648521691,2.139521425373002,"[ 3.30049539e-05  2.36075476e-07  0.00000000e+00  0.00000000e+00
  0.00000000e+00 -4.49563600e-06  2.36075476e-07  2.50082201e-05
  0.00000000e+00  0.00000000e+00  0.00000000e+00 -1.63894047e-06
  0.00000000e+00  0.00000000e+00  0.00000000e+00  0.00000000e+00
  0.00000000e+00  0.00000000e+00  0.00000000e+00  0.00000000e+00
  0.00000000e+00  0.00000000e+00  0.00000000e+00  0.00000000e+00
  0.00000000e+00  0.00000000e+00  0.00000000e+00  0.00000000e+00
  0.00000000e+00  0.00000000e+00 -4.49563600e-06 -1.63894047e-06
  0.00000000e+00  0.00000000e+00  0.00000000e+00  4.82490773e-06]","[[-0.00056099  0.01907906]
 [-0.00046549 -0.00532099]]",[],0.0,0.0
1787561460.0929592,1.752655313732167,1.3659765648521691,2.139521425373002,"[ 3.30049539e-05  2.36075476e-07  0.00000000e+00  0.00000000e+00
  0.00000000e+00 -4.49563600e-06  2.36075476e-07  2.50082201e-05
  0.00000000e+00  0.00000000e+00  0.00000000e+00 -1.63894047e-06
  0.00000000e+00  0.00000000e+00  0.00000000e+00  0.00000000e+00
  0.00000000e+00  0.00000000e+00  0.00000000e+00  0.00000000e+00
  0.00000000e+00  0.00000000e+00  0.00000000e+00  0.00000000e+00
  0.00000000e+00  0.00000000e+00  0.00000000e+00  0.00000000e+00
  0.00000000e+00  0.00000000e+00 -4.49563600e-06 -1.63894047e-06
  0.00000000e+00  0.00000000e+00  0.00000000e+00  4.82490773e-06]","[[-0.00056099  0.01907906]
 [-0.00046549 -0.00532099]]",[],0.0,0.0
1787561460.1420681,1.752655313732167,1.3659765648521691,2.139521425373002,"[ 3.30049539e-05  2.36075476e-07  0.00000000e+00  0.00000000e+00
  0.00000000e+00 -4.49563600e-06  2.36075476e-07  2.50082201e-05
  0.00000000e+00  0.00000000e+00  0.00000000e+00 -1.63894047e-06
  0.00000000e+00  0.00000000e+00  0.00000000e+00  0.00000000e+00
  0.00000000e+00  0.00000000e+00  0.00000000e+00  0.00000000e+00
  0.00000000e+00  0.00000000e+00  0.00000000e+00  0.00000000e+00
  0.00000000e+00  0.00000000e+00  0.00000000e+00  0.00000000e+00
  0.00000000e+00  0.00000000e+00 -4.49563600e-06 -1.63894047e-06
  0.00000000e+00  0.00000000e+00  0.00000000e+00  4.82490773e-06]","[[-0.00056099  0.01907906]
 [-0.00046549 -0.00532099]]",[],0.0,0.0
1787561460.1931155,1.752655313732167,1.3659765648521691,2.139521425373002,"[ 3.30049539e-05  2.36075476e-07  0.00000000e+00  0.00000000e+00
  0.00000000e+00 -4.49563600e-06  2.36075476e-07  2.50082201e-05
  0.00000000e+00  0.00000000e+00  0.00000000e+00 -1.63894047e-06
  0.00000000e+00  0.00000000e+00  0.00000000e+00  0.00000000e+00
  0.00000000e+00  0.00000000e+00  0.00000000e+00  0.00000000e+00
  0.00000000e+00  0.00000000e+00  0.00000000e+00  0.00000000e+00
  0.00000000e+00  0.00000000e+00  0.00000000e+00  0.00000000e+00
  0.00000000e+00  0.00000000e+00 -4.49563600e-06 -1.63894047e-06
  0.00000000e+00  0.00000000e+00  0.00000000e+00  4.82490773e-06]","[[-0.00056099  0.01907906]
 [-0.00046549 -0.00532099]]",[],0.0,0.0
1787561460.2444892,1.752655313732167,1.3659765648521691,2.139521425373002,"[ 3.30049539e-05  2.36075476e-07  0.00000000e+00  0.00000000e+00
  0.00000000e+00 -4.49563600e-06  2.36075476e-07  2.50082201e-05
  0.00000000e+00  0.00000000e+00  0.00000000e+00 -1.63894047e-06
  0.00000000e+00  0.00000000e+00  0.00000000e+00  0.00000000e+00
  0.00000000e+00  0.00000000e+00  0.00000000e+00  0.00000000e+00
  0.00000000e+00  0.00000000e+00  0.00000000e+00  0.00000000e+00
  0.00000000e+00  0.00000000e+00  0.00000000e+00  0.00000000e+00
  0.00000000e+00  0.00000000e+00 -4.49563600e-06 -1.63894047e-06
  0.00000000e+00  0.00000000e+00  0.00000000e+00  4.82490773e-06]","[[-0.00056099  0.01907906]
 [-0.00046549 -0.00532099]]",[],0.0,0.0
1787561460.2939568,1.752655313732167,1.3659765648521691,2.139521425373002,"[ 3.30049539e-05  2.36075476e-07  0.00000000e+00  0.00000000e+00
  0.00000000e+00 -4.49563600e-06  2.36075476e-07  2.50082201e-05
  0.00000000e+00  0.00000000e+00  0.00000000e+00 -1.63894047e-06
  0.00000000e+00  0.00000000e+00  0.00000000e+00  0.00000000e+00
  0.00000000e+00  0.00000000e+00  0.00000000e+00  0.00000000e+00
  0.00000000e+00  0.00000000e+00  0.00000000e+00  0.00000000e+00
  0.00000000e+00  0.00000000e+00  0.00000000e+00  0.00000000e+00
  0.00000000e+00  0.00000000e+00 -4.49563600e-06 -1.63894047e-06
  0.00000000e+00  0.00000000e+00  0.00000000e+00  4.82490773e-06]","[[-0.00056099  0.01907906]
 [-0.00046549 -0.00532099]]",[],0.0,0.0
1787561460.3426552,1.752655313732167,1.3659765648521691,2.139521425373002,"[ 3.30049539e-05  2.36075476e-07  0.00000000e+00  0.00000000e+00
  0.00000000e+00 -4.49563600e-06  2.36075476e-07  2.50082201e-05
  0.00000000e+00  0.00000000e+00  0.00000000e+00 -1.63894047e-06
  0.00000000e+00  0.00000000e+00  0.00000000e+00  0.00000000e+00
  0.00000000e+00  0.00000000e+00  0.00000000e+00  0.00000000e+00
  0.00000000e+00  0.00000000e+00  0.00000000e+00  0.00000000e+00
  0.00000000e+00  0.00000000e+00  0.00000000e+00  0.00000000e+00
  0.00000000e+00  0.00000000e+00 -4.49563600e-06 -1.63894047e-06
  0.00000000e+00  0.00000000e+00  0.00000000e+00  4.82490773e-06]","[[-0.00056099  0.01907906]
 [-0.00046549 -0.00532099]]",[],0.0,0.0
1787561460.3928351,1.752655313732167,1.3659765648521691,2.139521425373002,"[ 3.30049539e-05  2.36075476e-07  0.00000000e+00  0.00000000e+00
  0.00000000e+00 -4.49563600e-06  2.36075476e-07  2.50082201e-05
  0.00000000e+00  0.00000000e+00  0.00000000e+00 -1.63894047e-06
  0.00000000e+00  0.00000000e+00  0.00000000e+00  0.00000000e+00
  0.00000000e+00  0.00000000e+00  0.00000000e+00  0.00000000e+00
  0.00000000e+00  0.00000000e+00  0.00000000e+00  0.00000000e+00
  0.00000000e+00  0.00000000e+00  0.00000000e+00  0.00000000e+00
  0.00000000e+00  0.00000000e+00 -4.49563600e-06 -1.63894047e-06
  0.00000000e+00  0.00000000e+00  0.00000000e+00  4.82490773e-06]","[[-0.00056099  0.01907906]
 [-0.00046549 -0.00532099]]",[],0.0,0.0
1787561460.4424539,1.752655313732167,1.3659765648521691,2.139521425373002,"[ 3.30049539e-05  2.36075476e-07  0.00000000e+00  0.00000000e+00
  0.00000000e+00 -4.49563600e-06  2.36075476e-07  2.50082201e-05
  0.00000000e+00  0.00000000e+00  0.00000000e+00 -1.63894047e-06
  0.00000000e+00  0.00000000e+00  0.00000000e+00  0.00000000e+00
  0.00000000e+00  0.00000000e+00  0.00000000e+00  0.00000000e+00
  0.00000000e+00  0.00000000e+00  0.00000000e+00  0.00000000e+00
  0.00000000e+00  0.00000000e+00  0.00000000e+00  0.00000000e+00
  0.00000000e+00  0.00000000e+00 -4.49563600e-06 -1.63894047e-06
  0.00000000e+00  0.00000000e+00  0.00000000e+00  4.82490773e-06]","[[-0.00056099  0.01907906]
 [-0.00046549 -0.00532099]]",[],0.0,0.0
1787561460.494792,1.752655313732167,1.3659765648521691,2.139521425373002,"[ 3.30049539e-05  2.36075476e-07  0.00000000e+00  0.00000000e+00
  0.00000000e+00 -4.49563600e-06  2.36075476e-07  2.50082201e-05
  0.00000000e+00  0.00000000e+00  0.00000000e+00 -1.63894047e-06
  0.00000000e+00  0.00000000e+00  0.00000000e+00  0.00000000e+00
  0.00000000e+00  0.00000000e+00  0.00000000e+00  0.00000000e+00
  0.00000000e+00  0.00000000e+00  0.00000000e+00  0.00000000e+00
  0.00000000e+00  0.00000000e+00  0.00000000e+00  0.00000000e+00
  0.00000000e+00  0.00000000e+00 -4.49563600e-06 -1.63894047e-06
  0.00000000e+00  0.00000000e+00  0.00000000e+00  4.82490773e-06]","[[-0.00056099  0.01907906]
 [-0.00046549 -0.00532099]]",[],0.0,0.0
1787561460.5420976,1.7872894633953986,1.3416275230143493,2.220399175975567,"[ 2.22420213e-05  2.88566549e-08  0.00000000e+00  0.00000000e+00
  0.00000000e+00 -2.68873120e-06  2.88566549e-08  1.66079933e-05
  0.00000000e+00  0.00000000e+00  0.00000000e+00 -1.05526034e-06
  0.00000000e+00  0.00000000e+00  0.00000000e+00  0.00000000e+00
  0.00000000e+00  0.00000000e+00  0.00000000e+00  0.00000000e+00
  0.00000000e+00  0.00000000e+00  0.00000000e+00  0.00000000e+00
  0.00000000e+00  0.00000000e+00  0.00000000e+00  0.00000000e+00
  0.00000000e+00  0.00000000e+00 -2.68873120e-06 -1.05526034e-06
  0.00000000e+00  0.00000000e+00  0.00000000e+00  4.41161292e-06]","[[-0.00037296  0.01235191]
 [-0.0003088  -0.00357423]]",[],0.0,0.0
1787561460.592957,1.7872894633953986,1.3416275230143493,2.220399175975567,"[ 2.22420213e-05  2.88566549e-08  0.00000000e+00  0.00000000e+00
  0.00000000e+00 -2.68873120e-06  2.88566549e-08  1.66079933e-05
  0.00000000e+00  0.00000000e+00  0.00000000e+00 -1.05526034e-06
  0.00000000e+00  0.00000000e+00  0.00000000e+00  0.00000000e+00
  0.00000000e+00  0.00000000e+00  0.00000000e+00  0.00000000e+00
  0.00000000e+00  0.00000000e+00  0.00000000e+00  0.00000000e+00
  0.00000000e+00  0.00000000e+00  0.00000000e+00  0.00000000e+00
  0.00000000e+00  0.00000000e+00 -2.68873120e-06 -1.05526034e-06
  0.00000000e+00  0.00000000e+00  0.00000000e+00  4.41161292e-06]","[[-0.00037296  0.01235191]
 [-0.0003088  -0.00357423]]",[],0.0,0.0
1787561460.6421182,1.7872894633953986,1.3416275230143493,2.220399175975567,"[ 2.22420213e-05  2.88566549e-08  0.00000000e+00  0.00000000e+00
  0.00000000e+00 -2.68873120e-06  2.88566549e-08  1.66079933e-05
  0.00000000e+00  0.00000000e+00  0.00000000e+00 -1.05526034e-06
  0.00000000e+00  0.00000000e+00  0.00000000e+00  0.00000000e+00
  0.00000000e+00  0.00000000e+00  0.00000000e+00  0.00000000e+00
  0.00000000e+00  0.00000000e+00  0.00000000e+00  0.00000000e+00
  0.00000000e+00  0.00000000e+00  0.00000000e+00  0.00000000e+00
  0.00000000e+00  0.00000000e+00 -2.68873120e-06 -1.05526034e-06
  0.00000000e+00  0.00000000e+00  0.00000000e+00  4.41161292e-06]","[[-0.00037296  0.01235191]
 [-0.0003088  -0.00357423]]",[],0.0,0.0
1787561460.6933804,1.7872894633953986,1.3416275230143493,2.220399175975567,"[ 2.22420213e-05  2.88566549e-08  0.00000000e+00  0.00000000e+00
  0.00000000e+00 -2.68873120e-06  2.88566549e-08  1.66079933e-05
  0.00000000e+00  0.00000000e+00  0.00000000e+00 -1.05526034e-06
  0.00000000e+00  0.00000000e+00  0.00000000e+00  0.00000000e+00
  0.00000000e+00  0.00000000e+00  0.00000000e+00  0.00000000e+00
  0.00000000e+00  0.00000000e+00  0.00000000e+00  0.00000000e+00
  0.00000000e+00  0.00000000e+00  0.00000000e+00  0.00000000e+00
  0.00000000e+00  0.00000000e+00 -2.68873120e-06 -1.05526034e-06
  0.00000000e+00  0.00000000e+00  0.00000000e+00  4.41161292e-06]","[[-0.00037296  0.01235191]
 [-0.0003088  -0.00357423]]",[],0.0,0.0
1787561460.747698,1.7872894633953986,1.3416275230143493,2.220399175975567,"[ 2.22420213e-05  2.88566549e-08  0.00000000e+00  0.00000000e+00
  0.00000000e+00 -2.68873120e-06  2.88566549e-08  1.66079933e-05
  0.00000000e+00  0.00000000e+00  0.00000000e+00 -1.05526034e-06
  0.00000000e+00  0.00000000e+00  0.00000000e+00  0.00000000e+00
  0.00000000e+00  0.00000000e+00  0.00000000e+00  0.00000000e+00
  0.00000000e+00  0.00000000e+00  0.00000000e+00  0.00000000e+00
  0.00000000e+00  0.00000000e+00  0.00000000e+00  0.00000000e+00
  0.00000000e+00  0.00000000e+00 -2.68873120e-06 -1.05526034e-06
  0.00000000e+00  0.00000000e+00  0.00000000e+00  4.41161292e-06]","[[-0.00037296  0.01235191]
 [-0.0003088  -0.00357423]]",[],0.0,0.0
1787561460.7957447,1.7872894633953986,1.3416275230143493,2.220399175975567,"[ 2.22420213e-05  2.88566549e-08  0.00000000e+00  0.00000000e+00
  0.00000000e+00 -2.68873120e-06  2.88566549e-08  1.66079933e-05
  0.00000000e+00  0.00000000e+00  0.00000000e+00 -1.05526034e-06
  0.00000000e+00  0.00000000e+00  0.00000000e+00  0.00000000e+00
  0.00000000e+00  0.00000000e+00  0.00000000e+00  0.00000000e+00
  0.00000000e+00  0.00000000e+00  0.00000000e+00  0.00000000e+00
  0.00000000e+00  0.00000000e+00  0.00000000e+00  0.00000000e+00
  0.00000000e+00  0.00000000e+00 -2.68873120e-06 -1.05526034e-06
  0.00000000e+00  0.00000000e+00  0.00000000e+00  4.41161292e-06]","[[-0.00037296  0.01235191]
 [-0.0003088  -0.00357423]]",[],0.0,0.0
1787561460.844479,1.7872894633953986,1.3416275230143493,2.220399175975567,"[ 2.22420213e-05  2.88566549e-08  0.00000000e+00  0.00000000e+00
  0.00000000e+00 -2.68873120e-06  2.88566549e-08  1.66079933e-05
  0.00000000e+00  0.00000000e+00  0.00000000e+00 -1.05526034e-06
  0.00000000e+00  0.00000000e+00  0.00000000e+00  0.00000000e+00
  0.00000000e+00  0.00000000e+00  0.00000000e+00  0.00000000e+00
  0.00000000e+00  0.00000000e+00  0.00000000e+00  0.00000000e+00
  0.00000000e+00  0.00000000e+00  0.00000000e+00  0.00000000e+00
  0.00000000e+00  0.00000000e+00 -2.68873120e-06 -1.05526034e-06
  0.00000000e+00  0.00000000e+00  0.00000000e+00  4.41161292e-06]","[[-0.00037296  0.01235191]
 [-0.0003088  -0.00357423]]",[],0.0,0.0
1787561460.8925145,1.7872894633953986,1.3416275230143493,2.220399175975567,"[ 2.22420213e-05  2.88566549e-08  0.00000000e+00  0.00000000e+00
  0.00000000e+00 -2.68873120e-06  2.88566549e-08  1.66079933e-05
  0.00000000e+00  0.00000000e+00  0.00000000e+00 -1.05526034e-06
  0.00000000e+00  0.00000000e+00  0.00000000e+00  0.00000000e+00
  0.00000000e+00  0.00000000e+00  0.00000000e+00  0.00000000e+00
  0.00000000e+00  0.00000000e+00  0.00000000e+00  0.00000000e+00
  0.00000000e+00  0.00000000e+00  0.00000000e+00  0.00000000e+00
  0.00000000e+00  0.00000000e+00 -2.68873120e-06 -1.05526034e-06
  0.00000000e+00  0.00000000e+00  0.00000000e+00  4.41161292e-06]","[[-0.00037296  0.01235191]
 [-0.0003088  -0.00357423]]",[],0.0,0.0
1787561460.943065,1.7872894633953986,1.3416275230143493,2.220399175975567,"[ 2.22420213e-05  2.88566549e-08  0.00000000e+00  0.00000000e+00
  0.00000000e+00 -2.68873120e-06  2.88566549e-08  1.66079933e-05
  0.00000000e+00  0.00000000e+00  0.00000000e+00 -1.05526034e-06
  0.00000000e+00  0.00000000e+00  0.00000000e+00  0.00000000e+00
  0.00000000e+00  0.00000000e+00  0.00000000e+00  0.00000000e+00
  0.00000000e+00  0.00000000e+00  0.00000000e+00  0.00000000e+00
  0.00000000e+00  0.00000000e+00  0.00000000e+00  0.00000000e+00
  0.00000000e+00  0.00000000e+00 -2.68873120e-06 -1.05526034e-06
  0.00000000e+00  0.00000000e+00  0.00000000e+00  4.41161292e-06]","[[-0.00037296  0.01235191]
 [-0.0003088  -0.00357423]]",[],0.0,0.0
1787561461.0007043,1.7872894633953986,1.3416275230143493,2.220399175975567,"[ 2.22420213e-05  2.88566549e-08  0.00000000e+00  0.00000000e+00
  0.00000000e+00 -2.68873120e-06  2.88566549e-08  1.66079933e-05
  0.00000000e+00  0.00000000e+00  0.00000000e+00 -1.05526034e-06
  0.00000000e+00  0.00000000e+00  0.00000000e+00  0.00000000e+00
  0.00000000e+00  0.00000000e+00  0.00000000e+00  0.00000000e+00
  0.00000000e+00  0.00000000e+00  0.00000000e+00  0.00000000e+00
  0.00000000e+00  0.00000000e+00  0.00000000e+00  0.00000000e+00
  0.00000000e+00  0.00000000e+00 -2.68873120e-06 -1.05526034e-06
  0.00000000e+00  0.00000000e+00  0.00000000e+00  4.41161292e-06]","[[-0.00037296  0.01235191]
 [-0.0003088  -0.00357423]]",[],0.0,0.0
1787561461.0440292,1.7872894633953986,1.3416275230143493,2.220399175975567,"[ 2.22420213e-05  2.88566549e-08  0.00000000e+00  0.00000000e+00
  0.00000000e+00 -2.68873120e-06  2.88566549e-08  1.66079933e-05
  0.00000000e+00  0.00000000e+00  0.00000000e+00 -1.05526034e-06
  0.00000000e+00  0.00000000e+00  0.00000000e+00  0.00000000e+00
  0.00000000e+00  0.00000000e+00  0.00000000e+00  0.00000000e+00
  0.00000000e+00  0.00000000e+00  0.00000000e+00  0.00000000e+00
  0.00000000e+00  0.00000000e+00  0.00000000e+00  0.00000000e+00
  0.00000000e+00  0.00000000e+00 -2.68873120e-06 -1.05526034e-06
  0.00000000e+00  0.00000000e+00  0.00000000e+00  4.41161292e-06]","[[-0.00037296  0.01235191]
 [-0.0003088  -0.00357423]]",[],0.0,0.0
1787561461.092625,1.7872894633953986,1.3416275230143493,2.220399175975567,"[ 2.22420213e-05  2.88566549e-08  0.00000000e+00  0.00000000e+00
  0.00000000e+00 -2.68873120e-06  2.88566549e-08  1.66079933e-05
  0.00000000e+00  0.00000000e+00  0.00000000e+00 -1.05526034e-06
  0.00000000e+00  0.00000000e+00  0.00000000e+00  0.00000000e+00
  0.00000000e+00  0.00000000e+00  0.00000000e+00  0.00000000e+00
  0.00000000e+00  0.00000000e+00  0.00000000e+00  0.00000000e+00
  0.00000000e+00  0.00000000e+00  0.00000000e+00  0.00000000e+00
  0.00000000e+00  0.00000000e+00 -2.68873120e-06 -1.05526034e-06
  0.00000000e+00  0.00000000e+00  0.00000000e+00  4.41161292e-06]","[[-0.00037296  0.01235191]
 [-0.0003088  -0.00357423]]",[],0.0,0.0
1787561461.1526272,1.7872894633953986,1.3416275230143493,2.220399175975567,"[ 2.22420213e-05  2.88566549e-08  0.00000000e+00  0.00000000e+00
  0.00000000e+00 -2.68873120e-06  2.88566549e-08  1.66079933e-05
  0.00000000e+00  0.00000000e+00  0.00000000e+00 -1.05526034e-06
  0.00000000e+00  0.00000000e+00  0.00000000e+00  0.00000000e+00
  0.00000000e+00  0.00000000e+00  0.00000000e+00  0.00000000e+00
  0.00000000e+00  0.00000000e+00  0.00000000e+00  0.00000000e+00
  0.00000000e+00  0.00000000e+00  0.00000000e+00  0.00000000e+00
  0.00000000e+00  0.00000000e+00 -2.68873120e-06 -1.05526034e-06
  0.00000000e+00  0.00000000e+00  0.00000000e+00  4.41161292e-06]","[[-0.00037296  0.01235191]
 [-0.0003088  -0.00357423]]",[],0.0,0.0
1787561461.1965723,1.7872894633953986,1.3416275230143493,2.220399175975567,"[ 2.22420213e-05  2.88566549e-08  0.00000000e+00  0.00000000e+00
  0.00000000e+00 -2.68873120e-06  2.88566549e-08  1.66079933e-05
  0.00000000e+00  0.00000000e+00  0.00000000e+00 -1.05526034e-06
  0.00000000e+00  0.00000000e+00  0.00000000e+00  0.00000000e+00
  0.00000000e+00  0.00000000e+00  0.00000000e+00  0.00000000e+00
  0.00000000e+00  0.00000000e+00  0.00000000e+00  0.00000000e+00
  0.00000000e+00  0.00000000e+00  0.00000000e+00  0.00000000e+00
  0.00000000e+00  0.00000000e+00 -2.68873120e-06 -1.05526034e-06
  0.00000000e+00  0.00000000e+00  0.00000000e+00  4.41161292e-06]","[[-0.00037296  0.01235191]
 [-0.0003088  -0.00357423]]",[],0.0,0.0
1787561461.2457256,1.7872894633953986,1.3416275230143493,2.220399175975567,"[ 2.22420213e-05  2.88566549e-08  0.00000000e+00  0.00000000e+00
  0.00000000e+00 -2.68873120e-06  2.88566549e-08  1.66079933e-05
  0.00000000e+00  0.00000000e+00  0.00000000e+00 -1.05526034e-06
  0.00000000e+00  0.00000000e+00  0.00000000e+00  0.00000000e+00
  0.00000000e+00  0.00000000e+00  0.00000000e+00  0.00000000e+00
  0.00000000e+00  0.00000000e+00  0.00000000e+00  0.00000000e+00
  0.00000000e+00  0.00000000e+00  0.00000000e+00  0.00000000e+00
  0.00000000e+00  0.00000000e+00 -2.68873120e-06 -1.05526034e-06
  0.00000000e+00  0.00000000e+00  0.00000000e+00  4.41161292e-06]","[[-0.00037296  0.01235191]
 [-0.0003088  -0.00357423]]",[],0.0,0.0
1787561461.2919989,1.7872894633953986,1.3416275230143493,2.220399175975567,"[ 2.22420213e-05  2.88566549e-08  0.00000000e+00  0.00000000e+00
  0.00000000e+00 -2.68873120e-06  2.88566549e-08  1.66079933e-05
  0.00000000e+00  0.00000000e+00  0.00000000e+00 -1.05526034e-06
  0.00000000e+00  0.00000000e+00  0.00000000e+00  0.00000000e+00
  0.00000000e+00  0.00000000e+00  0.00000000e+00  0.00000000e+00
  0.00000000e+00  0.00000000e+00  0.00000000e+00  0.00000000e+00
  0.00000000e+00  0.00000000e+00  0.00000000e+00  0.00000000e+00
  0.00000000e+00  0.00000000e+00 -2.68873120e-06 -1.05526034e-06
  0.00000000e+00  0.00000000e+00  0.00000000e+00  4.41161292e-06]","[[-0.00037296  0.01235191]
 [-0.0003088  -0.00357423]]",[],0.0,0.0
1787561461.3489442,1.7872894633953986,1.3416275230143493,2.220399175975567,"[ 2.22420213e-05  2.88566549e-08  0.00000000e+00  0.00000000e+00
  0.00000000e+00 -2.68873120e-06  2.88566549e-08  1.66079933e-05
  0.00000000e+00  0.00000000e+00  0.00000000e+00 -1.05526034e-06
  0.00000000e+00  0.00000000e+00  0.00000000e+00  0.00000000e+00
  0.00000000e+00  0.00000000e+00  0.00000000e+00  0.00000000e+00
  0.00000000e+00  0.00000000e+00  0.00000000e+00  0.00000000e+00
  0.00000000e+00  0.00000000e+00  0.00000000e+00  0.00000000e+00
  0.00000000e+00  0.00000000e+00 -2.68873120e-06 -1.05526034e-06
  0.00000000e+00  0.00000000e+00  0.00000000e+00  4.41161292e-06]","[[-0.00037296  0.01235191]
 [-0.0003088  -0.00357423]]",[],0.0,0.0
1787561461.3934486,1.7872894633953986,1.3416275230143493,2.220399175975567,"[ 2.22420213e-05  2.88566549e-08  0.00000000e+00  0.00000000e+00
  0.00000000e+00 -2.68873120e-06  2.88566549e-08  1.66079933e-05
  0.00000000e+00  0.00000000e+00  0.00000000e+00 -1.05526034e-06
  0.00000000e+00  0.00000000e+00  0.00000000e+00  0.00000000e+00
  0.00000000e+00  0.00000000e+00  0.00000000e+00  0.00000000e+00
  0.00000000e+00  0.00000000e+00  0.00000000e+00  0.00000000e+00
  0.00000000e+00  0.00000000e+00  0.00000000e+00  0.00000000e+00
  0.00000000e+00  0.00000000e+00 -2.68873120e-06 -1.05526034e-06
  0.00000000e+00  0.00000000e+00  0.00000000e+00  4.41161292e-06]","[[-0.00037296  0.01235191]
 [-0.0003088  -0.00357423]]",[],0.0,0.0
1787561461.4495885,1.7872894633953986,1.3416275230143493,2.220399175975567,"[ 2.22420213e-05  2.88566549e-08  0.00000000e+00  0.00000000e+00
  0.00000000e+00 -2.68873120e-06  2.88566549e-08  1.66079933e-05
  0.00000000e+00  0.00000000e+00  0.00000000e+00 -1.05526034e-06
  0.00000000e+00  0.00000000e+00  0.00000000e+00  0.00000000e+00
  0.00000000e+00  0.00000000e+00  0.00000000e+00  0.00000000e+00
  0.00000000e+00  0.00000000e+00  0.00000000e+00  0.00000000e+00
  0.00000000e+00  0.00000000e+00  0.00000000e+00  0.00000000e+00
  0.00000000e+00  0.00000000e+00 -2.68873120e-06 -1.05526034e-06
  0.00000000e+00  0.00000000e+00  0.00000000e+00  4.41161292e-06]","[[-0.00037296  0.01235191]
 [-0.0003088  -0.00357423]]",[],0.0,0.0
1787561461.508678,1.7872894633953986,1.3416275230143493,2.220399175975567,"[ 2.22420213e-05  2.88566549e-08  0.00000000e+00  0.00000000e+00
  0.00000000e+00 -2.68873120e-06  2.88566549e-08  1.66079933e-05
  0.00000000e+00  0.00000000e+00  0.00000000e+00 -1.05526034e-06
  0.00000000e+00  0.00000000e+00  0.00000000e+00  0.00000000e+00
  0.00000000e+00  0.00000000e+00  0.00000000e+00  0.00000000e+00
  0.00000000e+00  0.00000000e+00  0.00000000e+00  0.00000000e+00
  0.00000000e+00  0.00000000e+00  0.00000000e+00  0.00000000e+00
  0.00000000e+00  0.00000000e+00 -2.68873120e-06 -1.05526034e-06
  0.00000000e+00  0.00000000e+00  0.00000000e+00  4.41161292e-06]","[[-0.00037296  0.01235191]
 [-0.0003088  -0.00357423]]",[],0.0,0.0
1787561461.5427306,1.7872894633953986,1.3416275230143493,2.220399175975567,"[ 2.22420213e-05  2.88566549e-08  0.00000000e+00  0.00000000e+00
  0.00000000e+00 -2.68873120e-06  2.88566549e-08  1.66079933e-05
  0.00000000e+00  0.00000000e+00  0.00000000e+00 -1.05526034e-06
  0.00000000e+00  0.00000000e+00  0.00000000e+00  0.00000000e+00
  0.00000000e+00  0.00000000e+00  0.00000000e+00  0.00000000e+00
  0.00000000e+00  0.00000000e+00  0.00000000e+00  0.00000000e+00
  0.00000000e+00  0.00000000e+00  0.00000000e+00  0.00000000e+00
  0.00000000e+00  0.00000000e+00 -2.68873120e-06 -1.05526034e-06
  0.00000000e+00  0.00000000e+00  0.00000000e+00  4.41161292e-06]","[[-0.00037296  0.01235191]
 [-0.0003088  -0.00357423]]",[],0.0,0.0
1787561461.6047983,1.7872894633953986,1.3416275230143493,2.220399175975567,"[ 2.22420213e-05  2.88566549e-08  0.00000000e+00  0.00000000e+00
  0.00000000e+00 -2.68873120e-06  2.88566549e-08  1.66079933e-05
  0.00000000e+00  0.00000000e+00  0.00000000e+00 -1.05526034e-06
  0.00000000e+00  0.00000000e+00  0.00000000e+00  0.00000000e+00
  0.00000000e+00  0.00000000e+00  0.00000000e+00  0.00000000e+00
  0.00000000e+00  0.00000000e+00  0.00000000e+00  0.00000000e+00
  0.00000000e+00  0.00000000e+00  0.00000000e+00  0.00000000e+00
  0.00000000e+00  0.00000000e+00 -2.68873120e-06 -1.05526034e-06
  0.00000000e+00  0.00000000e+00  0.00000000e+00  4.41161292e-06]","[[-0.00037296  0.01235191]
 [-0.0003088  -0.00357423]]",[],0.0,0.0
1787561461.642499,1.7872894633953986,1.3416275230143493,2.220399175975567,"[ 2.22420213e-05  2.88566549e-08  0.00000000e+00  0.00000000e+00
  0.00000000e+00 -2.68873120e-06  2.88566549e-08  1.66079933e-05
  0.00000000e+00  0.00000000e+00  0.00000000e+00 -1.05526034e-06
  0.00000000e+00  0.00000000e+00  0.00000000e+00  0.00000000e+00
  0.00000000e+00  0.00000000e+00  0.00000000e+00  0.00000000e+00
  0.00000000e+00  0.00000000e+00  0.00000000e+00  0.00000000e+00
  0.00000000e+00  0.00000000e+00  0.00000000e+00  0.00000000e+00
  0.00000000e+00  0.00000000e+00 -2.68873120e-06 -1.05526034e-06
  0.00000000e+00  0.00000000e+00  0.00000000e+00  4.41161292e-06]","[[-0.00037296  0.01235191]
 [-0.0003088  -0.00357423]]",[],0.0,0.0
1787561461.692422,1.7872894633953986,1.3416275230143493,2.220399175975567,"[ 2.22420213e-05  2.88566549e-08  0.00000000e+00  0.00000000e+00
  0.00000000e+00 -2.68873120e-06  2.88566549e-08  1.66079933e-05
  0.00000000e+00  0.00000000e+00  0.00000000e+00 -1.05526034e-06
  0.00000000e+00  0.00000000e+00  0.00000000e+00  0.00000000e+00
  0.00000000e+00  0.00000000e+00  0.00000000e+00  0.00000000e+00
  0.00000000e+00  0.00000000e+00  0.00000000e+00  0.00000000e+00
  0.00000000e+00  0.00000000e+00  0.00000000e+00  0.00000000e+00
  0.00000000e+00  0.00000000e+00 -2.68873120e-06 -1.05526034e-06
  0.00000000e+00  0.00000000e+00  0.00000000e+00  4.41161292e-06]","[[-0.00037296  0.01235191]
 [-0.0003088  -0.00357423]]",[],0.0,0.0
1787561461.7432065,1.7872894633953986,1.3416275230143493,2.220399175975567,"[ 2.22420213e-05  2.88566549e-08  0.00000000e+00  0.00000000e+00
  0.00000000e+00 -2.68873120e-06  2.88566549e-08  1.66079933e-05
  0.00000000e+00  0.00000000e+00  0.00000000e+00 -1.05526034e-06
  0.00000000e+00  0.00000000e+00  0.00000000e+00  0.00000000e+00
  0.00000000e+00  0.00000000e+00  0.00000000e+00  0.00000000e+00
  0.00000000e+00  0.00000000e+00  0.00000000e+00  0.00000000e+00
  0.00000000e+00  0.00000000e+00  0.00000000e+00  0.00000000e+00
  0.00000000e+00  0.00000000e+00 -2.68873120e-06 -1.05526034e-06
  0.00000000e+00  0.00000000e+00  0.00000000e+00  4.41161292e-06]","[[-0.00037296  0.01235191]
 [-0.0003088  -0.00357423]]",[],0.0,0.0
1787561461.7927554,1.7872894633953986,1.3416275230143493,2.220399175975567,"[ 2.22420213e-05  2.88566549e-08  0.00000000e+00  0.00000000e+00
  0.00000000e+00 -2.68873120e-06  2.88566549e-08  1.66079933e-05
  0.00000000e+00  0.00000000e+00  0.00000000e+00 -1.05526034e-06
  0.00000000e+00  0.00000000e+00  0.00000000e+00  0.00000000e+00
  0.00000000e+00  0.00000000e+00  0.00000000e+00  0.00000000e+00
  0.00000000e+00  0.00000000e+00  0.00000000e+00  0.00000000e+00
  0.00000000e+00  0.00000000e+00  0.00000000e+00  0.00000000e+00
  0.00000000e+00  0.00000000e+00 -2.68873120e-06 -1.05526034e-06
  0.00000000e+00  0.00000000e+00  0.00000000e+00  4.41161292e-06]","[[-0.00037296  0.01235191]
 [-0.0003088  -0.00357423]]",[],0.0,0.0
1787561461.8441992,1.7872894633953986,1.3416275230143493,2.220399175975567,"[ 2.22420213e-05  2.88566549e-08  0.00000000e+00  0.00000000e+00
  0.00000000e+00 -2.68873120e-06  2.88566549e-08  1.66079933e-05
  0.00000000e+00  0.00000000e+00  0.00000000e+00 -1.05526034e-06
  0.00000000e+00  0.00000000e+00  0.00000000e+00  0.00000000e+00
  0.00000000e+00  0.00000000e+00  0.00000000e+00  0.00000000e+00
  0.00000000e+00  0.00000000e+00  0.00000000e+00  0.00000000e+00
  0.00000000e+00  0.00000000e+00  0.00000000e+00  0.00000000e+00
  0.00000000e+00  0.00000000e+00 -2.68873120e-06 -1.05526034e-06
  0.00000000e+00  0.00000000e+00  0.00000000e+00  4.41161292e-06]","[[-0.00037296  0.01235191]
 [-0.0003088  -0.00357423]]",[],0.0,0.0
1787561461.8944652,1.7872894633953986,1.3416275230143493,2.220399175975567,"[ 2.22420213e-05  2.88566549e-08  0.00000000e+00  0.00000000e+00
  0.00000000e+00 -2.68873120e-06  2.88566549e-08  1.66079933e-05
  0.00000000e+00  0.00000000e+00  0.00000000e+00 -1.05526034e-06
  0.00000000e+00  0.00000000e+00  0.00000000e+00  0.00000000e+00
  0.00000000e+00  0.00000000e+00  0.00000000e+00  0.00000000e+00
  0.00000000e+00  0.00000000e+00  0.00000000e+00  0.00000000e+00
  0.00000000e+00  0.00000000e+00  0.00000000e+00  0.00000000e+00
  0.00000000e+00  0.00000000e+00 -2.68873120e-06 -1.05526034e-06
  0.00000000e+00  0.00000000e+00  0.00000000e+00  4.41161292e-06]","[[-0.00037296  0.01235191]
 [-0.0003088  -0.00357423]]",[],0.0,0.0
1787561461.9424937,1.7872894633953986,1.3416275230143493,2.220399175975567,"[ 2.22420213e-05  2.88566549e-08  0.00000000e+00  0.00000000e+00
  0.00000000e+00 -2.68873120e-06  2.88566549e-08  1.66079933e-05
  0.00000000e+00  0.00000000e+00  0.00000000e+00 -1.05526034e-06
  0.00000000e+00  0.00000000e+00  0.00000000e+00  0.00000000e+00
  0.00000000e+00  0.00000000e+00  0.00000000e+00  0.00000000e+00
  0.00000000e+00  0.00000000e+00  0.00000000e+00  0.00000000e+00
  0.00000000e+00  0.00000000e+00  0.00000000e+00  0.00000000e+00
  0.00000000e+00  0.00000000e+00 -2.68873120e-06 -1.05526034e-06
  0.00000000e+00  0.00000000e+00  0.00000000e+00  4.41161292e-06]","[[-0.00037296  0.01235191]
 [-0.0003088  -0.00357423]]",[],0.0,0.0
1787561461.995359,1.7872894633953986,1.3416275230143493,2.220399175975567,"[ 2.22420213e-05  2.88566549e-08  0.00000000e+00  0.00000000e+00
  0.00000000e+00 -2.68873120e-06  2.88566549e-08  1.66079933e-05
  0.00000000e+00  0.00000000e+00  0.00000000e+00 -1.05526034e-06
  0.00000000e+00  0.00000000e+00  0.00000000e+00  0.00000000e+00
  0.00000000e+00  0.00000000e+00  0.00000000e+00  0.00000000e+00
  0.00000000e+00  0.00000000e+00  0.00000000e+00  0.00000000e+00
  0.00000000e+00  0.00000000e+00  0.00000000e+00  0.00000000e+00
  0.00000000e+00  0.00000000e+00 -2.68873120e-06 -1.05526034e-06
  0.00000000e+00  0.00000000e+00  0.00000000e+00  4.41161292e-06]","[[-0.00037296  0.01235191]
 [-0.0003088  -0.00357423]]",[],0.0,0.0
1787561462.047076,1.8107548252999799,1.3326571985511462,2.3464356882742345,"[ 1.69422057e-05  2.42158112e-08  0.00000000e+00  0.00000000e+00
  0.00000000e+00 -2.00971631e-06  2.42158112e-08  1.28443671e-05
  0.00000000e+00  0.00000000e+00  0.00000000e+00 -1.07998553e-06
  0.00000000e+00  0.00000000e+00  0.00000000e+00  0.00000000e+00
  0.00000000e+00  0.00000000e+00  0.00000000e+00  0.00000000e+00
  0.00000000e+00  0.00000000e+00  0.00000000e+00  0.00000000e+00
  0.00000000e+00  0.00000000e+00  0.00000000e+00  0.00000000e+00
  0.00000000e+00  0.00000000e+00 -2.00971631e-06 -1.07998553e-06
  0.00000000e+00  0.00000000e+00  0.00000000e+00  4.66688548e-06]","[[-0.0002762   0.01397973]
 [-0.00024413 -0.00513558]]",[],0.0,0.0
1787561462.1029801,1.8107548252999799,1.3326571985511462,2.3464356882742345,"[ 1.69422057e-05  2.42158112e-08  0.00000000e+00  0.00000000e+00
  0.00000000e+00 -2.00971631e-06  2.42158112e-08  1.28443671e-05
  0.00000000e+00  0.00000000e+00  0.00000000e+00 -1.07998553e-06
  0.00000000e+00  0.00000000e+00  0.00000000e+00  0.00000000e+00
  0.00000000e+00  0.00000000e+00  0.00000000e+00  0.00000000e+00
  0.00000000e+00  0.00000000e+00  0.00000000e+00  0.00000000e+00
  0.00000000e+00  0.00000000e+00  0.00000000e+00  0.00000000e+00
  0.00000000e+00  0.00000000e+00 -2.00971631e-06 -1.07998553e-06
  0.00000000e+00  0.00000000e+00  0.00000000e+00  4.66688548e-06]","[[-0.0002762   0.01397973]
 [-0.00024413 -0.00513558]]",[],0.0,0.0
1787561462.1434908,1.8107548252999799,1.3326571985511462,2.3464356882742345,"[ 1.69422057e-05  2.42158112e-08  0.00000000e+00  0.00000000e+00
  0.00000000e+00 -2.00971631e-06  2.42158112e-08  1.28443671e-05
  0.00000000e+00  0.00000000e+00  0.00000000e+00 -1.07998553e-06
  0.00000000e+00  0.00000000e+00  0.00000000e+00  0.00000000e+00
  0.00000000e+00  0.00000000e+00  0.00000000e+00  0.00000000e+00
  0.00000000e+00  0.00000000e+00  0.00000000e+00  0.00000000e+00
  0.00000000e+00  0.00000000e+00  0.00000000e+00  0.00000000e+00
  0.00000000e+00  0.00000000e+00 -2.00971631e-06 -1.07998553e-06
  0.00000000e+00  0.00000000e+00  0.00000000e+00  4.66688548e-06]","[[-0.0002762   0.01397973]
 [-0.00024413 -0.00513558]]",[],0.0,0.0
1787561462.1928213,1.8107548252999799,1.3326571985511462,2.3464356882742345,"[ 1.69422057e-05  2.42158112e-08  0.00000000e+00  0.00000000e+00
  0.00000000e+00 -2.00971631e-06  2.42158112e-08  1.28443671e-05
  0.00000000e+00  0.00000000e+00  0.00000000e+00 -1.07998553e-06
  0.00000000e+00  0.00000000e+00  0.00000000e+00  0.00000000e+00
  0.00000000e+00  0.00000000e+00  0.00000000e+00  0.00000000e+00
  0.00000000e+00  0.00000000e+00  0.00000000e+00  0.00000000e+00
  0.00000000e+00  0.00000000e+00  0.00000000e+00  0.00000000e+00
  0.00000000e+00  0.00000000e+00 -2.00971631e-06 -1.07998553e-06
  0.00000000e+00  0.00000000e+00  0.00000000e+00  4.66688548e-06]","[[-0.0002762   0.01397973]
 [-0.00024413 -0.00513558]]",[],0.0,0.0
1787561462.2440345,1.8107548252999799,1.3326571985511462,2.3464356882742345,"[ 1.69422057e-05  2.42158112e-08  0.00000000e+00  0.00000000e+00
  0.00000000e+00 -2.00971631e-06  2.42158112e-08  1.28443671e-05
  0.00000000e+00  0.00000000e+00  0.00000000e+00 -1.07998553e-06
  0.00000000e+00  0.00000000e+00  0.00000000e+00  0.00000000e+00
  0.00000000e+00  0.00000000e+00  0.00000000e+00  0.00000000e+00
  0.00000000e+00  0.00000000e+00  0.00000000e+00  0.00000000e+00
  0.00000000e+00  0.00000000e+00  0.00000000e+00  0.00000000e+00
  0.00000000e+00  0.00000000e+00 -2.00971631e-06 -1.07998553e-06
  0.00000000e+00  0.00000000e+00  0.00000000e+00  4.66688548e-06]","[[-0.0002762   0.01397973]
 [-0.00024413 -0.00513558]]",[],0.0,0.0
1787561462.294056,1.8107548252999799,1.3326571985511462,2.3464356882742345,"[ 1.69422057e-05  2.42158112e-08  0.00000000e+00  0.00000000e+00
  0.00000000e+00 -2.00971631e-06  2.42158112e-08  1.28443671e-05
  0.00000000e+00  0.00000000e+00  0.00000000e+00 -1.07998553e-06
  0.00000000e+00  0.00000000e+00  0.00000000e+00  0.00000000e+00
  0.00000000e+00  0.00000000e+00  0.00000000e+00  0.00000000e+00
  0.00000000e+00  0.00000000e+00  0.00000000e+00  0.00000000e+00
  0.00000000e+00  0.00000000e+00  0.00000000e+00  0.00000000e+00
  0.00000000e+00  0.00000000e+00 -2.00971631e-06 -1.07998553e-06
  0.00000000e+00  0.00000000e+00  0.00000000e+00  4.66688548e-06]","[[-0.0002762   0.01397973]
 [-0.00024413 -0.00513558]]",[],0.0,0.0
1787561462.3551595,1.8107548252999799,1.3326571985511462,2.3464356882742345,"[ 1.69422057e-05  2.42158112e-08  0.00000000e+00  0.00000000e+00
  0.00000000e+00 -2.00971631e-06  2.42158112e-08  1.28443671e-05
  0.00000000e+00  0.00000000e+00  0.00000000e+00 -1.07998553e-06
  0.00000000e+00  0.00000000e+00  0.00000000e+00  0.00000000e+00
  0.00000000e+00  0.00000000e+00  0.00000000e+00  0.00000000e+00
  0.00000000e+00  0.00000000e+00  0.00000000e+00  0.00000000e+00
  0.00000000e+00  0.00000000e+00  0.00000000e+00  0.00000000e+00
  0.00000000e+00  0.00000000e+00 -2.00971631e-06 -1.07998553e-06
  0.00000000e+00  0.00000000e+00  0.00000000e+00  4.66688548e-06]","[[-0.0002762   0.01397973]
 [-0.00024413 -0.00513558]]",[],0.0,0.0
1787561462.3997188,1.8107548252999799,1.3326571985511462,2.3464356882742345,"[ 1.69422057e-05  2.42158112e-08  0.00000000e+00  0.00000000e+00
  0.00000000e+00 -2.00971631e-06  2.42158112e-08  1.28443671e-05
  0.00000000e+00  0.00000000e+00  0.00000000e+00 -1.07998553e-06
  0.00000000e+00  0.00000000e+00  0.00000000e+00  0.00000000e+00
  0.00000000e+00  0.00000000e+00  0.00000000e+00  0.00000000e+00
  0.00000000e+00  0.00000000e+00  0.00000000e+00  0.00000000e+00
  0.00000000e+00  0.00000000e+00  0.00000000e+00  0.00000000e+00
  0.00000000e+00  0.00000000e+00 -2.00971631e-06 -1.07998553e-06
  0.00000000e+00  0.00000000e+00  0.00000000e+00  4.66688548e-06]","[[-0.0002762   0.01397973]
 [-0.00024413 -0.00513558]]",[],0.0,0.0
1787561462.4426758,1.8107548252999799,1.3326571985511462,2.3464356882742345,"[ 1.69422057e-05  2.42158112e-08  0.00000000e+00  0.00000000e+00
  0.00000000e+00 -2.00971631e-06  2.42158112e-08  1.28443671e-05
  0.00000000e+00  0.00000000e+00  0.00000000e+00 -1.07998553e-06
  0.00000000e+00  0.00000000e+00  0.00000000e+00  0.00000000e+00
  0.00000000e+00  0.00000000e+00  0.00000000e+00  0.00000000e+00
  0.00000000e+00  0.00000000e+00  0.00000000e+00  0.00000000e+00
  0.00000000e+00  0.00000000e+00  0.00000000e+00  0.00000000e+00
  0.00000000e+00  0.00000000e+00 -2.00971631e-06 -1.07998553e-06
  0.00000000e+00  0.00000000e+00  0.00000000e+00  4.66688548e-06]","[[-0.0002762   0.01397973]
 [-0.00024413 -0.00513558]]",[],0.0,0.0
1787561462.492284,1.8107548252999799,1.3326571985511462,2.3464356882742345,"[ 1.69422057e-05  2.42158112e-08  0.00000000e+00  0.00000000e+00
  0.00000000e+00 -2.00971631e-06  2.42158112e-08  1.28443671e-05
  0.00000000e+00  0.00000000e+00  0.00000000e+00 -1.07998553e-06
  0.00000000e+00  0.00000000e+00  0.00000000e+00  0.00000000e+00
  0.00000000e+00  0.00000000e+00  0.00000000e+00  0.00000000e+00
  0.00000000e+00  0.00000000e+00  0.00000000e+00  0.00000000e+00
  0.00000000e+00  0.00000000e+00  0.00000000e+00  0.00000000e+00
  0.00000000e+00  0.00000000e+00 -2.00971631e-06 -1.07998553e-06
  0.00000000e+00  0.00000000e+00  0.00000000e+00  4.66688548e-06]","[[-0.0002762   0.01397973]
 [-0.00024413 -0.00513558]]",[],0.0,0.0
1787561462.546078,1.8107548252999799,1.3326571985511462,2.3464356882742345,"[ 1.69422057e-05  2.42158112e-08  0.00000000e+00  0.00000000e+00
  0.00000000e+00 -2.00971631e-06  2.42158112e-08  1.28443671e-05
  0.00000000e+00  0.00000000e+00  0.00000000e+00 -1.07998553e-06
  0.00000000e+00  0.00000000e+00  0.00000000e+00  0.00000000e+00
  0.00000000e+00  0.00000000e+00  0.00000000e+00  0.00000000e+00
  0.00000000e+00  0.00000000e+00  0.00000000e+00  0.00000000e+00
  0.00000000e+00  0.00000000e+00  0.00000000e+00  0.00000000e+00
  0.00000000e+00  0.00000000e+00 -2.00971631e-06 -1.07998553e-06
  0.00000000e+00  0.00000000e+00  0.00000000e+00  4.66688548e-06]","[[-0.0002762   0.01397973]
 [-0.00024413 -0.00513558]]",[],0.0,0.0
1787561462.592641,1.8107548252999799,1.3326571985511462,2.3464356882742345,"[ 1.69422057e-05  2.42158112e-08  0.00000000e+00  0.00000000e+00
  0.00000000e+00 -2.00971631e-06  2.42158112e-08  1.28443671e-05
  0.00000000e+00  0.00000000e+00  0.00000000e+00 -1.07998553e-06
  0.00000000e+00  0.00000000e+00  0.00000000e+00  0.00000000e+00
  0.00000000e+00  0.00000000e+00  0.00000000e+00  0.00000000e+00
  0.00000000e+00  0.00000000e+00  0.00000000e+00  0.00000000e+00
  0.00000000e+00  0.00000000e+00  0.00000000e+00  0.00000000e+00
  0.00000000e+00  0.00000000e+00 -2.00971631e-06 -1.07998553e-06
  0.00000000e+00  0.00000000e+00  0.00000000e+00  4.66688548e-06]","[[-0.0002762   0.01397973]
 [-0.00024413 -0.00513558]]",[],0.0,0.0
1787561462.6464822,1.8107548252999799,1.3326571985511462,2.3464356882742345,"[ 1.69422057e-05  2.42158112e-08  0.00000000e+00  0.00000000e+00
  0.00000000e+00 -2.00971631e-06  2.42158112e-08  1.28443671e-05
  0.00000000e+00  0.00000000e+00  0.00000000e+00 -1.07998553e-06
  0.00000000e+00  0.00000000e+00  0.00000000e+00  0.00000000e+00
  0.00000000e+00  0.00000000e+00  0.00000000e+00  0.00000000e+00
  0.00000000e+00  0.00000000e+00  0.00000000e+00  0.00000000e+00
  0.00000000e+00  0.00000000e+00  0.00000000e+00  0.00000000e+00
  0.00000000e+00  0.00000000e+00 -2.00971631e-06 -1.07998553e-06
  0.00000000e+00  0.00000000e+00  0.00000000e+00  4.66688548e-06]","[[-0.0002762   0.01397973]
 [-0.00024413 -0.00513558]]",[],0.0,0.0
1787561462.6928215,1.8107548252999799,1.3326571985511462,2.3464356882742345,"[ 1.69422057e-05  2.42158112e-08  0.00000000e+00  0.00000000e+00
  0.00000000e+00 -2.00971631e-06  2.42158112e-08  1.28443671e-05
  0.00000000e+00  0.00000000e+00  0.00000000e+00 -1.07998553e-06
  0.00000000e+00  0.00000000e+00  0.00000000e+00  0.00000000e+00
  0.00000000e+00  0.00000000e+00  0.00000000e+00  0.00000000e+00
  0.00000000e+00  0.00000000e+00  0.00000000e+00  0.00000000e+00
  0.00000000e+00  0.00000000e+00  0.00000000e+00  0.00000000e+00
  0.00000000e+00  0.00000000e+00 -2.00971631e-06 -1.07998553e-06
  0.00000000e+00  0.00000000e+00  0.00000000e+00  4.66688548e-06]","[[-0.0002762   0.01397973]
 [-0.00024413 -0.00513558]]",[],0.0,0.0
1787561462.7469447,1.8107548252999799,1.3326571985511462,2.3464356882742345,"[ 1.69422057e-05  2.42158112e-08  0.00000000e+00  0.00000000e+00
  0.00000000e+00 -2.00971631e-06  2.42158112e-08  1.28443671e-05
  0.00000000e+00  0.00000000e+00  0.00000000e+00 -1.07998553e-06
  0.00000000e+00  0.00000000e+00  0.00000000e+00  0.00000000e+00
  0.00000000e+00  0.00000000e+00  0.00000000e+00  0.00000000e+00
  0.00000000e+00  0.00000000e+00  0.00000000e+00  0.00000000e+00
  0.00000000e+00  0.00000000e+00  0.00000000e+00  0.00000000e+00
  0.00000000e+00  0.00000000e+00 -2.00971631e-06 -1.07998553e-06
  0.00000000e+00  0.00000000e+00  0.00000000e+00  4.66688548e-06]","[[-0.0002762   0.01397973]
 [-0.00024413 -0.00513558]]",[],0.0,0.0
1787561462.8004189,1.8107548252999799,1.3326571985511462,2.3464356882742345,"[ 1.69422057e-05  2.42158112e-08  0.00000000e+00  0.00000000e+00
  0.00000000e+00 -2.00971631e-06  2.42158112e-08  1.28443671e-05
  0.00000000e+00  0.00000000e+00  0.00000000e+00 -1.07998553e-06
  0.00000000e+00  0.00000000e+00  0.00000000e+00  0.00000000e+00
  0.00000000e+00  0.00000000e+00  0.00000000e+00  0.00000000e+00
  0.00000000e+00  0.00000000e+00  0.00000000e+00  0.00000000e+00
  0.00000000e+00  0.00000000e+00  0.00000000e+00  0.00000000e+00
  0.00000000e+00  0.00000000e+00 -2.00971631e-06 -1.07998553e-06
  0.00000000e+00  0.00000000e+00  0.00000000e+00  4.66688548e-06]","[[-0.0002762   0.01397973]
 [-0.00024413 -0.00513558]]",[],0.0,0.0
1787561462.8456113,1.8107548252999799,1.3326571985511462,2.3464356882742345,"[ 1.69422057e-05  2.42158112e-08  0.00000000e+00  0.00000000e+00
  0.00000000e+00 -2.00971631e-06  2.42158112e-08  1.28443671e-05
  0.00000000e+00  0.00000000e+00  0.00000000e+00 -1.07998553e-06
  0.00000000e+00  0.00000000e+00  0.00000000e+00  0.00000000e+00
  0.00000000e+00  0.00000000e+00  0.00000000e+00  0.00000000e+00
  0.00000000e+00  0.00000000e+00  0.00000000e+00  0.00000000e+00
  0.00000000e+00  0.00000000e+00  0.00000000e+00  0.00000000e+00
  0.00000000e+00  0.00000000e+00 -2.00971631e-06 -1.07998553e-06
  0.00000000e+00  0.00000000e+00  0.00000000e+00  4.66688548e-06]","[[-0.0002762   0.01397973]
 [-0.00024413 -0.00513558]]",[],0.0,0.0
1787561462.8924081,1.8107548252999799,1.3326571985511462,2.3464356882742345,"[ 1.69422057e-05  2.42158112e-08  0.00000000e+00  0.00000000e+00
  0.00000000e+00 -2.00971631e-06  2.42158112e-08  1.28443671e-05
  0.00000000e+00  0.00000000e+00  0.00000000e+00 -1.07998553e-06
  0.00000000e+00  0.00000000e+00  0.00000000e+00  0.00000000e+00
  0.00000000e+00  0.00000000e+00  0.00000000e+00  0.00000000e+00
  0.00000000e+00  0.00000000e+00  0.00000000e+00  0.00000000e+00
  0.00000000e+00  0.00000000e+00  0.00000000e+00  0.00000000e+00
  0.00000000e+00  0.00000000e+00 -2.00971631e-06 -1.07998553e-06
  0.00000000e+00  0.00000000e+00  0.00000000e+00  4.66688548e-06]","[[-0.0002762   0.01397973]
 [-0.00024413 -0.00513558]]",[],0.0,0.0
1787561462.9425187,1.8107548252999799,1.3326571985511462,2.3464356882742345,"[ 1.69422057e-05  2.42158112e-08  0.00000000e+00  0.00000000e+00
  0.00000000e+00 -2.00971631e-06  2.42158112e-08  1.28443671e-05
  0.00000000e+00  0.00000000e+00  0.00000000e+00 -1.07998553e-06
  0.00000000e+00  0.00000000e+00  0.00000000e+00  0.00000000e+00
  0.00000000e+00  0.00000000e+00  0.00000000e+00  0.00000000e+00
  0.00000000e+00  0.00000000e+00  0.00000000e+00  0.00000000e+00
  0.00000000e+00  0.00000000e+00  0.00000000e+00  0.00000000e+00
  0.00000000e+00  0.00000000e+00 -2.00971631e-06 -1.07998553e-06
  0.00000000e+00  0.00000000e+00  0.00000000e+00  4.66688548e-06]","[[-0.0002762   0.01397973]
 [-0.00024413 -0.00513558]]",[],0.0,0.0
1787561462.9929597,1.8107548252999799,1.3326571985511462,2.3464356882742345,"[ 1.69422057e-05  2.42158112e-08  0.00000000e+00  0.00000000e+00
  0.00000000e+00 -2.00971631e-06  2.42158112e-08  1.28443671e-05
  0.00000000e+00  0.00000000e+00  0.00000000e+00 -1.07998553e-06
  0.00000000e+00  0.00000000e+00  0.00000000e+00  0.00000000e+00
  0.00000000e+00  0.00000000e+00  0.00000000e+00  0.00000000e+00
  0.00000000e+00  0.00000000e+00  0.00000000e+00  0.00000000e+00
  0.00000000e+00  0.00000000e+00  0.00000000e+00  0.00000000e+00
  0.00000000e+00  0.00000000e+00 -2.00971631e-06 -1.07998553e-06
  0.00000000e+00  0.00000000e+00  0.00000000e+00  4.66688548e-06]","[[-0.0002762   0.01397973]
 [-0.00024413 -0.00513558]]",[],0.0,0.0
1787561463.045499,1.8107548252999799,1.3326571985511462,2.3464356882742345,"[ 1.69422057e-05  2.42158112e-08  0.00000000e+00  0.00000000e+00
  0.00000000e+00 -2.00971631e-06  2.42158112e-08  1.28443671e-05
  0.00000000e+00  0.00000000e+00  0.00000000e+00 -1.07998553e-06
  0.00000000e+00  0.00000000e+00  0.00000000e+00  0.00000000e+00
  0.00000000e+00  0.00000000e+00  0.00000000e+00  0.00000000e+00
  0.00000000e+00  0.00000000e+00  0.00000000e+00  0.00000000e+00
  0.00000000e+00  0.00000000e+00  0.00000000e+00  0.00000000e+00
  0.00000000e+00  0.00000000e+00 -2.00971631e-06 -1.07998553e-06
  0.00000000e+00  0.00000000e+00  0.00000000e+00  4.66688548e-06]","[[-0.0002762   0.01397973]
 [-0.00024413 -0.00513558]]",[],0.0,0.0
1787561463.0928938,1.8107548252999799,1.3326571985511462,2.3464356882742345,"[ 1.69422057e-05  2.42158112e-08  0.00000000e+00  0.00000000e+00
  0.00000000e+00 -2.00971631e-06  2.42158112e-08  1.28443671e-05
  0.00000000e+00  0.00000000e+00  0.00000000e+00 -1.07998553e-06
  0.00000000e+00  0.00000000e+00  0.00000000e+00  0.00000000e+00
  0.00000000e+00  0.00000000e+00  0.00000000e+00  0.00000000e+00
  0.00000000e+00  0.00000000e+00  0.00000000e+00  0.00000000e+00
  0.00000000e+00  0.00000000e+00  0.00000000e+00  0.00000000e+00
  0.00000000e+00  0.00000000e+00 -2.00971631e-06 -1.07998553e-06
  0.00000000e+00  0.00000000e+00  0.00000000e+00  4.66688548e-06]","[[-0.0002762   0.01397973]
 [-0.00024413 -0.00513558]]",[],0.0,0.0
1787561463.1431725,1.8107548252999799,1.3326571985511462,2.3464356882742345,"[ 1.69422057e-05  2.42158112e-08  0.00000000e+00  0.00000000e+00
  0.00000000e+00 -2.00971631e-06  2.42158112e-08  1.28443671e-05
  0.00000000e+00  0.00000000e+00  0.00000000e+00 -1.07998553e-06
  0.00000000e+00  0.00000000e+00  0.00000000e+00  0.00000000e+00
  0.00000000e+00  0.00000000e+00  0.00000000e+00  0.00000000e+00
  0.00000000e+00  0.00000000e+00  0.00000000e+00  0.00000000e+00
  0.00000000e+00  0.00000000e+00  0.00000000e+00  0.00000000e+00
  0.00000000e+00  0.00000000e+00 -2.00971631e-06 -1.07998553e-06
  0.00000000e+00  0.00000000e+00  0.00000000e+00  4.66688548e-06]","[[-0.0002762   0.01397973]
 [-0.00024413 -0.00513558]]",[],0.0,0.0
1787561463.1954803,1.8107548252999799,1.3326571985511462,2.3464356882742345,"[ 1.69422057e-05  2.42158112e-08  0.00000000e+00  0.00000000e+00
  0.00000000e+00 -2.00971631e-06  2.42158112e-08  1.28443671e-05
  0.00000000e+00  0.00000000e+00  0.00000000e+00 -1.07998553e-06
  0.00000000e+00  0.00000000e+00  0.00000000e+00  0.00000000e+00
  0.00000000e+00  0.00000000e+00  0.00000000e+00  0.00000000e+00
  0.00000000e+00  0.00000000e+00  0.00000000e+00  0.00000000e+00
  0.00000000e+00  0.00000000e+00  0.00000000e+00  0.00000000e+00
  0.00000000e+00  0.00000000e+00 -2.00971631e-06 -1.07998553e-06
  0.00000000e+00  0.00000000e+00  0.00000000e+00  4.66688548e-06]","[[-0.0002762   0.01397973]
 [-0.00024413 -0.00513558]]",[],0.0,0.0
1787561463.2445383,1.8107548252999799,1.3326571985511462,2.3464356882742345,"[ 1.69422057e-05  2.42158112e-08  0.00000000e+00  0.00000000e+00
  0.00000000e+00 -2.00971631e-06  2.42158112e-08  1.28443671e-05
  0.00000000e+00  0.00000000e+00  0.00000000e+00 -1.07998553e-06
  0.00000000e+00  0.00000000e+00  0.00000000e+00  0.00000000e+00
  0.00000000e+00  0.00000000e+00  0.00000000e+00  0.00000000e+00
  0.00000000e+00  0.00000000e+00  0.00000000e+00  0.00000000e+00
  0.00000000e+00  0.00000000e+00  0.00000000e+00  0.00000000e+00
  0.00000000e+00  0.00000000e+00 -2.00971631e-06 -1.07998553e-06
  0.00000000e+00  0.00000000e+00  0.00000000e+00  4.66688548e-06]","[[-0.0002762   0.01397973]
 [-0.00024413 -0.00513558]]",[],0.0,0.0
1787561463.2997475,1.8107548252999799,1.3326571985511462,2.3464356882742345,"[ 1.69422057e-05  2.42158112e-08  0.00000000e+00  0.00000000e+00
  0.00000000e+00 -2.00971631e-06  2.42158112e-08  1.28443671e-05
  0.00000000e+00  0.00000000e+00  0.00000000e+00 -1.07998553e-06
  0.00000000e+00  0.00000000e+00  0.00000000e+00  0.00000000e+00
  0.00000000e+00  0.00000000e+00  0.00000000e+00  0.00000000e+00
  0.00000000e+00  0.00000000e+00  0.00000000e+00  0.00000000e+00
  0.00000000e+00  0.00000000e+00  0.00000000e+00  0.00000000e+00
  0.00000000e+00  0.00000000e+00 -2.00971631e-06 -1.07998553e-06
  0.00000000e+00  0.00000000e+00  0.00000000e+00  4.66688548e-06]","[[-0.0002762   0.01397973]
 [-0.00024413 -0.00513558]]",[],0.0,0.0
1787561463.3443077,1.8107548252999799,1.3326571985511462,2.3464356882742345,"[ 1.69422057e-05  2.42158112e-08  0.00000000e+00  0.00000000e+00
  0.00000000e+00 -2.00971631e-06  2.42158112e-08  1.28443671e-05
  0.00000000e+00  0.00000000e+00  0.00000000e+00 -1.07998553e-06
  0.00000000e+00  0.00000000e+00  0.00000000e+00  0.00000000e+00
  0.00000000e+00  0.00000000e+00  0.00000000e+00  0.00000000e+00
  0.00000000e+00  0.00000000e+00  0.00000000e+00  0.00000000e+00
  0.00000000e+00  0.00000000e+00  0.00000000e+00  0.00000000e+00
  0.00000000e+00  0.00000000e+00 -2.00971631e-06 -1.07998553e-06
  0.00000000e+00  0.00000000e+00  0.00000000e+00  4.66688548e-06]","[[-0.0002762   0.01397973]
 [-0.00024413 -0.00513558]]",[],0.0,0.0
1787561463.3926022,1.8242667733738376,1.32092834941106,2.4107132549329915,"[ 1.38612989e-05 -8.55477630e-08  0.00000000e+00  0.00000000e+00
  0.00000000e+00 -1.35126535e-06 -8.55477630e-08  1.02057137e-05
  0.00000000e+00  0.00000000e+00  0.00000000e+00 -6.43838141e-07
  0.00000000e+00  0.00000000e+00  0.00000000e+00  0.00000000e+00
  0.00000000e+00  0.00000000e+00  0.00000000e+00  0.00000000e+00
  0.00000000e+00  0.00000000e+00  0.00000000e+00  0.00000000e+00
  0.00000000e+00  0.00000000e+00  0.00000000e+00  0.00000000e+00
  0.00000000e+00  0.00000000e+00 -1.35126535e-06 -6.43838141e-07
  0.00000000e+00  0.00000000e+00  0.00000000e+00  4.27127289e-06]","[[ 2.29634356e-05  6.12529066e-03]
 [-2.54810096e-04  1.21341986e-03]]",[],0.0,0.0
1787561463.4433126,1.8242667733738376,1.32092834941106,2.4107132549329915,"[ 1.38612989e-05 -8.55477630e-08  0.00000000e+00  0.00000000e+00
  0.00000000e+00 -1.35126535e-06 -8.55477630e-08  1.02057137e-05
  0.00000000e+00  0.00000000e+00  0.00000000e+00 -6.43838141e-07
  0.00000000e+00  0.00000000e+00  0.00000000e+00  0.00000000e+00
  0.00000000e+00  0.00000000e+00  0.00000000e+00  0.00000000e+00
  0.00000000e+00  0.00000000e+00  0.00000000e+00  0.00000000e+00
  0.00000000e+00  0.00000000e+00  0.00000000e+00  0.00000000e+00
  0.00000000e+00  0.00000000e+00 -1.35126535e-06 -6.43838141e-07
  0.00000000e+00  0.00000000e+00  0.00000000e+00  4.27127289e-06]","[[ 2.29634356e-05  6.12529066e-03]
 [-2.54810096e-04  1.21341986e-03]]",[],0.0,0.0
1787561463.493268,1.8242667733738376,1.32092834941106,2.4107132549329915,"[ 1.38612989e-05 -8.55477630e-08  0.00000000e+00  0.00000000e+00
  0.00000000e+00 -1.35126535e-06 -8.55477630e-08  1.02057137e-05
  0.00000000e+00  0.00000000e+00  0.00000000e+00 -6.43838141e-07
  0.00000000e+00  0.00000000e+00  0.00000000e+00  0.00000000e+00
  0.00000000e+00  0.00000000e+00  0.00000000e+00  0.00000000e+00
  0.00000000e+00  0.00000000e+00  0.00000000e+00  0.00000000e+00
  0.00000000e+00  0.00000000e+00  0.00000000e+00  0.00000000e+00
  0.00000000e+00  0.00000000e+00 -1.35126535e-06 -6.43838141e-07
  0.00000000e+00  0.00000000e+00  0.00000000e+00  4.27127289e-06]","[[ 2.29634356e-05  6.12529066e-03]
 [-2.54810096e-04  1.21341986e-03]]",[],0.0,0.0
1787561463.5426943,1.8242667733738376,1.32092834941106,2.4107132549329915,"[ 1.38612989e-05 -8.55477630e-08  0.00000000e+00  0.00000000e+00
  0.00000000e+00 -1.35126535e-06 -8.55477630e-08  1.02057137e-05
  0.00000000e+00  0.00000000e+00  0.00000000e+00 -6.43838141e-07
  0.00000000e+00  0.00000000e+00  0.00000000e+00  0.00000000e+00
  0.00000000e+00  0.00000000e+00  0.00000000e+00  0.00000000e+00
  0.00000000e+00  0.00000000e+00  0.00000000e+00  0.00000000e+00
  0.00000000e+00  0.00000000e+00  0.00000000e+00  0.00000000e+00
  0.00000000e+00  0.00000000e+00 -1.35126535e-06 -6.43838141e-07
  0.00000000e+00  0.00000000e+00  0.00000000e+00  4.27127289e-06]","[[ 2.29634356e-05  6.12529066e-03]
 [-2.54810096e-04  1.21341986e-03]]",[],0.0,0.0
1787561463.59274,1.8242667733738376,1.32092834941106,2.4107132549329915,"[ 1.38612989e-05 -8.55477630e-08  0.00000000e+00  0.00000000e+00
  0.00000000e+00 -1.35126535e-06 -8.55477630e-08  1.02057137e-05
  0.00000000e+00  0.00000000e+00  0.00000000e+00 -6.43838141e-07
  0.00000000e+00  0.00000000e+00  0.00000000e+00  0.00000000e+00
  0.00000000e+00  0.00000000e+00  0.00000000e+00  0.00000000e+00
  0.00000000e+00  0.00000000e+00  0.00000000e+00  0.00000000e+00
  0.00000000e+00  0.00000000e+00  0.00000000e+00  0.00000000e+00
  0.00000000e+00  0.00000000e+00 -1.35126535e-06 -6.43838141e-07
  0.00000000e+00  0.00000000e+00  0.00000000e+00  4.27127289e-06]","[[ 2.29634356e-05  6.12529066e-03]
 [-2.54810096e-04  1.21341986e-03]]",[],0.0,0.0
1787561463.644108,1.8242667733738376,1.32092834941106,2.4107132549329915,"[ 1.38612989e-05 -8.55477630e-08  0.00000000e+00  0.00000000e+00
  0.00000000e+00 -1.35126535e-06 -8.55477630e-08  1.02057137e-05
  0.00000000e+00  0.00000000e+00  0.00000000e+00 -6.43838141e-07
  0.00000000e+00  0.00000000e+00  0.00000000e+00  0.00000000e+00
  0.00000000e+00  0.00000000e+00  0.00000000e+00  0.00000000e+00
  0.00000000e+00  0.00000000e+00  0.00000000e+00  0.00000000e+00
  0.00000000e+00  0.00000000e+00  0.00000000e+00  0.00000000e+00
  0.00000000e+00  0.00000000e+00 -1.35126535e-06 -6.43838141e-07
  0.00000000e+00  0.00000000e+00  0.00000000e+00  4.27127289e-06]","[[ 2.29634356e-05  6.12529066e-03]
 [-2.54810096e-04  1.21341986e-03]]",[],0.0,0.0
1787561463.6927829,1.8242667733738376,1.32092834941106,2.4107132549329915,"[ 1.38612989e-05 -8.55477630e-08  0.00000000e+00  0.00000000e+00
  0.00000000e+00 -1.35126535e-06 -8.55477630e-08  1.02057137e-05
  0.00000000e+00  0.00000000e+00  0.00000000e+00 -6.43838141e-07
  0.00000000e+00  0.00000000e+00  0.00000000e+00  0.00000000e+00
  0.00000000e+00  0.00000000e+00  0.00000000e+00  0.00000000e+00
  0.00000000e+00  0.00000000e+00  0.00000000e+00  0.00000000e+00
  0.00000000e+00  0.00000000e+00  0.00000000e+00  0.00000000e+00
  0.00000000e+00  0.00000000e+00 -1.35126535e-06 -6.43838141e-07
  0.00000000e+00  0.00000000e+00  0.00000000e+00  4.27127289e-06]","[[ 2.29634356e-05  6.12529066e-03]
 [-2.54810096e-04  1.21341986e-03]]",[],0.0,0.0
1787561463.7431347,1.8242667733738376,1.32092834941106,2.4107132549329915,"[ 1.38612989e-05 -8.55477630e-08  0.00000000e+00  0.00000000e+00
  0.00000000e+00 -1.35126535e-06 -8.55477630e-08  1.02057137e-05
  0.00000000e+00  0.00000000e+00  0.00000000e+00 -6.43838141e-07
  0.00000000e+00  0.00000000e+00  0.00000000e+00  0.00000000e+00
  0.00000000e+00  0.00000000e+00  0.00000000e+00  0.00000000e+00
  0.00000000e+00  0.00000000e+00  0.00000000e+00  0.00000000e+00
  0.00000000e+00  0.00000000e+00  0.00000000e+00  0.00000000e+00
  0.00000000e+00  0.00000000e+00 -1.35126535e-06 -6.43838141e-07
  0.00000000e+00  0.00000000e+00  0.00000000e+00  4.27127289e-06]","[[ 2.29634356e-05  6.12529066e-03]
 [-2.54810096e-04  1.21341986e-03]]",[],0.0,0.0
1787561463.792318,1.8242667733738376,1.32092834941106,2.4107132549329915,"[ 1.38612989e-05 -8.55477630e-08  0.00000000e+00  0.00000000e+00
  0.00000000e+00 -1.35126535e-06 -8.55477630e-08  1.02057137e-05
  0.00000000e+00  0.00000000e+00  0.00000000e+00 -6.43838141e-07
  0.00000000e+00  0.00000000e+00  0.00000000e+00  0.00000000e+00
  0.00000000e+00  0.00000000e+00  0.00000000e+00  0.00000000e+00
  0.00000000e+00  0.00000000e+00  0.00000000e+00  0.00000000e+00
  0.00000000e+00  0.00000000e+00  0.00000000e+00  0.00000000e+00
  0.00000000e+00  0.00000000e+00 -1.35126535e-06 -6.43838141e-07
  0.00000000e+00  0.00000000e+00  0.00000000e+00  4.27127289e-06]","[[ 2.29634356e-05  6.12529066e-03]
 [-2.54810096e-04  1.21341986e-03]]",[],0.0,0.0
1787561463.8448334,1.8242667733738376,1.32092834941106,2.4107132549329915,"[ 1.38612989e-05 -8.55477630e-08  0.00000000e+00  0.00000000e+00
  0.00000000e+00 -1.35126535e-06 -8.55477630e-08  1.02057137e-05
  0.00000000e+00  0.00000000e+00  0.00000000e+00 -6.43838141e-07
  0.00000000e+00  0.00000000e+00  0.00000000e+00  0.00000000e+00
  0.00000000e+00  0.00000000e+00  0.00000000e+00  0.00000000e+00
  0.00000000e+00  0.00000000e+00  0.00000000e+00  0.00000000e+00
  0.00000000e+00  0.00000000e+00  0.00000000e+00  0.00000000e+00
  0.00000000e+00  0.00000000e+00 -1.35126535e-06 -6.43838141e-07
  0.00000000e+00  0.00000000e+00  0.00000000e+00  4.27127289e-06]","[[ 2.29634356e-05  6.12529066e-03]
 [-2.54810096e-04  1.21341986e-03]]",[],0.0,0.0
1787561463.8942685,1.8242667733738376,1.32092834941106,2.4107132549329915,"[ 1.38612989e-05 -8.55477630e-08  0.00000000e+00  0.00000000e+00
  0.00000000e+00 -1.35126535e-06 -8.55477630e-08  1.02057137e-05
  0.00000000e+00  0.00000000e+00  0.00000000e+00 -6.43838141e-07
  0.00000000e+00  0.00000000e+00  0.00000000e+00  0.00000000e+00
  0.00000000e+00  0.00000000e+00  0.00000000e+00  0.00000000e+00
  0.00000000e+00  0.00000000e+00  0.00000000e+00  0.00000000e+00
  0.00000000e+00  0.00000000e+00  0.00000000e+00  0.00000000e+00
  0.00000000e+00  0.00000000e+00 -1.35126535e-06 -6.43838141e-07
  0.00000000e+00  0.00000000e+00  0.00000000e+00  4.27127289e-06]","[[ 2.29634356e-05  6.12529066e-03]
 [-2.54810096e-04  1.21341986e-03]]",[],0.0,0.0
1787561463.9431975,1.8242667733738376,1.32092834941106,2.4107132549329915,"[ 1.38612989e-05 -8.55477630e-08  0.00000000e+00  0.00000000e+00
  0.00000000e+00 -1.35126535e-06 -8.55477630e-08  1.02057137e-05
  0.00000000e+00  0.00000000e+00  0.00000000e+00 -6.43838141e-07
  0.00000000e+00  0.00000000e+00  0.00000000e+00  0.00000000e+00
  0.00000000e+00  0.00000000e+00  0.00000000e+00  0.00000000e+00
  0.00000000e+00  0.00000000e+00  0.00000000e+00  0.00000000e+00
  0.00000000e+00  0.00000000e+00  0.00000000e+00  0.00000000e+00
  0.00000000e+00  0.00000000e+00 -1.35126535e-06 -6.43838141e-07
  0.00000000e+00  0.00000000e+00  0.00000000e+00  4.27127289e-06]","[[ 2.29634356e-05  6.12529066e-03]
 [-2.54810096e-04  1.21341986e-03]]",[],0.0,0.0
1787561463.997229,1.8242667733738376,1.32092834941106,2.4107132549329915,"[ 1.38612989e-05 -8.55477630e-08  0.00000000e+00  0.00000000e+00
  0.00000000e+00 -1.35126535e-06 -8.55477630e-08  1.02057137e-05
  0.00000000e+00  0.00000000e+00  0.00000000e+00 -6.43838141e-07
  0.00000000e+00  0.00000000e+00  0.00000000e+00  0.00000000e+00
  0.00000000e+00  0.00000000e+00  0.00000000e+00  0.00000000e+00
  0.00000000e+00  0.00000000e+00  0.00000000e+00  0.00000000e+00
  0.00000000e+00  0.00000000e+00  0.00000000e+00  0.00000000e+00
  0.00000000e+00  0.00000000e+00 -1.35126535e-06 -6.43838141e-07
  0.00000000e+00  0.00000000e+00  0.00000000e+00  4.27127289e-06]","[[ 2.29634356e-05  6.12529066e-03]
 [-2.54810096e-04  1.21341986e-03]]",[],0.0,0.0
1787561464.0426967,1.8242667733738376,1.32092834941106,2.4107132549329915,"[ 1.38612989e-05 -8.55477630e-08  0.00000000e+00  0.00000000e+00
  0.00000000e+00 -1.35126535e-06 -8.55477630e-08  1.02057137e-05
  0.00000000e+00  0.00000000e+00  0.00000000e+00 -6.43838141e-07
  0.00000000e+00  0.00000000e+00  0.00000000e+00  0.00000000e+00
  0.00000000e+00  0.00000000e+00  0.00000000e+00  0.00000000e+00
  0.00000000e+00  0.00000000e+00  0.00000000e+00  0.00000000e+00
  0.00000000e+00  0.00000000e+00  0.00000000e+00  0.00000000e+00
  0.00000000e+00  0.00000000e+00 -1.35126535e-06 -6.43838141e-07
  0.00000000e+00  0.00000000e+00  0.00000000e+00  4.27127289e-06]","[[ 2.29634356e-05  6.12529066e-03]
 [-2.54810096e-04  1.21341986e-03]]",[],0.0,0.0
1787561464.0935445,1.8242667733738376,1.32092834941106,2.4107132549329915,"[ 1.38612989e-05 -8.55477630e-08  0.00000000e+00  0.00000000e+00
  0.00000000e+00 -1.35126535e-06 -8.55477630e-08  1.02057137e-05
  0.00000000e+00  0.00000000e+00  0.00000000e+00 -6.43838141e-07
  0.00000000e+00  0.00000000e+00  0.00000000e+00  0.00000000e+00
  0.00000000e+00  0.00000000e+00  0.00000000e+00  0.00000000e+00
  0.00000000e+00  0.00000000e+00  0.00000000e+00  0.00000000e+00
  0.00000000e+00  0.00000000e+00  0.00000000e+00  0.00000000e+00
  0.00000000e+00  0.00000000e+00 -1.35126535e-06 -6.43838141e-07
  0.00000000e+00  0.00000000e+00  0.00000000e+00  4.27127289e-06]","[[ 2.29634356e-05  6.12529066e-03]
 [-2.54810096e-04  1.21341986e-03]]",[],0.0,0.0
1787561464.15121,1.8242667733738376,1.32092834941106,2.4107132549329915,"[ 1.38612989e-05 -8.55477630e-08  0.00000000e+00  0.00000000e+00
  0.00000000e+00 -1.35126535e-06 -8.55477630e-08  1.02057137e-05
  0.00000000e+00  0.00000000e+00  0.00000000e+00 -6.43838141e-07
  0.00000000e+00  0.00000000e+00  0.00000000e+00  0.00000000e+00
  0.00000000e+00  0.00000000e+00  0.00000000e+00  0.00000000e+00
  0.00000000e+00  0.00000000e+00  0.00000000e+00  0.00000000e+00
  0.00000000e+00  0.00000000e+00  0.00000000e+00  0.00000000e+00
  0.00000000e+00  0.00000000e+00 -1.35126535e-06 -6.43838141e-07
  0.00000000e+00  0.00000000e+00  0.00000000e+00  4.27127289e-06]","[[ 2.29634356e-05  6.12529066e-03]
 [-2.54810096e-04  1.21341986e-03]]",[],0.0,0.0
1787561464.193413,1.8242667733738376,1.32092834941106,2.4107132549329915,"[ 1.38612989e-05 -8.55477630e-08  0.00000000e+00  0.00000000e+00
  0.00000000e+00 -1.35126535e-06 -8.55477630e-08  1.02057137e-05
  0.00000000e+00  0.00000000e+00  0.00000000e+00 -6.43838141e-07
  0.00000000e+00  0.00000000e+00  0.00000000e+00  0.00000000e+00
  0.00000000e+00  0.00000000e+00  0.00000000e+00  0.00000000e+00
  0.00000000e+00  0.00000000e+00  0.00000000e+00  0.00000000e+00
  0.00000000e+00  0.00000000e+00  0.00000000e+00  0.00000000e+00
  0.00000000e+00  0.00000000e+00 -1.35126535e-06 -6.43838141e-07
  0.00000000e+00  0.00000000e+00  0.00000000e+00  4.27127289e-06]","[[ 2.29634356e-05  6.12529066e-03]
 [-2.54810096e-04  1.21341986e-03]]",[],0.0,0.0
1787561464.2428374,1.8242667733738376,1.32092834941106,2.4107132549329915,"[ 1.38612989e-05 -8.55477630e-08  0.00000000e+00  0.00000000e+00
  0.00000000e+00 -1.35126535e-06 -8.55477630e-08  1.02057137e-05
  0.00000000e+00  0.00000000e+00  0.00000000e+00 -6.43838141e-07
  0.00000000e+00  0.00000000e+00  0.00000000e+00  0.00000000e+00
  0.00000000e+00  0.00000000e+00  0.00000000e+00  0.00000000e+00
  0.00000000e+00  0.00000000e+00  0.00000000e+00  0.00000000e+00
  0.00000000e+00  0.00000000e+00  0.00000000e+00  0.00000000e+00
  0.00000000e+00  0.00000000e+00 -1.35126535e-06 -6.43838141e-07
  0.00000000e+00  0.00000000e+00  0.00000000e+00  4.27127289e-06]","[[ 2.29634356e-05  6.12529066e-03]
 [-2.54810096e-04  1.21341986e-03]]",[],0.0,0.0
1787561464.293836,1.8242667733738376,1.32092834941106,2.4107132549329915,"[ 1.38612989e-05 -8.55477630e-08  0.00000000e+00  0.00000000e+00
  0.00000000e+00 -1.35126535e-06 -8.55477630e-08  1.02057137e-05
  0.00000000e+00  0.00000000e+00  0.00000000e+00 -6.43838141e-07
  0.00000000e+00  0.00000000e+00  0.00000000e+00  0.00000000e+00
  0.00000000e+00  0.00000000e+00  0.00000000e+00  0.00000000e+00
  0.00000000e+00  0.00000000e+00  0.00000000e+00  0.00000000e+00
  0.00000000e+00  0.00000000e+00  0.00000000e+00  0.00000000e+00
  0.00000000e+00  0.00000000e+00 -1.35126535e-06 -6.43838141e-07
  0.00000000e+00  0.00000000e+00  0.00000000e+00  4.27127289e-06]","[[ 2.29634356e-05  6.12529066e-03]
 [-2.54810096e-04  1.21341986e-03]]",[],0.0,0.0
1787561464.3422906,1.8242667733738376,1.32092834941106,2.4107132549329915,"[ 1.38612989e-05 -8.55477630e-08  0.00000000e+00  0.00000000e+00
  0.00000000e+00 -1.35126535e-06 -8.55477630e-08  1.02057137e-05
  0.00000000e+00  0.00000000e+00  0.00000000e+00 -6.43838141e-07
  0.00000000e+00  0.00000000e+00  0.00000000e+00  0.00000000e+00
  0.00000000e+00  0.00000000e+00  0.00000000e+00  0.00000000e+00
  0.00000000e+00  0.00000000e+00  0.00000000e+00  0.00000000e+00
  0.00000000e+00  0.00000000e+00  0.00000000e+00  0.00000000e+00
  0.00000000e+00  0.00000000e+00 -1.35126535e-06 -6.43838141e-07
  0.00000000e+00  0.00000000e+00  0.00000000e+00  4.27127289e-06]","[[ 2.29634356e-05  6.12529066e-03]
 [-2.54810096e-04  1.21341986e-03]]",[],0.0,0.0
1787561464.3978622,1.8242667733738376,1.32092834941106,2.4107132549329915,"[ 1.38612989e-05 -8.55477630e-08  0.00000000e+00  0.00000000e+00
  0.00000000e+00 -1.35126535e-06 -8.55477630e-08  1.02057137e-05
  0.00000000e+00  0.00000000e+00  0.00000000e+00 -6.43838141e-07
  0.00000000e+00  0.00000000e+00  0.00000000e+00  0.00000000e+00
  0.00000000e+00  0.00000000e+00  0.00000000e+00  0.00000000e+00
  0.00000000e+00  0.00000000e+00  0.00000000e+00  0.00000000e+00
  0.00000000e+00  0.00000000e+00  0.00000000e+00  0.00000000e+00
  0.00000000e+00  0.00000000e+00 -1.35126535e-06 -6.43838141e-07
  0.00000000e+00  0.00000000e+00  0.00000000e+00  4.27127289e-06]","[[ 2.29634356e-05  6.12529066e-03]
 [-2.54810096e-04  1.21341986e-03]]",[],0.0,0.0
1787561464.4431427,1.8242667733738376,1.32092834941106,2.4107132549329915,"[ 1.38612989e-05 -8.55477630e-08  0.00000000e+00  0.00000000e+00
  0.00000000e+00 -1.35126535e-06 -8.55477630e-08  1.02057137e-05
  0.00000000e+00  0.00000000e+00  0.00000000e+00 -6.43838141e-07
  0.00000000e+00  0.00000000e+00  0.00000000e+00  0.00000000e+00
  0.00000000e+00  0.00000000e+00  0.00000000e+00  0.00000000e+00
  0.00000000e+00  0.00000000e+00  0.00000000e+00  0.00000000e+00
  0.00000000e+00  0.00000000e+00  0.00000000e+00  0.00000000e+00
  0.00000000e+00  0.00000000e+00 -1.35126535e-06 -6.43838141e-07
  0.00000000e+00  0.00000000e+00  0.00000000e+00  4.27127289e-06]","[[ 2.29634356e-05  6.12529066e-03]
 [-2.54810096e-04  1.21341986e-03]]",[],0.0,0.0
1787561464.4945817,1.8242667733738376,1.32092834941106,2.4107132549329915,"[ 1.38612989e-05 -8.55477630e-08  0.00000000e+00  0.00000000e+00
  0.00000000e+00 -1.35126535e-06 -8.55477630e-08  1.02057137e-05
  0.00000000e+00  0.00000000e+00  0.00000000e+00 -6.43838141e-07
  0.00000000e+00  0.00000000e+00  0.00000000e+00  0.00000000e+00
  0.00000000e+00  0.00000000e+00  0.00000000e+00  0.00000000e+00
  0.00000000e+00  0.00000000e+00  0.00000000e+00  0.00000000e+00
  0.00000000e+00  0.00000000e+00  0.00000000e+00  0.00000000e+00
  0.00000000e+00  0.00000000e+00 -1.35126535e-06 -6.43838141e-07
  0.00000000e+00  0.00000000e+00  0.00000000e+00  4.27127289e-06]","[[ 2.29634356e-05  6.12529066e-03]
 [-2.54810096e-04  1.21341986e-03]]",[],0.0,0.0
1787561464.5473096,1.8242667733738376,1.32092834941106,2.4107132549329915,"[ 1.38612989e-05 -8.55477630e-08  0.00000000e+00  0.00000000e+00
  0.00000000e+00 -1.35126535e-06 -8.55477630e-08  1.02057137e-05
  0.00000000e+00  0.00000000e+00  0.00000000e+00 -6.43838141e-07
  0.00000000e+00  0.00000000e+00  0.00000000e+00  0.00000000e+00
  0.00000000e+00  0.00000000e+00  0.00000000e+00  0.00000000e+00
  0.00000000e+00  0.00000000e+00  0.00000000e+00  0.00000000e+00
  0.00000000e+00  0.00000000e+00  0.00000000e+00  0.00000000e+00
  0.00000000e+00  0.00000000e+00 -1.35126535e-06 -6.43838141e-07
  0.00000000e+00  0.00000000e+00  0.00000000e+00  4.27127289e-06]","[[ 2.29634356e-05  6.12529066e-03]
 [-2.54810096e-04  1.21341986e-03]]",[],0.0,0.0
1787561464.597607,1.8366690220116908,1.3085300855912316,2.4643410472800724,"[ 1.15732509e-05 -9.29152600e-08  0.00000000e+00  0.00000000e+00
  0.00000000e+00 -9.11057909e-07 -9.29152600e-08  8.45588288e-06
  0.00000000e+00  0.00000000e+00  0.00000000e+00 -4.95390785e-07
  0.00000000e+00  0.00000000e+00  0.00000000e+00  0.00000000e+00
  0.00000000e+00  0.00000000e+00  0.00000000e+00  0.00000000e+00
  0.00000000e+00  0.00000000e+00  0.00000000e+00  0.00000000e+00
  0.00000000e+00  0.00000000e+00  0.00000000e+00  0.00000000e+00
  0.00000000e+00  0.00000000e+00 -9.11057909e-07 -4.95390785e-07
  0.00000000e+00  0.00000000e+00  0.00000000e+00  3.87415811e-06]","[[ 0.00025616  0.00434742]
 [-0.00010184  0.00473121]]",[],0.0,0.0
1787561464.6442537,1.8366690220116908,1.3085300855912316,2.4643410472800724,"[ 1.15732509e-05 -9.29152600e-08  0.00000000e+00  0.00000000e+00
  0.00000000e+00 -9.11057909e-07 -9.29152600e-08  8.45588288e-06
  0.00000000e+00  0.00000000e+00  0.00000000e+00 -4.95390785e-07
  0.00000000e+00  0.00000000e+00  0.00000000e+00  0.00000000e+00
  0.00000000e+00  0.00000000e+00  0.00000000e+00  0.00000000e+00
  0.00000000e+00  0.00000000e+00  0.00000000e+00  0.00000000e+00
  0.00000000e+00  0.00000000e+00  0.00000000e+00  0.00000000e+00
  0.00000000e+00  0.00000000e+00 -9.11057909e-07 -4.95390785e-07
  0.00000000e+00  0.00000000e+00  0.00000000e+00  3.87415811e-06]","[[ 0.00025616  0.00434742]
 [-0.00010184  0.00473121]]",[],0.0,0.0
1787561464.694627,1.8366690220116908,1.3085300855912316,2.4643410472800724,"[ 1.15732509e-05 -9.29152600e-08  0.00000000e+00  0.00000000e+00
  0.00000000e+00 -9.11057909e-07 -9.29152600e-08  8.45588288e-06
  0.00000000e+00  0.00000000e+00  0.00000000e+00 -4.95390785e-07
  0.00000000e+00  0.00000000e+00  0.00000000e+00  0.00000000e+00
  0.00000000e+00  0.00000000e+00  0.00000000e+00  0.00000000e+00
  0.00000000e+00  0.00000000e+00  0.00000000e+00  0.00000000e+00
  0.00000000e+00  0.00000000e+00  0.00000000e+00  0.00000000e+00
  0.00000000e+00  0.00000000e+00 -9.11057909e-07 -4.95390785e-07
  0.00000000e+00  0.00000000e+00  0.00000000e+00  3.87415811e-06]","[[ 0.00025616  0.00434742]
 [-0.00010184  0.00473121]]",[],0.0,0.0
1787561464.7437236,1.8366690220116908,1.3085300855912316,2.4643410472800724,"[ 1.15732509e-05 -9.29152600e-08  0.00000000e+00  0.00000000e+00
  0.00000000e+00 -9.11057909e-07 -9.29152600e-08  8.45588288e-06
  0.00000000e+00  0.00000000e+00  0.00000000e+00 -4.95390785e-07
  0.00000000e+00  0.00000000e+00  0.00000000e+00  0.00000000e+00
  0.00000000e+00  0.00000000e+00  0.00000000e+00  0.00000000e+00
  0.00000000e+00  0.00000000e+00  0.00000000e+00  0.00000000e+00
  0.00000000e+00  0.00000000e+00  0.00000000e+00  0.00000000e+00
  0.00000000e+00  0.00000000e+00 -9.11057909e-07 -4.95390785e-07
  0.00000000e+00  0.00000000e+00  0.00000000e+00  3.87415811e-06]","[[ 0.00025616  0.00434742]
 [-0.00010184  0.00473121]]",[],0.0,0.0
1787561464.7938318,1.8366690220116908,1.3085300855912316,2.4643410472800724,"[ 1.15732509e-05 -9.29152600e-08  0.00000000e+00  0.00000000e+00
  0.00000000e+00 -9.11057909e-07 -9.29152600e-08  8.45588288e-06
  0.00000000e+00  0.00000000e+00  0.00000000e+00 -4.95390785e-07
  0.00000000e+00  0.00000000e+00  0.00000000e+00  0.00000000e+00
  0.00000000e+00  0.00000000e+00  0.00000000e+00  0.00000000e+00
  0.00000000e+00  0.00000000e+00  0.00000000e+00  0.00000000e+00
  0.00000000e+00  0.00000000e+00  0.00000000e+00  0.00000000e+00
  0.00000000e+00  0.00000000e+00 -9.11057909e-07 -4.95390785e-07
  0.00000000e+00  0.00000000e+00  0.00000000e+00  3.87415811e-06]","[[ 0.00025616  0.00434742]
 [-0.00010184  0.00473121]]",[],0.0,0.0
1787561464.8434703,1.8366690220116908,1.3085300855912316,2.4643410472800724,"[ 1.15732509e-05 -9.29152600e-08  0.00000000e+00  0.00000000e+00
  0.00000000e+00 -9.11057909e-07 -9.29152600e-08  8.45588288e-06
  0.00000000e+00  0.00000000e+00  0.00000000e+00 -4.95390785e-07
  0.00000000e+00  0.00000000e+00  0.00000000e+00  0.00000000e+00
  0.00000000e+00  0.00000000e+00  0.00000000e+00  0.00000000e+00
  0.00000000e+00  0.00000000e+00  0.00000000e+00  0.00000000e+00
  0.00000000e+00  0.00000000e+00  0.00000000e+00  0.00000000e+00
  0.00000000e+00  0.00000000e+00 -9.11057909e-07 -4.95390785e-07
  0.00000000e+00  0.00000000e+00  0.00000000e+00  3.87415811e-06]","[[ 0.00025616  0.00434742]
 [-0.00010184  0.00473121]]",[],0.0,0.0
1787561464.89246,1.8366690220116908,1.3085300855912316,2.4643410472800724,"[ 1.15732509e-05 -9.29152600e-08  0.00000000e+00  0.00000000e+00
  0.00000000e+00 -9.11057909e-07 -9.29152600e-08  8.45588288e-06
  0.00000000e+00  0.00000000e+00  0.00000000e+00 -4.95390785e-07
  0.00000000e+00  0.00000000e+00  0.00000000e+00  0.00000000e+00
  0.00000000e+00  0.00000000e+00  0.00000000e+00  0.00000000e+00
  0.00000000e+00  0.00000000e+00  0.00000000e+00  0.00000000e+00
  0.00000000e+00  0.00000000e+00  0.00000000e+00  0.00000000e+00
  0.00000000e+00  0.00000000e+00 -9.11057909e-07 -4.95390785e-07
  0.00000000e+00  0.00000000e+00  0.00000000e+00  3.87415811e-06]","[[ 0.00025616  0.00434742]
 [-0.00010184  0.00473121]]",[],0.0,0.0
1787561464.944902,1.8366690220116908,1.3085300855912316,2.4643410472800724,"[ 1.15732509e-05 -9.29152600e-08  0.00000000e+00  0.00000000e+00
  0.00000000e+00 -9.11057909e-07 -9.29152600e-08  8.45588288e-06
  0.00000000e+00  0.00000000e+00  0.00000000e+00 -4.95390785e-07
  0.00000000e+00  0.00000000e+00  0.00000000e+00  0.00000000e+00
  0.00000000e+00  0.00000000e+00  0.00000000e+00  0.00000000e+00
  0.00000000e+00  0.00000000e+00  0.00000000e+00  0.00000000e+00
  0.00000000e+00  0.00000000e+00  0.00000000e+00  0.00000000e+00
  0.00000000e+00  0.00000000e+00 -9.11057909e-07 -4.95390785e-07
  0.00000000e+00  0.00000000e+00  0.00000000e+00  3.87415811e-06]","[[ 0.00025616  0.00434742]
 [-0.00010184  0.00473121]]",[],0.0,0.0
1787561464.9924862,1.8366690220116908,1.3085300855912316,2.4643410472800724,"[ 1.15732509e-05 -9.29152600e-08  0.00000000e+00  0.00000000e+00
  0.00000000e+00 -9.11057909e-07 -9.29152600e-08  8.45588288e-06
  0.00000000e+00  0.00000000e+00  0.00000000e+00 -4.95390785e-07
  0.00000000e+00  0.00000000e+00  0.00000000e+00  0.00000000e+00
  0.00000000e+00  0.00000000e+00  0.00000000e+00  0.00000000e+00
  0.00000000e+00  0.00000000e+00  0.00000000e+00  0.00000000e+00
  0.00000000e+00  0.00000000e+00  0.00000000e+00  0.00000000e+00
  0.00000000e+00  0.00000000e+00 -9.11057909e-07 -4.95390785e-07
  0.00000000e+00  0.00000000e+00  0.00000000e+00  3.87415811e-06]","[[ 0.00025616  0.00434742]
 [-0.00010184  0.00473121]]",[],0.0,0.0
1787561465.0467682,1.8366690220116908,1.3085300855912316,2.4643410472800724,"[ 1.15732509e-05 -9.29152600e-08  0.00000000e+00  0.00000000e+00
  0.00000000e+00 -9.11057909e-07 -9.29152600e-08  8.45588288e-06
  0.00000000e+00  0.00000000e+00  0.00000000e+00 -4.95390785e-07
  0.00000000e+00  0.00000000e+00  0.00000000e+00  0.00000000e+00
  0.00000000e+00  0.00000000e+00  0.00000000e+00  0.00000000e+00
  0.00000000e+00  0.00000000e+00  0.00000000e+00  0.00000000e+00
  0.00000000e+00  0.00000000e+00  0.00000000e+00  0.00000000e+00
  0.00000000e+00  0.00000000e+00 -9.11057909e-07 -4.95390785e-07
  0.00000000e+00  0.00000000e+00  0.00000000e+00  3.87415811e-06]","[[ 0.00025616  0.00434742]
 [-0.00010184  0.00473121]]",[],0.0,0.0
1787561465.0924487,1.8366690220116908,1.3085300855912316,2.4643410472800724,"[ 1.15732509e-05 -9.29152600e-08  0.00000000e+00  0.00000000e+00
  0.00000000e+00 -9.11057909e-07 -9.29152600e-08  8.45588288e-06
  0.00000000e+00  0.00000000e+00  0.00000000e+00 -4.95390785e-07
  0.00000000e+00  0.00000000e+00  0.00000000e+00  0.00000000e+00
  0.00000000e+00  0.00000000e+00  0.00000000e+00  0.00000000e+00
  0.00000000e+00  0.00000000e+00  0.00000000e+00  0.00000000e+00
  0.00000000e+00  0.00000000e+00  0.00000000e+00  0.00000000e+00
  0.00000000e+00  0.00000000e+00 -9.11057909e-07 -4.95390785e-07
  0.00000000e+00  0.00000000e+00  0.00000000e+00  3.87415811e-06]","[[ 0.00025616  0.00434742]
 [-0.00010184  0.00473121]]",[],0.0,0.0
1787561465.1465778,1.8366690220116908,1.3085300855912316,2.4643410472800724,"[ 1.15732509e-05 -9.29152600e-08  0.00000000e+00  0.00000000e+00
  0.00000000e+00 -9.11057909e-07 -9.29152600e-08  8.45588288e-06
  0.00000000e+00  0.00000000e+00  0.00000000e+00 -4.95390785e-07
  0.00000000e+00  0.00000000e+00  0.00000000e+00  0.00000000e+00
  0.00000000e+00  0.00000000e+00  0.00000000e+00  0.00000000e+00
  0.00000000e+00  0.00000000e+00  0.00000000e+00  0.00000000e+00
  0.00000000e+00  0.00000000e+00  0.00000000e+00  0.00000000e+00
  0.00000000e+00  0.00000000e+00 -9.11057909e-07 -4.95390785e-07
  0.00000000e+00  0.00000000e+00  0.00000000e+00  3.87415811e-06]","[[ 0.00025616  0.00434742]
 [-0.00010184  0.00473121]]",[],0.0,0.0
1787561465.1923733,1.8366690220116908,1.3085300855912316,2.4643410472800724,"[ 1.15732509e-05 -9.29152600e-08  0.00000000e+00  0.00000000e+00
  0.00000000e+00 -9.11057909e-07 -9.29152600e-08  8.45588288e-06
  0.00000000e+00  0.00000000e+00  0.00000000e+00 -4.95390785e-07
  0.00000000e+00  0.00000000e+00  0.00000000e+00  0.00000000e+00
  0.00000000e+00  0.00000000e+00  0.00000000e+00  0.00000000e+00
  0.00000000e+00  0.00000000e+00  0.00000000e+00  0.00000000e+00
  0.00000000e+00  0.00000000e+00  0.00000000e+00  0.00000000e+00
  0.00000000e+00  0.00000000e+00 -9.11057909e-07 -4.95390785e-07
  0.00000000e+00  0.00000000e+00  0.00000000e+00  3.87415811e-06]","[[ 0.00025616  0.00434742]
 [-0.00010184  0.00473121]]",[],0.0,0.0
1787561465.243103,1.8366690220116908,1.3085300855912316,2.4643410472800724,"[ 1.15732509e-05 -9.29152600e-08  0.00000000e+00  0.00000000e+00
  0.00000000e+00 -9.11057909e-07 -9.29152600e-08  8.45588288e-06
  0.00000000e+00  0.00000000e+00  0.00000000e+00 -4.95390785e-07
  0.00000000e+00  0.00000000e+00  0.00000000e+00  0.00000000e+00
  0.00000000e+00  0.00000000e+00  0.00000000e+00  0.00000000e+00
  0.00000000e+00  0.00000000e+00  0.00000000e+00  0.00000000e+00
  0.00000000e+00  0.00000000e+00  0.00000000e+00  0.00000000e+00
  0.00000000e+00  0.00000000e+00 -9.11057909e-07 -4.95390785e-07
  0.00000000e+00  0.00000000e+00  0.00000000e+00  3.87415811e-06]","[[ 0.00025616  0.00434742]
 [-0.00010184  0.00473121]]",[],0.0,0.0
1787561465.2972455,1.8366690220116908,1.3085300855912316,2.4643410472800724,"[ 1.15732509e-05 -9.29152600e-08  0.00000000e+00  0.00000000e+00
  0.00000000e+00 -9.11057909e-07 -9.29152600e-08  8.45588288e-06
  0.00000000e+00  0.00000000e+00  0.00000000e+00 -4.95390785e-07
  0.00000000e+00  0.00000000e+00  0.00000000e+00  0.00000000e+00
  0.00000000e+00  0.00000000e+00  0.00000000e+00  0.00000000e+00
  0.00000000e+00  0.00000000e+00  0.00000000e+00  0.00000000e+00
  0.00000000e+00  0.00000000e+00  0.00000000e+00  0.00000000e+00
  0.00000000e+00  0.00000000e+00 -9.11057909e-07 -4.95390785e-07
  0.00000000e+00  0.00000000e+00  0.00000000e+00  3.87415811e-06]","[[ 0.00025616  0.00434742]
 [-0.00010184  0.00473121]]",[],0.0,0.0
1787561465.343053,1.8366690220116908,1.3085300855912316,2.4643410472800724,"[ 1.15732509e-05 -9.29152600e-08  0.00000000e+00  0.00000000e+00
  0.00000000e+00 -9.11057909e-07 -9.29152600e-08  8.45588288e-06
  0.00000000e+00  0.00000000e+00  0.00000000e+00 -4.95390785e-07
  0.00000000e+00  0.00000000e+00  0.00000000e+00  0.00000000e+00
  0.00000000e+00  0.00000000e+00  0.00000000e+00  0.00000000e+00
  0.00000000e+00  0.00000000e+00  0.00000000e+00  0.00000000e+00
  0.00000000e+00  0.00000000e+00  0.00000000e+00  0.00000000e+00
  0.00000000e+00  0.00000000e+00 -9.11057909e-07 -4.95390785e-07
  0.00000000e+00  0.00000000e+00  0.00000000e+00  3.87415811e-06]","[[ 0.00025616  0.00434742]
 [-0.00010184  0.00473121]]",[],0.0,0.0
1787561465.3924158,1.8366690220116908,1.3085300855912316,2.4643410472800724,"[ 1.15732509e-05 -9.29152600e-08  0.00000000e+00  0.00000000e+00
  0.00000000e+00 -9.11057909e-07 -9.29152600e-08  8.45588288e-06
  0.00000000e+00  0.00000000e+00  0.00000000e+00 -4.95390785e-07
  0.00000000e+00  0.00000000e+00  0.00000000e+00  0.00000000e+00
  0.00000000e+00  0.00000000e+00  0.00000000e+00  0.00000000e+00
  0.00000000e+00  0.00000000e+00  0.00000000e+00  0.00000000e+00
  0.00000000e+00  0.00000000e+00  0.00000000e+00  0.00000000e+00
  0.00000000e+00  0.00000000e+00 -9.11057909e-07 -4.95390785e-07
  0.00000000e+00  0.00000000e+00  0.00000000e+00  3.87415811e-06]","[[ 0.00025616  0.00434742]
 [-0.00010184  0.00473121]]",[],0.0,0.0
1787561465.4436812,1.8366690220116908,1.3085300855912316,2.4643410472800724,"[ 1.15732509e-05 -9.29152600e-08  0.00000000e+00  0.00000000e+00
  0.00000000e+00 -9.11057909e-07 -9.29152600e-08  8.45588288e-06
  0.00000000e+00  0.00000000e+00  0.00000000e+00 -4.95390785e-07
  0.00000000e+00  0.00000000e+00  0.00000000e+00  0.00000000e+00
  0.00000000e+00  0.00000000e+00  0.00000000e+00  0.00000000e+00
  0.00000000e+00  0.00000000e+00  0.00000000e+00  0.00000000e+00
  0.00000000e+00  0.00000000e+00  0.00000000e+00  0.00000000e+00
  0.00000000e+00  0.00000000e+00 -9.11057909e-07 -4.95390785e-07
  0.00000000e+00  0.00000000e+00  0.00000000e+00  3.87415811e-06]","[[ 0.00025616  0.00434742]
 [-0.00010184  0.00473121]]",[],0.0,0.0
1787561465.4970903,1.8366690220116908,1.3085300855912316,2.4643410472800724,"[ 1.15732509e-05 -9.29152600e-08  0.00000000e+00  0.00000000e+00
  0.00000000e+00 -9.11057909e-07 -9.29152600e-08  8.45588288e-06
  0.00000000e+00  0.00000000e+00  0.00000000e+00 -4.95390785e-07
  0.00000000e+00  0.00000000e+00  0.00000000e+00  0.00000000e+00
  0.00000000e+00  0.00000000e+00  0.00000000e+00  0.00000000e+00
  0.00000000e+00  0.00000000e+00  0.00000000e+00  0.00000000e+00
  0.00000000e+00  0.00000000e+00  0.00000000e+00  0.00000000e+00
  0.00000000e+00  0.00000000e+00 -9.11057909e-07 -4.95390785e-07
  0.00000000e+00  0.00000000e+00  0.00000000e+00  3.87415811e-06]","[[ 0.00025616  0.00434742]
 [-0.00010184  0.00473121]]",[],0.0,0.0
1787561465.541974,1.8366690220116908,1.3085300855912316,2.4643410472800724,"[ 1.15732509e-05 -9.29152600e-08  0.00000000e+00  0.00000000e+00
  0.00000000e+00 -9.11057909e-07 -9.29152600e-08  8.45588288e-06
  0.00000000e+00  0.00000000e+00  0.00000000e+00 -4.95390785e-07
  0.00000000e+00  0.00000000e+00  0.00000000e+00  0.00000000e+00
  0.00000000e+00  0.00000000e+00  0.00000000e+00  0.00000000e+00
  0.00000000e+00  0.00000000e+00  0.00000000e+00  0.00000000e+00
  0.00000000e+00  0.00000000e+00  0.00000000e+00  0.00000000e+00
  0.00000000e+00  0.00000000e+00 -9.11057909e-07 -4.95390785e-07
  0.00000000e+00  0.00000000e+00  0.00000000e+00  3.87415811e-06]","[[ 0.00025616  0.00434742]
 [-0.00010184  0.00473121]]",[],0.0,0.0
1787561465.592607,1.8366690220116908,1.3085300855912316,2.4643410472800724,"[ 1.15732509e-05 -9.29152600e-08  0.00000000e+00  0.00000000e+00
  0.00000000e+00 -9.11057909e-07 -9.29152600e-08  8.45588288e-06
  0.00000000e+00  0.00000000e+00  0.00000000e+00 -4.95390785e-07
  0.00000000e+00  0.00000000e+00  0.00000000e+00  0.00000000e+00
  0.00000000e+00  0.00000000e+00  0.00000000e+00  0.00000000e+00
  0.00000000e+00  0.00000000e+00  0.00000000e+00  0.00000000e+00
  0.00000000e+00  0.00000000e+00  0.00000000e+00  0.00000000e+00
  0.00000000e+00  0.00000000e+00 -9.11057909e-07 -4.95390785e-07
  0.00000000e+00  0.00000000e+00  0.00000000e+00  3.87415811e-06]","[[ 0.00025616  0.00434742]
 [-0.00010184  0.00473121]]",[],0.0,0.0
1787561465.642434,1.8366690220116908,1.3085300855912316,2.4643410472800724,"[ 1.15732509e-05 -9.29152600e-08  0.00000000e+00  0.00000000e+00
  0.00000000e+00 -9.11057909e-07 -9.29152600e-08  8.45588288e-06
  0.00000000e+00  0.00000000e+00  0.00000000e+00 -4.95390785e-07
  0.00000000e+00  0.00000000e+00  0.00000000e+00  0.00000000e+00
  0.00000000e+00  0.00000000e+00  0.00000000e+00  0.00000000e+00
  0.00000000e+00  0.00000000e+00  0.00000000e+00  0.00000000e+00
  0.00000000e+00  0.00000000e+00  0.00000000e+00  0.00000000e+00
  0.00000000e+00  0.00000000e+00 -9.11057909e-07 -4.95390785e-07
  0.00000000e+00  0.00000000e+00  0.00000000e+00  3.87415811e-06]","[[ 0.00025616  0.00434742]
 [-0.00010184  0.00473121]]",[],0.0,0.0
1787561465.6930718,1.8366690220116908,1.3085300855912316,2.4643410472800724,"[ 1.15732509e-05 -9.29152600e-08  0.00000000e+00  0.00000000e+00
  0.00000000e+00 -9.11057909e-07 -9.29152600e-08  8.45588288e-06
  0.00000000e+00  0.00000000e+00  0.00000000e+00 -4.95390785e-07
  0.00000000e+00  0.00000000e+00  0.00000000e+00  0.00000000e+00
  0.00000000e+00  0.00000000e+00  0.00000000e+00  0.00000000e+00
  0.00000000e+00  0.00000000e+00  0.00000000e+00  0.00000000e+00
  0.00000000e+00  0.00000000e+00  0.00000000e+00  0.00000000e+00
  0.00000000e+00  0.00000000e+00 -9.11057909e-07 -4.95390785e-07
  0.00000000e+00  0.00000000e+00  0.00000000e+00  3.87415811e-06]","[[ 0.00025616  0.00434742]
 [-0.00010184  0.00473121]]",[],0.0,0.0
1787561465.7424393,1.8366690220116908,1.3085300855912316,2.4643410472800724,"[ 1.15732509e-05 -9.29152600e-08  0.00000000e+00  0.00000000e+00
  0.00000000e+00 -9.11057909e-07 -9.29152600e-08  8.45588288e-06
  0.00000000e+00  0.00000000e+00  0.00000000e+00 -4.95390785e-07
  0.00000000e+00  0.00000000e+00  0.00000000e+00  0.00000000e+00
  0.00000000e+00  0.00000000e+00  0.00000000e+00  0.00000000e+00
  0.00000000e+00  0.00000000e+00  0.00000000e+00  0.00000000e+00
  0.00000000e+00  0.00000000e+00  0.00000000e+00  0.00000000e+00
  0.00000000e+00  0.00000000e+00 -9.11057909e-07 -4.95390785e-07
  0.00000000e+00  0.00000000e+00  0.00000000e+00  3.87415811e-06]","[[ 0.00025616  0.00434742]
 [-0.00010184  0.00473121]]",[],0.0,0.0
1787561465.7972713,1.8366690220116908,1.3085300855912316,2.4643410472800724,"[ 1.15732509e-05 -9.29152600e-08  0.00000000e+00  0.00000000e+00
  0.00000000e+00 -9.11057909e-07 -9.29152600e-08  8.45588288e-06
  0.00000000e+00  0.00000000e+00  0.00000000e+00 -4.95390785e-07
  0.00000000e+00  0.00000000e+00  0.00000000e+00  0.00000000e+00
  0.00000000e+00  0.00000000e+00  0.00000000e+00  0.00000000e+00
  0.00000000e+00  0.00000000e+00  0.00000000e+00  0.00000000e+00
  0.00000000e+00  0.00000000e+00  0.00000000e+00  0.00000000e+00
  0.00000000e+00  0.00000000e+00 -9.11057909e-07 -4.95390785e-07
  0.00000000e+00  0.00000000e+00  0.00000000e+00  3.87415811e-06]","[[ 0.00025616  0.00434742]
 [-0.00010184  0.00473121]]",[],0.0,0.0
1787561465.844087,1.847634810824839,1.2971189043984988,2.4655647624740826,"[ 1.00258708e-05 -1.59426358e-07  0.00000000e+00  0.00000000e+00
  0.00000000e+00 -8.12032360e-07 -1.59426358e-07  7.17726682e-06
  0.00000000e+00  0.00000000e+00  0.00000000e+00 -4.87443948e-07
  0.00000000e+00  0.00000000e+00  0.00000000e+00  0.00000000e+00
  0.00000000e+00  0.00000000e+00  0.00000000e+00  0.00000000e+00
  0.00000000e+00  0.00000000e+00  0.00000000e+00  0.00000000e+00
  0.00000000e+00  0.00000000e+00  0.00000000e+00  0.00000000e+00
  0.00000000e+00  0.00000000e+00 -8.12032360e-07 -4.87443948e-07
  0.00000000e+00  0.00000000e+00  0.00000000e+00  3.79677923e-06]","[[ 2.22660176e-04  3.76172842e-03]
 [-8.84648766e-05  4.08589957e-03]]",[],0.0,0.0
1787561465.8958175,1.847634810824839,1.2971189043984988,2.4655647624740826,"[ 1.00258708e-05 -1.59426358e-07  0.00000000e+00  0.00000000e+00
  0.00000000e+00 -8.12032360e-07 -1.59426358e-07  7.17726682e-06
  0.00000000e+00  0.00000000e+00  0.00000000e+00 -4.87443948e-07
  0.00000000e+00  0.00000000e+00  0.00000000e+00  0.00000000e+00
  0.00000000e+00  0.00000000e+00  0.00000000e+00  0.00000000e+00
  0.00000000e+00  0.00000000e+00  0.00000000e+00  0.00000000e+00
  0.00000000e+00  0.00000000e+00  0.00000000e+00  0.00000000e+00
  0.00000000e+00  0.00000000e+00 -8.12032360e-07 -4.87443948e-07
  0.00000000e+00  0.00000000e+00  0.00000000e+00  3.79677923e-06]","[[ 2.22660176e-04  3.76172842e-03]
 [-8.84648766e-05  4.08589957e-03]]",[],0.0,0.0
1787561465.9420698,1.847634810824839,1.2971189043984988,2.4655647624740826,"[ 1.00258708e-05 -1.59426358e-07  0.00000000e+00  0.00000000e+00
  0.00000000e+00 -8.12032360e-07 -1.59426358e-07  7.17726682e-06
  0.00000000e+00  0.00000000e+00  0.00000000e+00 -4.87443948e-07
  0.00000000e+00  0.00000000e+00  0.00000000e+00  0.00000000e+00
  0.00000000e+00  0.00000000e+00  0.00000000e+00  0.00000000e+00
  0.00000000e+00  0.00000000e+00  0.00000000e+00  0.00000000e+00
  0.00000000e+00  0.00000000e+00  0.00000000e+00  0.00000000e+00
  0.00000000e+00  0.00000000e+00 -8.12032360e-07 -4.87443948e-07
  0.00000000e+00  0.00000000e+00  0.00000000e+00  3.79677923e-06]","[[ 2.22660176e-04  3.76172842e-03]
 [-8.84648766e-05  4.08589957e-03]]",[],0.0,0.0
1787561465.9923346,1.847634810824839,1.2971189043984988,2.4655647624740826,"[ 1.00258708e-05 -1.59426358e-07  0.00000000e+00  0.00000000e+00
  0.00000000e+00 -8.12032360e-07 -1.59426358e-07  7.17726682e-06
  0.00000000e+00  0.00000000e+00  0.00000000e+00 -4.87443948e-07
  0.00000000e+00  0.00000000e+00  0.00000000e+00  0.00000000e+00
  0.00000000e+00  0.00000000e+00  0.00000000e+00  0.00000000e+00
  0.00000000e+00  0.00000000e+00  0.00000000e+00  0.00000000e+00
  0.00000000e+00  0.00000000e+00  0.00000000e+00  0.00000000e+00
  0.00000000e+00  0.00000000e+00 -8.12032360e-07 -4.87443948e-07
  0.00000000e+00  0.00000000e+00  0.00000000e+00  3.79677923e-06]","[[ 2.22660176e-04  3.76172842e-03]
 [-8.84648766e-05  4.08589957e-03]]",[],0.0,0.0
1787561466.04224,1.847634810824839,1.2971189043984988,2.4655647624740826,"[ 1.00258708e-05 -1.59426358e-07  0.00000000e+00  0.00000000e+00
