time,x,y,yaw,cov_prop,K_gain,innovation,v_ekf,omega_ekf
1787564476.7036023,2.829789310562691,1.0506778165437034,2.112420539749632,"[ 6.55800185e-05  4.03617315e-06  0.00000000e+00  0.00000000e+00
  0.00000000e+00 -7.15519286e-06  4.03617315e-06  5.22230415e-05
  0.00000000e+00  0.00000000e+00  0.00000000e+00 -1.56856418e-06
  0.00000000e+00  0.00000000e+00  0.00000000e+00  0.00000000e+00
  0.00000000e+00  0.00000000e+00  0.00000000e+00  0.00000000e+00
  0.00000000e+00  0.00000000e+00  0.00000000e+00  0.00000000e+00
  0.00000000e+00  0.00000000e+00  0.00000000e+00  0.00000000e+00
  0.00000000e+00  0.00000000e+00 -7.15519286e-06 -1.56856418e-06
  0.00000000e+00  0.00000000e+00  0.00000000e+00  5.12187607e-06]","[[-0.00101504  0.03592489]
 [-0.00113145 -0.00970186]]",[],0.0,0.0
1787564476.7310045,2.829789310562691,1.0506778165437034,2.112420539749632,"[ 6.55800185e-05  4.03617315e-06  0.00000000e+00  0.00000000e+00
  0.00000000e+00 -7.15519286e-06  4.03617315e-06  5.22230415e-05
  0.00000000e+00  0.00000000e+00  0.00000000e+00 -1.56856418e-06
  0.00000000e+00  0.00000000e+00  0.00000000e+00  0.00000000e+00
  0.00000000e+00  0.00000000e+00  0.00000000e+00  0.00000000e+00
  0.00000000e+00  0.00000000e+00  0.00000000e+00  0.00000000e+00
  0.00000000e+00  0.00000000e+00  0.00000000e+00  0.00000000e+00
  0.00000000e+00  0.00000000e+00 -7.15519286e-06 -1.56856418e-06
  0.00000000e+00  0.00000000e+00  0.00000000e+00  5.12187607e-06]","[[-0.00101504  0.03592489]
 [-0.00113145 -0.00970186]]",[],0.0,0.0
1787564476.7607281,2.829789310562691,1.0506778165437034,2.112420539749632,"[ 6.55800185e-05  4.03617315e-06  0.00000000e+00  0.00000000e+00
  0.00000000e+00 -7.15519286e-06  4.03617315e-06  5.22230415e-05
  0.00000000e+00  0.00000000e+00  0.00000000e+00 -1.56856418e-06
  0.00000000e+00  0.00000000e+00  0.00000000e+00  0.00000000e+00
  0.00000000e+00  0.00000000e+00  0.00000000e+00  0.00000000e+00
  0.00000000e+00  0.00000000e+00  0.00000000e+00  0.00000000e+00
  0.00000000e+00  0.00000000e+00  0.00000000e+00  0.00000000e+00
  0.00000000e+00  0.00000000e+00 -7.15519286e-06 -1.56856418e-06
  0.00000000e+00  0.00000000e+00  0.00000000e+00  5.12187607e-06]","[[-0.00101504  0.03592489]
 [-0.00113145 -0.00970186]]",[],0.0,0.0
1787564476.8105552,2.7417425642251567,1.0351298573144667,2.174097271960793,"[ 3.07569103e-05  1.97400543e-06  0.00000000e+00  0.00000000e+00
  0.00000000e+00 -2.95096059e-06  1.97400543e-06  2.65819788e-05
  0.00000000e+00  0.00000000e+00  0.00000000e+00 -1.31481388e-06
  0.00000000e+00  0.00000000e+00  0.00000000e+00  0.00000000e+00
  0.00000000e+00  0.00000000e+00  0.00000000e+00  0.00000000e+00
  0.00000000e+00  0.00000000e+00  0.00000000e+00  0.00000000e+00
  0.00000000e+00  0.00000000e+00  0.00000000e+00  0.00000000e+00
  0.00000000e+00  0.00000000e+00 -2.95096059e-06 -1.31481388e-06
  0.00000000e+00  0.00000000e+00  0.00000000e+00  4.37211238e-06]","[[-0.00034847  0.01939608]
 [-0.00063019 -0.00240086]]",[],0.0,0.0
1787564477.4545443,2.7417425642251567,1.0351298573144667,2.174097271960793,"[ 3.07569103e-05  1.97400543e-06  0.00000000e+00  0.00000000e+00
  0.00000000e+00 -2.95096059e-06  1.97400543e-06  2.65819788e-05
  0.00000000e+00  0.00000000e+00  0.00000000e+00 -1.31481388e-06
  0.00000000e+00  0.00000000e+00  0.00000000e+00  0.00000000e+00
  0.00000000e+00  0.00000000e+00  0.00000000e+00  0.00000000e+00
  0.00000000e+00  0.00000000e+00  0.00000000e+00  0.00000000e+00
  0.00000000e+00  0.00000000e+00  0.00000000e+00  0.00000000e+00
  0.00000000e+00  0.00000000e+00 -2.95096059e-06 -1.31481388e-06
  0.00000000e+00  0.00000000e+00  0.00000000e+00  4.37211238e-06]","[[-0.00034847  0.01939608]
 [-0.00063019 -0.00240086]]",[],0.0,0.0
1787564477.4604821,2.7417425642251567,1.0351298573144667,2.174097271960793,"[ 3.07569103e-05  1.97400543e-06  0.00000000e+00  0.00000000e+00
  0.00000000e+00 -2.95096059e-06  1.97400543e-06  2.65819788e-05
  0.00000000e+00  0.00000000e+00  0.00000000e+00 -1.31481388e-06
  0.00000000e+00  0.00000000e+00  0.00000000e+00  0.00000000e+00
  0.00000000e+00  0.00000000e+00  0.00000000e+00  0.00000000e+00
  0.00000000e+00  0.00000000e+00  0.00000000e+00  0.00000000e+00
  0.00000000e+00  0.00000000e+00  0.00000000e+00  0.00000000e+00
  0.00000000e+00  0.00000000e+00 -2.95096059e-06 -1.31481388e-06
  0.00000000e+00  0.00000000e+00  0.00000000e+00  4.37211238e-06]","[[-0.00034847  0.01939608]
 [-0.00063019 -0.00240086]]",[],0.0,0.0
1787564478.1198568,2.7071326513358436,1.0201439004583814,2.193722570176636,"[ 2.01003440e-05  8.01287359e-07  0.00000000e+00  0.00000000e+00
  0.00000000e+00 -1.89971782e-06  8.01287359e-07  1.73591076e-05
  0.00000000e+00  0.00000000e+00  0.00000000e+00 -8.30170660e-07
  0.00000000e+00  0.00000000e+00  0.00000000e+00  0.00000000e+00
  0.00000000e+00  0.00000000e+00  0.00000000e+00  0.00000000e+00
  0.00000000e+00  0.00000000e+00  0.00000000e+00  0.00000000e+00
  0.00000000e+00  0.00000000e+00  0.00000000e+00  0.00000000e+00
  0.00000000e+00  0.00000000e+00 -1.89971782e-06 -8.30170660e-07
  0.00000000e+00  0.00000000e+00  0.00000000e+00  3.71415585e-06]","[[ 0.00034675  0.01267949]
 [-0.00028778  0.00989458]]",[],0.0,0.0
1787564478.173856,2.6854548753390777,1.010883684288693,2.20184414608208,"[ 1.51508241e-05  4.75207817e-07  0.00000000e+00  0.00000000e+00
  0.00000000e+00 -1.30066362e-06  4.75207817e-07  1.31160187e-05
  0.00000000e+00  0.00000000e+00  0.00000000e+00 -6.45410786e-07
  0.00000000e+00  0.00000000e+00  0.00000000e+00  0.00000000e+00
  0.00000000e+00  0.00000000e+00  0.00000000e+00  0.00000000e+00
  0.00000000e+00  0.00000000e+00  0.00000000e+00  0.00000000e+00
  0.00000000e+00  0.00000000e+00  0.00000000e+00  0.00000000e+00
  0.00000000e+00  0.00000000e+00 -1.30066362e-06 -6.45410786e-07
  0.00000000e+00  0.00000000e+00  0.00000000e+00  3.69294336e-06]","[[-0.00017093  0.00912168]
 [-0.00030217 -0.00156811]]",[],0.0,0.0
1787564478.781893,2.6854548753390777,1.010883684288693,2.20184414608208,"[ 1.51508241e-05  4.75207817e-07  0.00000000e+00  0.00000000e+00
  0.00000000e+00 -1.30066362e-06  4.75207817e-07  1.31160187e-05
  0.00000000e+00  0.00000000e+00  0.00000000e+00 -6.45410786e-07
  0.00000000e+00  0.00000000e+00  0.00000000e+00  0.00000000e+00
  0.00000000e+00  0.00000000e+00  0.00000000e+00  0.00000000e+00
  0.00000000e+00  0.00000000e+00  0.00000000e+00  0.00000000e+00
  0.00000000e+00  0.00000000e+00  0.00000000e+00  0.00000000e+00
  0.00000000e+00  0.00000000e+00 -1.30066362e-06 -6.45410786e-07
  0.00000000e+00  0.00000000e+00  0.00000000e+00  3.69294336e-06]","[[-0.00017093  0.00912168]
 [-0.00030217 -0.00156811]]",[],0.0,0.0
1787564478.8097467,2.6670949449738672,1.003692296971724,2.210903631553445,"[ 1.20056557e-05  2.33153123e-07  0.00000000e+00  0.00000000e+00
  0.00000000e+00 -1.01272456e-06  2.33153123e-07  1.04796857e-05
  0.00000000e+00  0.00000000e+00  0.00000000e+00 -5.33678825e-07
  0.00000000e+00  0.00000000e+00  0.00000000e+00  0.00000000e+00
  0.00000000e+00  0.00000000e+00  0.00000000e+00  0.00000000e+00
  0.00000000e+00  0.00000000e+00  0.00000000e+00  0.00000000e+00
  0.00000000e+00  0.00000000e+00  0.00000000e+00  0.00000000e+00
  0.00000000e+00  0.00000000e+00 -1.01272456e-06 -5.33678825e-07
  0.00000000e+00  0.00000000e+00  0.00000000e+00  3.56211151e-06]","[[ 0.00021685  0.00688524]
 [-0.00017318  0.00581891]]",[],0.0,0.0
1787564478.8841307,2.6670949449738672,1.003692296971724,2.210903631553445,"[ 1.20056557e-05  2.33153123e-07  0.00000000e+00  0.00000000e+00
  0.00000000e+00 -1.01272456e-06  2.33153123e-07  1.04796857e-05
  0.00000000e+00  0.00000000e+00  0.00000000e+00 -5.33678825e-07
  0.00000000e+00  0.00000000e+00  0.00000000e+00  0.00000000e+00
  0.00000000e+00  0.00000000e+00  0.00000000e+00  0.00000000e+00
  0.00000000e+00  0.00000000e+00  0.00000000e+00  0.00000000e+00
  0.00000000e+00  0.00000000e+00  0.00000000e+00  0.00000000e+00
  0.00000000e+00  0.00000000e+00 -1.01272456e-06 -5.33678825e-07
  0.00000000e+00  0.00000000e+00  0.00000000e+00  3.56211151e-06]","[[ 0.00021685  0.00688524]
 [-0.00017318  0.00581891]]",[],0.0,0.0
1787564478.9211457,2.6670949449738672,1.003692296971724,2.210903631553445,"[ 1.20056557e-05  2.33153123e-07  0.00000000e+00  0.00000000e+00
  0.00000000e+00 -1.01272456e-06  2.33153123e-07  1.04796857e-05
  0.00000000e+00  0.00000000e+00  0.00000000e+00 -5.33678825e-07
  0.00000000e+00  0.00000000e+00  0.00000000e+00  0.00000000e+00
  0.00000000e+00  0.00000000e+00  0.00000000e+00  0.00000000e+00
  0.00000000e+00  0.00000000e+00  0.00000000e+00  0.00000000e+00
  0.00000000e+00  0.00000000e+00  0.00000000e+00  0.00000000e+00
  0.00000000e+00  0.00000000e+00 -1.01272456e-06 -5.33678825e-07
  0.00000000e+00  0.00000000e+00  0.00000000e+00  3.56211151e-06]","[[ 0.00021685  0.00688524]
 [-0.00017318  0.00581891]]",[],0.0,0.0
1787564478.974757,2.6670949449738672,1.003692296971724,2.210903631553445,"[ 1.20056557e-05  2.33153123e-07  0.00000000e+00  0.00000000e+00
  0.00000000e+00 -1.01272456e-06  2.33153123e-07  1.04796857e-05
  0.00000000e+00  0.00000000e+00  0.00000000e+00 -5.33678825e-07
  0.00000000e+00  0.00000000e+00  0.00000000e+00  0.00000000e+00
  0.00000000e+00  0.00000000e+00  0.00000000e+00  0.00000000e+00
  0.00000000e+00  0.00000000e+00  0.00000000e+00  0.00000000e+00
  0.00000000e+00  0.00000000e+00  0.00000000e+00  0.00000000e+00
  0.00000000e+00  0.00000000e+00 -1.01272456e-06 -5.33678825e-07
  0.00000000e+00  0.00000000e+00  0.00000000e+00  3.56211151e-06]","[[ 0.00021685  0.00688524]
 [-0.00017318  0.00581891]]",[],0.0,0.0
1787564479.0398808,2.6670949449738672,1.003692296971724,2.210903631553445,"[ 1.20056557e-05  2.33153123e-07  0.00000000e+00  0.00000000e+00
  0.00000000e+00 -1.01272456e-06  2.33153123e-07  1.04796857e-05
  0.00000000e+00  0.00000000e+00  0.00000000e+00 -5.33678825e-07
  0.00000000e+00  0.00000000e+00  0.00000000e+00  0.00000000e+00
  0.00000000e+00  0.00000000e+00  0.00000000e+00  0.00000000e+00
  0.00000000e+00  0.00000000e+00  0.00000000e+00  0.00000000e+00
  0.00000000e+00  0.00000000e+00  0.00000000e+00  0.00000000e+00
  0.00000000e+00  0.00000000e+00 -1.01272456e-06 -5.33678825e-07
  0.00000000e+00  0.00000000e+00  0.00000000e+00  3.56211151e-06]","[[ 0.00021685  0.00688524]
 [-0.00017318  0.00581891]]",[],0.0,0.0
1787564479.0786424,2.6670949449738672,1.003692296971724,2.210903631553445,"[ 1.20056557e-05  2.33153123e-07  0.00000000e+00  0.00000000e+00
  0.00000000e+00 -1.01272456e-06  2.33153123e-07  1.04796857e-05
  0.00000000e+00  0.00000000e+00  0.00000000e+00 -5.33678825e-07
  0.00000000e+00  0.00000000e+00  0.00000000e+00  0.00000000e+00
  0.00000000e+00  0.00000000e+00  0.00000000e+00  0.00000000e+00
  0.00000000e+00  0.00000000e+00  0.00000000e+00  0.00000000e+00
  0.00000000e+00  0.00000000e+00  0.00000000e+00  0.00000000e+00
  0.00000000e+00  0.00000000e+00 -1.01272456e-06 -5.33678825e-07
  0.00000000e+00  0.00000000e+00  0.00000000e+00  3.56211151e-06]","[[ 0.00021685  0.00688524]
 [-0.00017318  0.00581891]]",[],0.0,0.0
1787564479.1174998,2.6670949449738672,1.003692296971724,2.210903631553445,"[ 1.20056557e-05  2.33153123e-07  0.00000000e+00  0.00000000e+00
  0.00000000e+00 -1.01272456e-06  2.33153123e-07  1.04796857e-05
  0.00000000e+00  0.00000000e+00  0.00000000e+00 -5.33678825e-07
  0.00000000e+00  0.00000000e+00  0.00000000e+00  0.00000000e+00
  0.00000000e+00  0.00000000e+00  0.00000000e+00  0.00000000e+00
  0.00000000e+00  0.00000000e+00  0.00000000e+00  0.00000000e+00
  0.00000000e+00  0.00000000e+00  0.00000000e+00  0.00000000e+00
  0.00000000e+00  0.00000000e+00 -1.01272456e-06 -5.33678825e-07
  0.00000000e+00  0.00000000e+00  0.00000000e+00  3.56211151e-06]","[[ 0.00021685  0.00688524]
 [-0.00017318  0.00581891]]",[],0.0,0.0
1787564479.1678562,2.6670949449738672,1.003692296971724,2.210903631553445,"[ 1.20056557e-05  2.33153123e-07  0.00000000e+00  0.00000000e+00
  0.00000000e+00 -1.01272456e-06  2.33153123e-07  1.04796857e-05
  0.00000000e+00  0.00000000e+00  0.00000000e+00 -5.33678825e-07
  0.00000000e+00  0.00000000e+00  0.00000000e+00  0.00000000e+00
  0.00000000e+00  0.00000000e+00  0.00000000e+00  0.00000000e+00
  0.00000000e+00  0.00000000e+00  0.00000000e+00  0.00000000e+00
  0.00000000e+00  0.00000000e+00  0.00000000e+00  0.00000000e+00
  0.00000000e+00  0.00000000e+00 -1.01272456e-06 -5.33678825e-07
  0.00000000e+00  0.00000000e+00  0.00000000e+00  3.56211151e-06]","[[ 0.00021685  0.00688524]
 [-0.00017318  0.00581891]]",[],0.0,0.0
1787564479.2105548,2.6670949449738672,1.003692296971724,2.210903631553445,"[ 1.20056557e-05  2.33153123e-07  0.00000000e+00  0.00000000e+00
  0.00000000e+00 -1.01272456e-06  2.33153123e-07  1.04796857e-05
  0.00000000e+00  0.00000000e+00  0.00000000e+00 -5.33678825e-07
  0.00000000e+00  0.00000000e+00  0.00000000e+00  0.00000000e+00
  0.00000000e+00  0.00000000e+00  0.00000000e+00  0.00000000e+00
  0.00000000e+00  0.00000000e+00  0.00000000e+00  0.00000000e+00
  0.00000000e+00  0.00000000e+00  0.00000000e+00  0.00000000e+00
  0.00000000e+00  0.00000000e+00 -1.01272456e-06 -5.33678825e-07
  0.00000000e+00  0.00000000e+00  0.00000000e+00  3.56211151e-06]","[[ 0.00021685  0.00688524]
 [-0.00017318  0.00581891]]",[],0.0,0.0
1787564479.2607918,2.6670949449738672,1.003692296971724,2.210903631553445,"[ 1.20056557e-05  2.33153123e-07  0.00000000e+00  0.00000000e+00
  0.00000000e+00 -1.01272456e-06  2.33153123e-07  1.04796857e-05
  0.00000000e+00  0.00000000e+00  0.00000000e+00 -5.33678825e-07
  0.00000000e+00  0.00000000e+00  0.00000000e+00  0.00000000e+00
  0.00000000e+00  0.00000000e+00  0.00000000e+00  0.00000000e+00
  0.00000000e+00  0.00000000e+00  0.00000000e+00  0.00000000e+00
  0.00000000e+00  0.00000000e+00  0.00000000e+00  0.00000000e+00
  0.00000000e+00  0.00000000e+00 -1.01272456e-06 -5.33678825e-07
  0.00000000e+00  0.00000000e+00  0.00000000e+00  3.56211151e-06]","[[ 0.00021685  0.00688524]
 [-0.00017318  0.00581891]]",[],0.0,0.0
1787564479.3127394,2.6670949449738672,1.003692296971724,2.210903631553445,"[ 1.20056557e-05  2.33153123e-07  0.00000000e+00  0.00000000e+00
  0.00000000e+00 -1.01272456e-06  2.33153123e-07  1.04796857e-05
  0.00000000e+00  0.00000000e+00  0.00000000e+00 -5.33678825e-07
  0.00000000e+00  0.00000000e+00  0.00000000e+00  0.00000000e+00
  0.00000000e+00  0.00000000e+00  0.00000000e+00  0.00000000e+00
  0.00000000e+00  0.00000000e+00  0.00000000e+00  0.00000000e+00
  0.00000000e+00  0.00000000e+00  0.00000000e+00  0.00000000e+00
  0.00000000e+00  0.00000000e+00 -1.01272456e-06 -5.33678825e-07
  0.00000000e+00  0.00000000e+00  0.00000000e+00  3.56211151e-06]","[[ 0.00021685  0.00688524]
 [-0.00017318  0.00581891]]",[],0.0,0.0
1787564479.3654945,2.6670949449738672,1.003692296971724,2.210903631553445,"[ 1.20056557e-05  2.33153123e-07  0.00000000e+00  0.00000000e+00
  0.00000000e+00 -1.01272456e-06  2.33153123e-07  1.04796857e-05
  0.00000000e+00  0.00000000e+00  0.00000000e+00 -5.33678825e-07
  0.00000000e+00  0.00000000e+00  0.00000000e+00  0.00000000e+00
  0.00000000e+00  0.00000000e+00  0.00000000e+00  0.00000000e+00
  0.00000000e+00  0.00000000e+00  0.00000000e+00  0.00000000e+00
  0.00000000e+00  0.00000000e+00  0.00000000e+00  0.00000000e+00
  0.00000000e+00  0.00000000e+00 -1.01272456e-06 -5.33678825e-07
  0.00000000e+00  0.00000000e+00  0.00000000e+00  3.56211151e-06]","[[ 0.00021685  0.00688524]
 [-0.00017318  0.00581891]]",[],0.0,0.0
1787564479.4108162,2.6670949449738672,1.003692296971724,2.210903631553445,"[ 1.20056557e-05  2.33153123e-07  0.00000000e+00  0.00000000e+00
  0.00000000e+00 -1.01272456e-06  2.33153123e-07  1.04796857e-05
  0.00000000e+00  0.00000000e+00  0.00000000e+00 -5.33678825e-07
  0.00000000e+00  0.00000000e+00  0.00000000e+00  0.00000000e+00
  0.00000000e+00  0.00000000e+00  0.00000000e+00  0.00000000e+00
  0.00000000e+00  0.00000000e+00  0.00000000e+00  0.00000000e+00
  0.00000000e+00  0.00000000e+00  0.00000000e+00  0.00000000e+00
  0.00000000e+00  0.00000000e+00 -1.01272456e-06 -5.33678825e-07
  0.00000000e+00  0.00000000e+00  0.00000000e+00  3.56211151e-06]","[[ 0.00021685  0.00688524]
 [-0.00017318  0.00581891]]",[],0.0,0.0
1787564479.4615452,2.6670949449738672,1.003692296971724,2.210903631553445,"[ 1.20056557e-05  2.33153123e-07  0.00000000e+00  0.00000000e+00
  0.00000000e+00 -1.01272456e-06  2.33153123e-07  1.04796857e-05
  0.00000000e+00  0.00000000e+00  0.00000000e+00 -5.33678825e-07
  0.00000000e+00  0.00000000e+00  0.00000000e+00  0.00000000e+00
  0.00000000e+00  0.00000000e+00  0.00000000e+00  0.00000000e+00
  0.00000000e+00  0.00000000e+00  0.00000000e+00  0.00000000e+00
  0.00000000e+00  0.00000000e+00  0.00000000e+00  0.00000000e+00
  0.00000000e+00  0.00000000e+00 -1.01272456e-06 -5.33678825e-07
  0.00000000e+00  0.00000000e+00  0.00000000e+00  3.56211151e-06]","[[ 0.00021685  0.00688524]
 [-0.00017318  0.00581891]]",[],0.0,0.0
1787564479.514417,2.6670949449738672,1.003692296971724,2.210903631553445,"[ 1.20056557e-05  2.33153123e-07  0.00000000e+00  0.00000000e+00
  0.00000000e+00 -1.01272456e-06  2.33153123e-07  1.04796857e-05
  0.00000000e+00  0.00000000e+00  0.00000000e+00 -5.33678825e-07
  0.00000000e+00  0.00000000e+00  0.00000000e+00  0.00000000e+00
  0.00000000e+00  0.00000000e+00  0.00000000e+00  0.00000000e+00
  0.00000000e+00  0.00000000e+00  0.00000000e+00  0.00000000e+00
  0.00000000e+00  0.00000000e+00  0.00000000e+00  0.00000000e+00
  0.00000000e+00  0.00000000e+00 -1.01272456e-06 -5.33678825e-07
  0.00000000e+00  0.00000000e+00  0.00000000e+00  3.56211151e-06]","[[ 0.00021685  0.00688524]
 [-0.00017318  0.00581891]]",[],0.0,0.0
1787564479.5683503,2.6670949449738672,1.003692296971724,2.210903631553445,"[ 1.20056557e-05  2.33153123e-07  0.00000000e+00  0.00000000e+00
  0.00000000e+00 -1.01272456e-06  2.33153123e-07  1.04796857e-05
  0.00000000e+00  0.00000000e+00  0.00000000e+00 -5.33678825e-07
  0.00000000e+00  0.00000000e+00  0.00000000e+00  0.00000000e+00
  0.00000000e+00  0.00000000e+00  0.00000000e+00  0.00000000e+00
  0.00000000e+00  0.00000000e+00  0.00000000e+00  0.00000000e+00
  0.00000000e+00  0.00000000e+00  0.00000000e+00  0.00000000e+00
  0.00000000e+00  0.00000000e+00 -1.01272456e-06 -5.33678825e-07
  0.00000000e+00  0.00000000e+00  0.00000000e+00  3.56211151e-06]","[[ 0.00021685  0.00688524]
 [-0.00017318  0.00581891]]",[],0.0,0.0
1787564479.6157284,2.6670949449738672,1.003692296971724,2.210903631553445,"[ 1.20056557e-05  2.33153123e-07  0.00000000e+00  0.00000000e+00
  0.00000000e+00 -1.01272456e-06  2.33153123e-07  1.04796857e-05
  0.00000000e+00  0.00000000e+00  0.00000000e+00 -5.33678825e-07
  0.00000000e+00  0.00000000e+00  0.00000000e+00  0.00000000e+00
  0.00000000e+00  0.00000000e+00  0.00000000e+00  0.00000000e+00
  0.00000000e+00  0.00000000e+00  0.00000000e+00  0.00000000e+00
  0.00000000e+00  0.00000000e+00  0.00000000e+00  0.00000000e+00
  0.00000000e+00  0.00000000e+00 -1.01272456e-06 -5.33678825e-07
  0.00000000e+00  0.00000000e+00  0.00000000e+00  3.56211151e-06]","[[ 0.00021685  0.00688524]
 [-0.00017318  0.00581891]]",[],0.0,0.0
1787564479.6694999,2.6670949449738672,1.003692296971724,2.210903631553445,"[ 1.20056557e-05  2.33153123e-07  0.00000000e+00  0.00000000e+00
  0.00000000e+00 -1.01272456e-06  2.33153123e-07  1.04796857e-05
  0.00000000e+00  0.00000000e+00  0.00000000e+00 -5.33678825e-07
  0.00000000e+00  0.00000000e+00  0.00000000e+00  0.00000000e+00
  0.00000000e+00  0.00000000e+00  0.00000000e+00  0.00000000e+00
  0.00000000e+00  0.00000000e+00  0.00000000e+00  0.00000000e+00
  0.00000000e+00  0.00000000e+00  0.00000000e+00  0.00000000e+00
  0.00000000e+00  0.00000000e+00 -1.01272456e-06 -5.33678825e-07
  0.00000000e+00  0.00000000e+00  0.00000000e+00  3.56211151e-06]","[[ 0.00021685  0.00688524]
 [-0.00017318  0.00581891]]",[],0.0,0.0
1787564479.7128212,2.6525416645721855,0.9940677628303104,2.2308700548039457,"[ 1.00468288e-05  6.31945161e-08  0.00000000e+00  0.00000000e+00
  0.00000000e+00 -8.18975706e-07  6.31945161e-08  8.94672743e-06
  0.00000000e+00  0.00000000e+00  0.00000000e+00 -3.12156192e-07
  0.00000000e+00  0.00000000e+00  0.00000000e+00  0.00000000e+00
  0.00000000e+00  0.00000000e+00  0.00000000e+00  0.00000000e+00
  0.00000000e+00  0.00000000e+00  0.00000000e+00  0.00000000e+00
  0.00000000e+00  0.00000000e+00  0.00000000e+00  0.00000000e+00
  0.00000000e+00  0.00000000e+00 -8.18975706e-07 -3.12156192e-07
  0.00000000e+00  0.00000000e+00  0.00000000e+00  3.90066398e-06]","[[ 0.00018254  0.00569894]
 [-0.00015146  0.00466064]]",[],0.0,0.0
1787564479.7615755,2.6525416645721855,0.9940677628303104,2.2308700548039457,"[ 1.00468288e-05  6.31945161e-08  0.00000000e+00  0.00000000e+00
  0.00000000e+00 -8.18975706e-07  6.31945161e-08  8.94672743e-06
  0.00000000e+00  0.00000000e+00  0.00000000e+00 -3.12156192e-07
  0.00000000e+00  0.00000000e+00  0.00000000e+00  0.00000000e+00
  0.00000000e+00  0.00000000e+00  0.00000000e+00  0.00000000e+00
  0.00000000e+00  0.00000000e+00  0.00000000e+00  0.00000000e+00
  0.00000000e+00  0.00000000e+00  0.00000000e+00  0.00000000e+00
  0.00000000e+00  0.00000000e+00 -8.18975706e-07 -3.12156192e-07
  0.00000000e+00  0.00000000e+00  0.00000000e+00  3.90066398e-06]","[[ 0.00018254  0.00569894]
 [-0.00015146  0.00466064]]",[],0.0,0.0
1787564479.8107324,2.6525416645721855,0.9940677628303104,2.2308700548039457,"[ 1.00468288e-05  6.31945161e-08  0.00000000e+00  0.00000000e+00
  0.00000000e+00 -8.18975706e-07  6.31945161e-08  8.94672743e-06
  0.00000000e+00  0.00000000e+00  0.00000000e+00 -3.12156192e-07
  0.00000000e+00  0.00000000e+00  0.00000000e+00  0.00000000e+00
  0.00000000e+00  0.00000000e+00  0.00000000e+00  0.00000000e+00
  0.00000000e+00  0.00000000e+00  0.00000000e+00  0.00000000e+00
  0.00000000e+00  0.00000000e+00  0.00000000e+00  0.00000000e+00
  0.00000000e+00  0.00000000e+00 -8.18975706e-07 -3.12156192e-07
  0.00000000e+00  0.00000000e+00  0.00000000e+00  3.90066398e-06]","[[ 0.00018254  0.00569894]
 [-0.00015146  0.00466064]]",[],0.0,0.0
1787564479.8618507,2.6525416645721855,0.9940677628303104,2.2308700548039457,"[ 1.00468288e-05  6.31945161e-08  0.00000000e+00  0.00000000e+00
  0.00000000e+00 -8.18975706e-07  6.31945161e-08  8.94672743e-06
  0.00000000e+00  0.00000000e+00  0.00000000e+00 -3.12156192e-07
  0.00000000e+00  0.00000000e+00  0.00000000e+00  0.00000000e+00
  0.00000000e+00  0.00000000e+00  0.00000000e+00  0.00000000e+00
  0.00000000e+00  0.00000000e+00  0.00000000e+00  0.00000000e+00
  0.00000000e+00  0.00000000e+00  0.00000000e+00  0.00000000e+00
  0.00000000e+00  0.00000000e+00 -8.18975706e-07 -3.12156192e-07
  0.00000000e+00  0.00000000e+00  0.00000000e+00  3.90066398e-06]","[[ 0.00018254  0.00569894]
 [-0.00015146  0.00466064]]",[],0.0,0.0
1787564479.9222448,2.6525416645721855,0.9940677628303104,2.2308700548039457,"[ 1.00468288e-05  6.31945161e-08  0.00000000e+00  0.00000000e+00
  0.00000000e+00 -8.18975706e-07  6.31945161e-08  8.94672743e-06
  0.00000000e+00  0.00000000e+00  0.00000000e+00 -3.12156192e-07
  0.00000000e+00  0.00000000e+00  0.00000000e+00  0.00000000e+00
  0.00000000e+00  0.00000000e+00  0.00000000e+00  0.00000000e+00
  0.00000000e+00  0.00000000e+00  0.00000000e+00  0.00000000e+00
  0.00000000e+00  0.00000000e+00  0.00000000e+00  0.00000000e+00
  0.00000000e+00  0.00000000e+00 -8.18975706e-07 -3.12156192e-07
  0.00000000e+00  0.00000000e+00  0.00000000e+00  3.90066398e-06]","[[ 0.00018254  0.00569894]
 [-0.00015146  0.00466064]]",[],0.0,0.0
1787564479.9744878,2.6525416645721855,0.9940677628303104,2.2308700548039457,"[ 1.00468288e-05  6.31945161e-08  0.00000000e+00  0.00000000e+00
  0.00000000e+00 -8.18975706e-07  6.31945161e-08  8.94672743e-06
  0.00000000e+00  0.00000000e+00  0.00000000e+00 -3.12156192e-07
  0.00000000e+00  0.00000000e+00  0.00000000e+00  0.00000000e+00
  0.00000000e+00  0.00000000e+00  0.00000000e+00  0.00000000e+00
  0.00000000e+00  0.00000000e+00  0.00000000e+00  0.00000000e+00
  0.00000000e+00  0.00000000e+00  0.00000000e+00  0.00000000e+00
  0.00000000e+00  0.00000000e+00 -8.18975706e-07 -3.12156192e-07
  0.00000000e+00  0.00000000e+00  0.00000000e+00  3.90066398e-06]","[[ 0.00018254  0.00569894]
 [-0.00015146  0.00466064]]",[],0.0,0.0
1787564480.0129156,2.6525416645721855,0.9940677628303104,2.2308700548039457,"[ 1.00468288e-05  6.31945161e-08  0.00000000e+00  0.00000000e+00
  0.00000000e+00 -8.18975706e-07  6.31945161e-08  8.94672743e-06
  0.00000000e+00  0.00000000e+00  0.00000000e+00 -3.12156192e-07
  0.00000000e+00  0.00000000e+00  0.00000000e+00  0.00000000e+00
  0.00000000e+00  0.00000000e+00  0.00000000e+00  0.00000000e+00
  0.00000000e+00  0.00000000e+00  0.00000000e+00  0.00000000e+00
  0.00000000e+00  0.00000000e+00  0.00000000e+00  0.00000000e+00
  0.00000000e+00  0.00000000e+00 -8.18975706e-07 -3.12156192e-07
  0.00000000e+00  0.00000000e+00  0.00000000e+00  3.90066398e-06]","[[ 0.00018254  0.00569894]
 [-0.00015146  0.00466064]]",[],0.0,0.0
1787564480.1128893,2.6525416645721855,0.9940677628303104,2.2308700548039457,"[ 1.00468288e-05  6.31945161e-08  0.00000000e+00  0.00000000e+00
  0.00000000e+00 -8.18975706e-07  6.31945161e-08  8.94672743e-06
  0.00000000e+00  0.00000000e+00  0.00000000e+00 -3.12156192e-07
  0.00000000e+00  0.00000000e+00  0.00000000e+00  0.00000000e+00
  0.00000000e+00  0.00000000e+00  0.00000000e+00  0.00000000e+00
  0.00000000e+00  0.00000000e+00  0.00000000e+00  0.00000000e+00
  0.00000000e+00  0.00000000e+00  0.00000000e+00  0.00000000e+00
  0.00000000e+00  0.00000000e+00 -8.18975706e-07 -3.12156192e-07
  0.00000000e+00  0.00000000e+00  0.00000000e+00  3.90066398e-06]","[[ 0.00018254  0.00569894]
 [-0.00015146  0.00466064]]",[],0.0,0.0
1787564480.1597466,2.6525416645721855,0.9940677628303104,2.2308700548039457,"[ 1.00468288e-05  6.31945161e-08  0.00000000e+00  0.00000000e+00
  0.00000000e+00 -8.18975706e-07  6.31945161e-08  8.94672743e-06
  0.00000000e+00  0.00000000e+00  0.00000000e+00 -3.12156192e-07
  0.00000000e+00  0.00000000e+00  0.00000000e+00  0.00000000e+00
  0.00000000e+00  0.00000000e+00  0.00000000e+00  0.00000000e+00
  0.00000000e+00  0.00000000e+00  0.00000000e+00  0.00000000e+00
  0.00000000e+00  0.00000000e+00  0.00000000e+00  0.00000000e+00
  0.00000000e+00  0.00000000e+00 -8.18975706e-07 -3.12156192e-07
  0.00000000e+00  0.00000000e+00  0.00000000e+00  3.90066398e-06]","[[ 0.00018254  0.00569894]
 [-0.00015146  0.00466064]]",[],0.0,0.0
1787564480.2600472,2.6525416645721855,0.9940677628303104,2.2308700548039457,"[ 1.00468288e-05  6.31945161e-08  0.00000000e+00  0.00000000e+00
  0.00000000e+00 -8.18975706e-07  6.31945161e-08  8.94672743e-06
  0.00000000e+00  0.00000000e+00  0.00000000e+00 -3.12156192e-07
  0.00000000e+00  0.00000000e+00  0.00000000e+00  0.00000000e+00
  0.00000000e+00  0.00000000e+00  0.00000000e+00  0.00000000e+00
  0.00000000e+00  0.00000000e+00  0.00000000e+00  0.00000000e+00
  0.00000000e+00  0.00000000e+00  0.00000000e+00  0.00000000e+00
  0.00000000e+00  0.00000000e+00 -8.18975706e-07 -3.12156192e-07
  0.00000000e+00  0.00000000e+00  0.00000000e+00  3.90066398e-06]","[[ 0.00018254  0.00569894]
 [-0.00015146  0.00466064]]",[],0.0,0.0
1787564480.3337579,2.6525416645721855,0.9940677628303104,2.2308700548039457,"[ 1.00468288e-05  6.31945161e-08  0.00000000e+00  0.00000000e+00
  0.00000000e+00 -8.18975706e-07  6.31945161e-08  8.94672743e-06
  0.00000000e+00  0.00000000e+00  0.00000000e+00 -3.12156192e-07
  0.00000000e+00  0.00000000e+00  0.00000000e+00  0.00000000e+00
  0.00000000e+00  0.00000000e+00  0.00000000e+00  0.00000000e+00
  0.00000000e+00  0.00000000e+00  0.00000000e+00  0.00000000e+00
  0.00000000e+00  0.00000000e+00  0.00000000e+00  0.00000000e+00
  0.00000000e+00  0.00000000e+00 -8.18975706e-07 -3.12156192e-07
  0.00000000e+00  0.00000000e+00  0.00000000e+00  3.90066398e-06]","[[ 0.00018254  0.00569894]
 [-0.00015146  0.00466064]]",[],0.0,0.0
1787564480.364009,2.6525416645721855,0.9940677628303104,2.2308700548039457,"[ 1.00468288e-05  6.31945161e-08  0.00000000e+00  0.00000000e+00
  0.00000000e+00 -8.18975706e-07  6.31945161e-08  8.94672743e-06
  0.00000000e+00  0.00000000e+00  0.00000000e+00 -3.12156192e-07
  0.00000000e+00  0.00000000e+00  0.00000000e+00  0.00000000e+00
  0.00000000e+00  0.00000000e+00  0.00000000e+00  0.00000000e+00
  0.00000000e+00  0.00000000e+00  0.00000000e+00  0.00000000e+00
  0.00000000e+00  0.00000000e+00  0.00000000e+00  0.00000000e+00
  0.00000000e+00  0.00000000e+00 -8.18975706e-07 -3.12156192e-07
  0.00000000e+00  0.00000000e+00  0.00000000e+00  3.90066398e-06]","[[ 0.00018254  0.00569894]
 [-0.00015146  0.00466064]]",[],0.0,0.0
1787564480.4110215,2.6525416645721855,0.9940677628303104,2.2308700548039457,"[ 1.00468288e-05  6.31945161e-08  0.00000000e+00  0.00000000e+00
  0.00000000e+00 -8.18975706e-07  6.31945161e-08  8.94672743e-06
  0.00000000e+00  0.00000000e+00  0.00000000e+00 -3.12156192e-07
  0.00000000e+00  0.00000000e+00  0.00000000e+00  0.00000000e+00
  0.00000000e+00  0.00000000e+00  0.00000000e+00  0.00000000e+00
  0.00000000e+00  0.00000000e+00  0.00000000e+00  0.00000000e+00
  0.00000000e+00  0.00000000e+00  0.00000000e+00  0.00000000e+00
  0.00000000e+00  0.00000000e+00 -8.18975706e-07 -3.12156192e-07
  0.00000000e+00  0.00000000e+00  0.00000000e+00  3.90066398e-06]","[[ 0.00018254  0.00569894]
 [-0.00015146  0.00466064]]",[],0.0,0.0
1787564480.4605732,2.6525416645721855,0.9940677628303104,2.2308700548039457,"[ 1.00468288e-05  6.31945161e-08  0.00000000e+00  0.00000000e+00
  0.00000000e+00 -8.18975706e-07  6.31945161e-08  8.94672743e-06
  0.00000000e+00  0.00000000e+00  0.00000000e+00 -3.12156192e-07
  0.00000000e+00  0.00000000e+00  0.00000000e+00  0.00000000e+00
  0.00000000e+00  0.00000000e+00  0.00000000e+00  0.00000000e+00
  0.00000000e+00  0.00000000e+00  0.00000000e+00  0.00000000e+00
  0.00000000e+00  0.00000000e+00  0.00000000e+00  0.00000000e+00
  0.00000000e+00  0.00000000e+00 -8.18975706e-07 -3.12156192e-07
  0.00000000e+00  0.00000000e+00  0.00000000e+00  3.90066398e-06]","[[ 0.00018254  0.00569894]
 [-0.00015146  0.00466064]]",[],0.0,0.0
1787564480.548578,2.6407804720897894,0.9855139034452912,2.2383164724772815,"[ 8.64428033e-06 -2.03664918e-08  0.00000000e+00  0.00000000e+00
  0.00000000e+00 -6.49798032e-07 -2.03664918e-08  7.71968699e-06
  0.00000000e+00  0.00000000e+00  0.00000000e+00 -3.35169064e-07
  0.00000000e+00  0.00000000e+00  0.00000000e+00  0.00000000e+00
  0.00000000e+00  0.00000000e+00  0.00000000e+00  0.00000000e+00
  0.00000000e+00  0.00000000e+00  0.00000000e+00  0.00000000e+00
  0.00000000e+00  0.00000000e+00  0.00000000e+00  0.00000000e+00
  0.00000000e+00  0.00000000e+00 -6.49798032e-07 -3.35169064e-07
  0.00000000e+00  0.00000000e+00  0.00000000e+00  3.73853279e-06]","[[ 0.00015738  0.00480966]
 [-0.00013296  0.00408195]]",[],0.0,0.0
1787564480.6090536,2.6407804720897894,0.9855139034452912,2.2383164724772815,"[ 8.64428033e-06 -2.03664918e-08  0.00000000e+00  0.00000000e+00
  0.00000000e+00 -6.49798032e-07 -2.03664918e-08  7.71968699e-06
  0.00000000e+00  0.00000000e+00  0.00000000e+00 -3.35169064e-07
  0.00000000e+00  0.00000000e+00  0.00000000e+00  0.00000000e+00
  0.00000000e+00  0.00000000e+00  0.00000000e+00  0.00000000e+00
  0.00000000e+00  0.00000000e+00  0.00000000e+00  0.00000000e+00
  0.00000000e+00  0.00000000e+00  0.00000000e+00  0.00000000e+00
  0.00000000e+00  0.00000000e+00 -6.49798032e-07 -3.35169064e-07
  0.00000000e+00  0.00000000e+00  0.00000000e+00  3.73853279e-06]","[[ 0.00015738  0.00480966]
 [-0.00013296  0.00408195]]",[],0.0,0.0
1787564480.6108081,2.6407804720897894,0.9855139034452912,2.2383164724772815,"[ 8.64428033e-06 -2.03664918e-08  0.00000000e+00  0.00000000e+00
  0.00000000e+00 -6.49798032e-07 -2.03664918e-08  7.71968699e-06
  0.00000000e+00  0.00000000e+00  0.00000000e+00 -3.35169064e-07
  0.00000000e+00  0.00000000e+00  0.00000000e+00  0.00000000e+00
  0.00000000e+00  0.00000000e+00  0.00000000e+00  0.00000000e+00
  0.00000000e+00  0.00000000e+00  0.00000000e+00  0.00000000e+00
  0.00000000e+00  0.00000000e+00  0.00000000e+00  0.00000000e+00
  0.00000000e+00  0.00000000e+00 -6.49798032e-07 -3.35169064e-07
  0.00000000e+00  0.00000000e+00  0.00000000e+00  3.73853279e-06]","[[ 0.00015738  0.00480966]
 [-0.00013296  0.00408195]]",[],0.0,0.0
1787564480.6607316,2.6407804720897894,0.9855139034452912,2.2383164724772815,"[ 8.64428033e-06 -2.03664918e-08  0.00000000e+00  0.00000000e+00
  0.00000000e+00 -6.49798032e-07 -2.03664918e-08  7.71968699e-06
  0.00000000e+00  0.00000000e+00  0.00000000e+00 -3.35169064e-07
  0.00000000e+00  0.00000000e+00  0.00000000e+00  0.00000000e+00
  0.00000000e+00  0.00000000e+00  0.00000000e+00  0.00000000e+00
  0.00000000e+00  0.00000000e+00  0.00000000e+00  0.00000000e+00
  0.00000000e+00  0.00000000e+00  0.00000000e+00  0.00000000e+00
  0.00000000e+00  0.00000000e+00 -6.49798032e-07 -3.35169064e-07
  0.00000000e+00  0.00000000e+00  0.00000000e+00  3.73853279e-06]","[[ 0.00015738  0.00480966]
 [-0.00013296  0.00408195]]",[],0.0,0.0
1787564480.7301095,2.6407804720897894,0.9855139034452912,2.2383164724772815,"[ 8.64428033e-06 -2.03664918e-08  0.00000000e+00  0.00000000e+00
  0.00000000e+00 -6.49798032e-07 -2.03664918e-08  7.71968699e-06
  0.00000000e+00  0.00000000e+00  0.00000000e+00 -3.35169064e-07
  0.00000000e+00  0.00000000e+00  0.00000000e+00  0.00000000e+00
  0.00000000e+00  0.00000000e+00  0.00000000e+00  0.00000000e+00
  0.00000000e+00  0.00000000e+00  0.00000000e+00  0.00000000e+00
  0.00000000e+00  0.00000000e+00  0.00000000e+00  0.00000000e+00
  0.00000000e+00  0.00000000e+00 -6.49798032e-07 -3.35169064e-07
  0.00000000e+00  0.00000000e+00  0.00000000e+00  3.73853279e-06]","[[ 0.00015738  0.00480966]
 [-0.00013296  0.00408195]]",[],0.0,0.0
1787564480.7608058,2.6407804720897894,0.9855139034452912,2.2383164724772815,"[ 8.64428033e-06 -2.03664918e-08  0.00000000e+00  0.00000000e+00
  0.00000000e+00 -6.49798032e-07 -2.03664918e-08  7.71968699e-06
  0.00000000e+00  0.00000000e+00  0.00000000e+00 -3.35169064e-07
  0.00000000e+00  0.00000000e+00  0.00000000e+00  0.00000000e+00
  0.00000000e+00  0.00000000e+00  0.00000000e+00  0.00000000e+00
  0.00000000e+00  0.00000000e+00  0.00000000e+00  0.00000000e+00
  0.00000000e+00  0.00000000e+00  0.00000000e+00  0.00000000e+00
  0.00000000e+00  0.00000000e+00 -6.49798032e-07 -3.35169064e-07
  0.00000000e+00  0.00000000e+00  0.00000000e+00  3.73853279e-06]","[[ 0.00015738  0.00480966]
 [-0.00013296  0.00408195]]",[],0.0,0.0
1787564480.834937,2.6407804720897894,0.9855139034452912,2.2383164724772815,"[ 8.64428033e-06 -2.03664918e-08  0.00000000e+00  0.00000000e+00
  0.00000000e+00 -6.49798032e-07 -2.03664918e-08  7.71968699e-06
  0.00000000e+00  0.00000000e+00  0.00000000e+00 -3.35169064e-07
  0.00000000e+00  0.00000000e+00  0.00000000e+00  0.00000000e+00
  0.00000000e+00  0.00000000e+00  0.00000000e+00  0.00000000e+00
  0.00000000e+00  0.00000000e+00  0.00000000e+00  0.00000000e+00
  0.00000000e+00  0.00000000e+00  0.00000000e+00  0.00000000e+00
  0.00000000e+00  0.00000000e+00 -6.49798032e-07 -3.35169064e-07
  0.00000000e+00  0.00000000e+00  0.00000000e+00  3.73853279e-06]","[[ 0.00015738  0.00480966]
 [-0.00013296  0.00408195]]",[],0.0,0.0
1787564480.860855,2.6407804720897894,0.9855139034452912,2.2383164724772815,"[ 8.64428033e-06 -2.03664918e-08  0.00000000e+00  0.00000000e+00
  0.00000000e+00 -6.49798032e-07 -2.03664918e-08  7.71968699e-06
  0.00000000e+00  0.00000000e+00  0.00000000e+00 -3.35169064e-07
  0.00000000e+00  0.00000000e+00  0.00000000e+00  0.00000000e+00
  0.00000000e+00  0.00000000e+00  0.00000000e+00  0.00000000e+00
  0.00000000e+00  0.00000000e+00  0.00000000e+00  0.00000000e+00
  0.00000000e+00  0.00000000e+00  0.00000000e+00  0.00000000e+00
  0.00000000e+00  0.00000000e+00 -6.49798032e-07 -3.35169064e-07
  0.00000000e+00  0.00000000e+00  0.00000000e+00  3.73853279e-06]","[[ 0.00015738  0.00480966]
 [-0.00013296  0.00408195]]",[],0.0,0.0
1787564480.9251335,2.6407804720897894,0.9855139034452912,2.2383164724772815,"[ 8.64428033e-06 -2.03664918e-08  0.00000000e+00  0.00000000e+00
  0.00000000e+00 -6.49798032e-07 -2.03664918e-08  7.71968699e-06
  0.00000000e+00  0.00000000e+00  0.00000000e+00 -3.35169064e-07
  0.00000000e+00  0.00000000e+00  0.00000000e+00  0.00000000e+00
  0.00000000e+00  0.00000000e+00  0.00000000e+00  0.00000000e+00
  0.00000000e+00  0.00000000e+00  0.00000000e+00  0.00000000e+00
  0.00000000e+00  0.00000000e+00  0.00000000e+00  0.00000000e+00
  0.00000000e+00  0.00000000e+00 -6.49798032e-07 -3.35169064e-07
  0.00000000e+00  0.00000000e+00  0.00000000e+00  3.73853279e-06]","[[ 0.00015738  0.00480966]
 [-0.00013296  0.00408195]]",[],0.0,0.0
1787564480.9610972,2.6407804720897894,0.9855139034452912,2.2383164724772815,"[ 8.64428033e-06 -2.03664918e-08  0.00000000e+00  0.00000000e+00
  0.00000000e+00 -6.49798032e-07 -2.03664918e-08  7.71968699e-06
  0.00000000e+00  0.00000000e+00  0.00000000e+00 -3.35169064e-07
  0.00000000e+00  0.00000000e+00  0.00000000e+00  0.00000000e+00
  0.00000000e+00  0.00000000e+00  0.00000000e+00  0.00000000e+00
  0.00000000e+00  0.00000000e+00  0.00000000e+00  0.00000000e+00
  0.00000000e+00  0.00000000e+00  0.00000000e+00  0.00000000e+00
  0.00000000e+00  0.00000000e+00 -6.49798032e-07 -3.35169064e-07
  0.00000000e+00  0.00000000e+00  0.00000000e+00  3.73853279e-06]","[[ 0.00015738  0.00480966]
 [-0.00013296  0.00408195]]",[],0.0,0.0
1787564481.0115187,2.6407804720897894,0.9855139034452912,2.2383164724772815,"[ 8.64428033e-06 -2.03664918e-08  0.00000000e+00  0.00000000e+00
  0.00000000e+00 -6.49798032e-07 -2.03664918e-08  7.71968699e-06
  0.00000000e+00  0.00000000e+00  0.00000000e+00 -3.35169064e-07
  0.00000000e+00  0.00000000e+00  0.00000000e+00  0.00000000e+00
  0.00000000e+00  0.00000000e+00  0.00000000e+00  0.00000000e+00
  0.00000000e+00  0.00000000e+00  0.00000000e+00  0.00000000e+00
  0.00000000e+00  0.00000000e+00  0.00000000e+00  0.00000000e+00
  0.00000000e+00  0.00000000e+00 -6.49798032e-07 -3.35169064e-07
  0.00000000e+00  0.00000000e+00  0.00000000e+00  3.73853279e-06]","[[ 0.00015738  0.00480966]
 [-0.00013296  0.00408195]]",[],0.0,0.0
1787564481.0688045,2.6407804720897894,0.9855139034452912,2.2383164724772815,"[ 8.64428033e-06 -2.03664918e-08  0.00000000e+00  0.00000000e+00
  0.00000000e+00 -6.49798032e-07 -2.03664918e-08  7.71968699e-06
  0.00000000e+00  0.00000000e+00  0.00000000e+00 -3.35169064e-07
  0.00000000e+00  0.00000000e+00  0.00000000e+00  0.00000000e+00
  0.00000000e+00  0.00000000e+00  0.00000000e+00  0.00000000e+00
  0.00000000e+00  0.00000000e+00  0.00000000e+00  0.00000000e+00
  0.00000000e+00  0.00000000e+00  0.00000000e+00  0.00000000e+00
  0.00000000e+00  0.00000000e+00 -6.49798032e-07 -3.35169064e-07
  0.00000000e+00  0.00000000e+00  0.00000000e+00  3.73853279e-06]","[[ 0.00015738  0.00480966]
 [-0.00013296  0.00408195]]",[],0.0,0.0
1787564481.1129348,2.6407804720897894,0.9855139034452912,2.2383164724772815,"[ 8.64428033e-06 -2.03664918e-08  0.00000000e+00  0.00000000e+00
  0.00000000e+00 -6.49798032e-07 -2.03664918e-08  7.71968699e-06
  0.00000000e+00  0.00000000e+00  0.00000000e+00 -3.35169064e-07
  0.00000000e+00  0.00000000e+00  0.00000000e+00  0.00000000e+00
  0.00000000e+00  0.00000000e+00  0.00000000e+00  0.00000000e+00
  0.00000000e+00  0.00000000e+00  0.00000000e+00  0.00000000e+00
  0.00000000e+00  0.00000000e+00  0.00000000e+00  0.00000000e+00
  0.00000000e+00  0.00000000e+00 -6.49798032e-07 -3.35169064e-07
  0.00000000e+00  0.00000000e+00  0.00000000e+00  3.73853279e-06]","[[ 0.00015738  0.00480966]
 [-0.00013296  0.00408195]]",[],0.0,0.0
1787564481.1619003,2.6407804720897894,0.9855139034452912,2.2383164724772815,"[ 8.64428033e-06 -2.03664918e-08  0.00000000e+00  0.00000000e+00
  0.00000000e+00 -6.49798032e-07 -2.03664918e-08  7.71968699e-06
  0.00000000e+00  0.00000000e+00  0.00000000e+00 -3.35169064e-07
  0.00000000e+00  0.00000000e+00  0.00000000e+00  0.00000000e+00
  0.00000000e+00  0.00000000e+00  0.00000000e+00  0.00000000e+00
  0.00000000e+00  0.00000000e+00  0.00000000e+00  0.00000000e+00
  0.00000000e+00  0.00000000e+00  0.00000000e+00  0.00000000e+00
  0.00000000e+00  0.00000000e+00 -6.49798032e-07 -3.35169064e-07
  0.00000000e+00  0.00000000e+00  0.00000000e+00  3.73853279e-06]","[[ 0.00015738  0.00480966]
 [-0.00013296  0.00408195]]",[],0.0,0.0
1787564481.2226012,2.6407804720897894,0.9855139034452912,2.2383164724772815,"[ 8.64428033e-06 -2.03664918e-08  0.00000000e+00  0.00000000e+00
  0.00000000e+00 -6.49798032e-07 -2.03664918e-08  7.71968699e-06
  0.00000000e+00  0.00000000e+00  0.00000000e+00 -3.35169064e-07
  0.00000000e+00  0.00000000e+00  0.00000000e+00  0.00000000e+00
  0.00000000e+00  0.00000000e+00  0.00000000e+00  0.00000000e+00
  0.00000000e+00  0.00000000e+00  0.00000000e+00  0.00000000e+00
  0.00000000e+00  0.00000000e+00  0.00000000e+00  0.00000000e+00
  0.00000000e+00  0.00000000e+00 -6.49798032e-07 -3.35169064e-07
  0.00000000e+00  0.00000000e+00  0.00000000e+00  3.73853279e-06]","[[ 0.00015738  0.00480966]
 [-0.00013296  0.00408195]]",[],0.0,0.0
1787564481.2707458,2.6407804720897894,0.9855139034452912,2.2383164724772815,"[ 8.64428033e-06 -2.03664918e-08  0.00000000e+00  0.00000000e+00
  0.00000000e+00 -6.49798032e-07 -2.03664918e-08  7.71968699e-06
  0.00000000e+00  0.00000000e+00  0.00000000e+00 -3.35169064e-07
  0.00000000e+00  0.00000000e+00  0.00000000e+00  0.00000000e+00
  0.00000000e+00  0.00000000e+00  0.00000000e+00  0.00000000e+00
  0.00000000e+00  0.00000000e+00  0.00000000e+00  0.00000000e+00
  0.00000000e+00  0.00000000e+00  0.00000000e+00  0.00000000e+00
  0.00000000e+00  0.00000000e+00 -6.49798032e-07 -3.35169064e-07
  0.00000000e+00  0.00000000e+00  0.00000000e+00  3.73853279e-06]","[[ 0.00015738  0.00480966]
 [-0.00013296  0.00408195]]",[],0.0,0.0
1787564481.3098488,2.6407804720897894,0.9855139034452912,2.2383164724772815,"[ 8.64428033e-06 -2.03664918e-08  0.00000000e+00  0.00000000e+00
  0.00000000e+00 -6.49798032e-07 -2.03664918e-08  7.71968699e-06
  0.00000000e+00  0.00000000e+00  0.00000000e+00 -3.35169064e-07
  0.00000000e+00  0.00000000e+00  0.00000000e+00  0.00000000e+00
  0.00000000e+00  0.00000000e+00  0.00000000e+00  0.00000000e+00
  0.00000000e+00  0.00000000e+00  0.00000000e+00  0.00000000e+00
  0.00000000e+00  0.00000000e+00  0.00000000e+00  0.00000000e+00
  0.00000000e+00  0.00000000e+00 -6.49798032e-07 -3.35169064e-07
  0.00000000e+00  0.00000000e+00  0.00000000e+00  3.73853279e-06]","[[ 0.00015738  0.00480966]
 [-0.00013296  0.00408195]]",[],0.0,0.0
1787564481.3597693,2.6307176543739246,0.9793806633731856,2.264657811676459,"[ 7.48849980e-06 -9.11563148e-08  0.00000000e+00  0.00000000e+00
  0.00000000e+00 -5.94042714e-07 -9.11563148e-08  6.78426437e-06
  0.00000000e+00  0.00000000e+00  0.00000000e+00 -2.36429891e-07
  0.00000000e+00  0.00000000e+00  0.00000000e+00  0.00000000e+00
  0.00000000e+00  0.00000000e+00  0.00000000e+00  0.00000000e+00
  0.00000000e+00  0.00000000e+00  0.00000000e+00  0.00000000e+00
  0.00000000e+00  0.00000000e+00  0.00000000e+00  0.00000000e+00
  0.00000000e+00  0.00000000e+00 -5.94042714e-07 -2.36429891e-07
  0.00000000e+00  0.00000000e+00  0.00000000e+00  3.55471865e-06]","[[ 0.0001369   0.00420651]
 [-0.00011884  0.00344622]]",[],0.0,0.0
1787564481.4111543,2.6307176543739246,0.9793806633731856,2.264657811676459,"[ 7.48849980e-06 -9.11563148e-08  0.00000000e+00  0.00000000e+00
  0.00000000e+00 -5.94042714e-07 -9.11563148e-08  6.78426437e-06
  0.00000000e+00  0.00000000e+00  0.00000000e+00 -2.36429891e-07
  0.00000000e+00  0.00000000e+00  0.00000000e+00  0.00000000e+00
  0.00000000e+00  0.00000000e+00  0.00000000e+00  0.00000000e+00
  0.00000000e+00  0.00000000e+00  0.00000000e+00  0.00000000e+00
  0.00000000e+00  0.00000000e+00  0.00000000e+00  0.00000000e+00
  0.00000000e+00  0.00000000e+00 -5.94042714e-07 -2.36429891e-07
  0.00000000e+00  0.00000000e+00  0.00000000e+00  3.55471865e-06]","[[ 0.0001369   0.00420651]
 [-0.00011884  0.00344622]]",[],0.0,0.0
1787564481.4600646,2.6307176543739246,0.9793806633731856,2.264657811676459,"[ 7.48849980e-06 -9.11563148e-08  0.00000000e+00  0.00000000e+00
  0.00000000e+00 -5.94042714e-07 -9.11563148e-08  6.78426437e-06
  0.00000000e+00  0.00000000e+00  0.00000000e+00 -2.36429891e-07
  0.00000000e+00  0.00000000e+00  0.00000000e+00  0.00000000e+00
  0.00000000e+00  0.00000000e+00  0.00000000e+00  0.00000000e+00
  0.00000000e+00  0.00000000e+00  0.00000000e+00  0.00000000e+00
  0.00000000e+00  0.00000000e+00  0.00000000e+00  0.00000000e+00
  0.00000000e+00  0.00000000e+00 -5.94042714e-07 -2.36429891e-07
  0.00000000e+00  0.00000000e+00  0.00000000e+00  3.55471865e-06]","[[ 0.0001369   0.00420651]
 [-0.00011884  0.00344622]]",[],0.0,0.0
1787564481.514148,2.6307176543739246,0.9793806633731856,2.264657811676459,"[ 7.48849980e-06 -9.11563148e-08  0.00000000e+00  0.00000000e+00
  0.00000000e+00 -5.94042714e-07 -9.11563148e-08  6.78426437e-06
  0.00000000e+00  0.00000000e+00  0.00000000e+00 -2.36429891e-07
  0.00000000e+00  0.00000000e+00  0.00000000e+00  0.00000000e+00
  0.00000000e+00  0.00000000e+00  0.00000000e+00  0.00000000e+00
  0.00000000e+00  0.00000000e+00  0.00000000e+00  0.00000000e+00
  0.00000000e+00  0.00000000e+00  0.00000000e+00  0.00000000e+00
  0.00000000e+00  0.00000000e+00 -5.94042714e-07 -2.36429891e-07
  0.00000000e+00  0.00000000e+00  0.00000000e+00  3.55471865e-06]","[[ 0.0001369   0.00420651]
 [-0.00011884  0.00344622]]",[],0.0,0.0
1787564481.5606694,2.6307176543739246,0.9793806633731856,2.264657811676459,"[ 7.48849980e-06 -9.11563148e-08  0.00000000e+00  0.00000000e+00
  0.00000000e+00 -5.94042714e-07 -9.11563148e-08  6.78426437e-06
  0.00000000e+00  0.00000000e+00  0.00000000e+00 -2.36429891e-07
  0.00000000e+00  0.00000000e+00  0.00000000e+00  0.00000000e+00
  0.00000000e+00  0.00000000e+00  0.00000000e+00  0.00000000e+00
  0.00000000e+00  0.00000000e+00  0.00000000e+00  0.00000000e+00
  0.00000000e+00  0.00000000e+00  0.00000000e+00  0.00000000e+00
  0.00000000e+00  0.00000000e+00 -5.94042714e-07 -2.36429891e-07
  0.00000000e+00  0.00000000e+00  0.00000000e+00  3.55471865e-06]","[[ 0.0001369   0.00420651]
 [-0.00011884  0.00344622]]",[],0.0,0.0
1787564481.6160364,2.6307176543739246,0.9793806633731856,2.264657811676459,"[ 7.48849980e-06 -9.11563148e-08  0.00000000e+00  0.00000000e+00
  0.00000000e+00 -5.94042714e-07 -9.11563148e-08  6.78426437e-06
  0.00000000e+00  0.00000000e+00  0.00000000e+00 -2.36429891e-07
  0.00000000e+00  0.00000000e+00  0.00000000e+00  0.00000000e+00
  0.00000000e+00  0.00000000e+00  0.00000000e+00  0.00000000e+00
  0.00000000e+00  0.00000000e+00  0.00000000e+00  0.00000000e+00
  0.00000000e+00  0.00000000e+00  0.00000000e+00  0.00000000e+00
  0.00000000e+00  0.00000000e+00 -5.94042714e-07 -2.36429891e-07
  0.00000000e+00  0.00000000e+00  0.00000000e+00  3.55471865e-06]","[[ 0.0001369   0.00420651]
 [-0.00011884  0.00344622]]",[],0.0,0.0
1787564481.660499,2.6307176543739246,0.9793806633731856,2.264657811676459,"[ 7.48849980e-06 -9.11563148e-08  0.00000000e+00  0.00000000e+00
  0.00000000e+00 -5.94042714e-07 -9.11563148e-08  6.78426437e-06
  0.00000000e+00  0.00000000e+00  0.00000000e+00 -2.36429891e-07
  0.00000000e+00  0.00000000e+00  0.00000000e+00  0.00000000e+00
  0.00000000e+00  0.00000000e+00  0.00000000e+00  0.00000000e+00
  0.00000000e+00  0.00000000e+00  0.00000000e+00  0.00000000e+00
  0.00000000e+00  0.00000000e+00  0.00000000e+00  0.00000000e+00
  0.00000000e+00  0.00000000e+00 -5.94042714e-07 -2.36429891e-07
  0.00000000e+00  0.00000000e+00  0.00000000e+00  3.55471865e-06]","[[ 0.0001369   0.00420651]
 [-0.00011884  0.00344622]]",[],0.0,0.0
1787564481.7153475,2.6307176543739246,0.9793806633731856,2.264657811676459,"[ 7.48849980e-06 -9.11563148e-08  0.00000000e+00  0.00000000e+00
  0.00000000e+00 -5.94042714e-07 -9.11563148e-08  6.78426437e-06
  0.00000000e+00  0.00000000e+00  0.00000000e+00 -2.36429891e-07
  0.00000000e+00  0.00000000e+00  0.00000000e+00  0.00000000e+00
  0.00000000e+00  0.00000000e+00  0.00000000e+00  0.00000000e+00
  0.00000000e+00  0.00000000e+00  0.00000000e+00  0.00000000e+00
  0.00000000e+00  0.00000000e+00  0.00000000e+00  0.00000000e+00
  0.00000000e+00  0.00000000e+00 -5.94042714e-07 -2.36429891e-07
  0.00000000e+00  0.00000000e+00  0.00000000e+00  3.55471865e-06]","[[ 0.0001369   0.00420651]
 [-0.00011884  0.00344622]]",[],0.0,0.0
1787564481.767975,2.6307176543739246,0.9793806633731856,2.264657811676459,"[ 7.48849980e-06 -9.11563148e-08  0.00000000e+00  0.00000000e+00
  0.00000000e+00 -5.94042714e-07 -9.11563148e-08  6.78426437e-06
  0.00000000e+00  0.00000000e+00  0.00000000e+00 -2.36429891e-07
  0.00000000e+00  0.00000000e+00  0.00000000e+00  0.00000000e+00
  0.00000000e+00  0.00000000e+00  0.00000000e+00  0.00000000e+00
  0.00000000e+00  0.00000000e+00  0.00000000e+00  0.00000000e+00
  0.00000000e+00  0.00000000e+00  0.00000000e+00  0.00000000e+00
  0.00000000e+00  0.00000000e+00 -5.94042714e-07 -2.36429891e-07
  0.00000000e+00  0.00000000e+00  0.00000000e+00  3.55471865e-06]","[[ 0.0001369   0.00420651]
 [-0.00011884  0.00344622]]",[],0.0,0.0
1787564481.8124177,2.6307176543739246,0.9793806633731856,2.264657811676459,"[ 7.48849980e-06 -9.11563148e-08  0.00000000e+00  0.00000000e+00
  0.00000000e+00 -5.94042714e-07 -9.11563148e-08  6.78426437e-06
  0.00000000e+00  0.00000000e+00  0.00000000e+00 -2.36429891e-07
  0.00000000e+00  0.00000000e+00  0.00000000e+00  0.00000000e+00
  0.00000000e+00  0.00000000e+00  0.00000000e+00  0.00000000e+00
  0.00000000e+00  0.00000000e+00  0.00000000e+00  0.00000000e+00
  0.00000000e+00  0.00000000e+00  0.00000000e+00  0.00000000e+00
  0.00000000e+00  0.00000000e+00 -5.94042714e-07 -2.36429891e-07
  0.00000000e+00  0.00000000e+00  0.00000000e+00  3.55471865e-06]","[[ 0.0001369   0.00420651]
 [-0.00011884  0.00344622]]",[],0.0,0.0
1787564481.8608353,2.6307176543739246,0.9793806633731856,2.264657811676459,"[ 7.48849980e-06 -9.11563148e-08  0.00000000e+00  0.00000000e+00
  0.00000000e+00 -5.94042714e-07 -9.11563148e-08  6.78426437e-06
  0.00000000e+00  0.00000000e+00  0.00000000e+00 -2.36429891e-07
  0.00000000e+00  0.00000000e+00  0.00000000e+00  0.00000000e+00
  0.00000000e+00  0.00000000e+00  0.00000000e+00  0.00000000e+00
  0.00000000e+00  0.00000000e+00  0.00000000e+00  0.00000000e+00
  0.00000000e+00  0.00000000e+00  0.00000000e+00  0.00000000e+00
  0.00000000e+00  0.00000000e+00 -5.94042714e-07 -2.36429891e-07
  0.00000000e+00  0.00000000e+00  0.00000000e+00  3.55471865e-06]","[[ 0.0001369   0.00420651]
 [-0.00011884  0.00344622]]",[],0.0,0.0
1787564481.911537,2.6307176543739246,0.9793806633731856,2.264657811676459,"[ 7.48849980e-06 -9.11563148e-08  0.00000000e+00  0.00000000e+00
  0.00000000e+00 -5.94042714e-07 -9.11563148e-08  6.78426437e-06
  0.00000000e+00  0.00000000e+00  0.00000000e+00 -2.36429891e-07
  0.00000000e+00  0.00000000e+00  0.00000000e+00  0.00000000e+00
  0.00000000e+00  0.00000000e+00  0.00000000e+00  0.00000000e+00
  0.00000000e+00  0.00000000e+00  0.00000000e+00  0.00000000e+00
  0.00000000e+00  0.00000000e+00  0.00000000e+00  0.00000000e+00
  0.00000000e+00  0.00000000e+00 -5.94042714e-07 -2.36429891e-07
  0.00000000e+00  0.00000000e+00  0.00000000e+00  3.55471865e-06]","[[ 0.0001369   0.00420651]
 [-0.00011884  0.00344622]]",[],0.0,0.0
1787564481.9597607,2.6307176543739246,0.9793806633731856,2.264657811676459,"[ 7.48849980e-06 -9.11563148e-08  0.00000000e+00  0.00000000e+00
  0.00000000e+00 -5.94042714e-07 -9.11563148e-08  6.78426437e-06
  0.00000000e+00  0.00000000e+00  0.00000000e+00 -2.36429891e-07
  0.00000000e+00  0.00000000e+00  0.00000000e+00  0.00000000e+00
  0.00000000e+00  0.00000000e+00  0.00000000e+00  0.00000000e+00
  0.00000000e+00  0.00000000e+00  0.00000000e+00  0.00000000e+00
  0.00000000e+00  0.00000000e+00  0.00000000e+00  0.00000000e+00
  0.00000000e+00  0.00000000e+00 -5.94042714e-07 -2.36429891e-07
  0.00000000e+00  0.00000000e+00  0.00000000e+00  3.55471865e-06]","[[ 0.0001369   0.00420651]
 [-0.00011884  0.00344622]]",[],0.0,0.0
1787564482.0155952,2.6307176543739246,0.9793806633731856,2.264657811676459,"[ 7.48849980e-06 -9.11563148e-08  0.00000000e+00  0.00000000e+00
  0.00000000e+00 -5.94042714e-07 -9.11563148e-08  6.78426437e-06
  0.00000000e+00  0.00000000e+00  0.00000000e+00 -2.36429891e-07
  0.00000000e+00  0.00000000e+00  0.00000000e+00  0.00000000e+00
  0.00000000e+00  0.00000000e+00  0.00000000e+00  0.00000000e+00
  0.00000000e+00  0.00000000e+00  0.00000000e+00  0.00000000e+00
  0.00000000e+00  0.00000000e+00  0.00000000e+00  0.00000000e+00
  0.00000000e+00  0.00000000e+00 -5.94042714e-07 -2.36429891e-07
  0.00000000e+00  0.00000000e+00  0.00000000e+00  3.55471865e-06]","[[ 0.0001369   0.00420651]
 [-0.00011884  0.00344622]]",[],0.0,0.0
1787564482.0622458,2.6307176543739246,0.9793806633731856,2.264657811676459,"[ 7.48849980e-06 -9.11563148e-08  0.00000000e+00  0.00000000e+00
  0.00000000e+00 -5.94042714e-07 -9.11563148e-08  6.78426437e-06
  0.00000000e+00  0.00000000e+00  0.00000000e+00 -2.36429891e-07
  0.00000000e+00  0.00000000e+00  0.00000000e+00  0.00000000e+00
  0.00000000e+00  0.00000000e+00  0.00000000e+00  0.00000000e+00
  0.00000000e+00  0.00000000e+00  0.00000000e+00  0.00000000e+00
  0.00000000e+00  0.00000000e+00  0.00000000e+00  0.00000000e+00
  0.00000000e+00  0.00000000e+00 -5.94042714e-07 -2.36429891e-07
  0.00000000e+00  0.00000000e+00  0.00000000e+00  3.55471865e-06]","[[ 0.0001369   0.00420651]
 [-0.00011884  0.00344622]]",[],0.0,0.0
1787564482.111349,2.6307176543739246,0.9793806633731856,2.264657811676459,"[ 7.48849980e-06 -9.11563148e-08  0.00000000e+00  0.00000000e+00
  0.00000000e+00 -5.94042714e-07 -9.11563148e-08  6.78426437e-06
  0.00000000e+00  0.00000000e+00  0.00000000e+00 -2.36429891e-07
  0.00000000e+00  0.00000000e+00  0.00000000e+00  0.00000000e+00
  0.00000000e+00  0.00000000e+00  0.00000000e+00  0.00000000e+00
  0.00000000e+00  0.00000000e+00  0.00000000e+00  0.00000000e+00
  0.00000000e+00  0.00000000e+00  0.00000000e+00  0.00000000e+00
  0.00000000e+00  0.00000000e+00 -5.94042714e-07 -2.36429891e-07
  0.00000000e+00  0.00000000e+00  0.00000000e+00  3.55471865e-06]","[[ 0.0001369   0.00420651]
 [-0.00011884  0.00344622]]",[],0.0,0.0
1787564482.168107,2.6307176543739246,0.9793806633731856,2.264657811676459,"[ 7.48849980e-06 -9.11563148e-08  0.00000000e+00  0.00000000e+00
  0.00000000e+00 -5.94042714e-07 -9.11563148e-08  6.78426437e-06
  0.00000000e+00  0.00000000e+00  0.00000000e+00 -2.36429891e-07
  0.00000000e+00  0.00000000e+00  0.00000000e+00  0.00000000e+00
  0.00000000e+00  0.00000000e+00  0.00000000e+00  0.00000000e+00
  0.00000000e+00  0.00000000e+00  0.00000000e+00  0.00000000e+00
  0.00000000e+00  0.00000000e+00  0.00000000e+00  0.00000000e+00
  0.00000000e+00  0.00000000e+00 -5.94042714e-07 -2.36429891e-07
  0.00000000e+00  0.00000000e+00  0.00000000e+00  3.55471865e-06]","[[ 0.0001369   0.00420651]
 [-0.00011884  0.00344622]]",[],0.0,0.0
1787564482.2096508,2.6260602028033895,0.9734214845349959,2.281413348117697,"[ 6.65999412e-06 -1.82410632e-07  0.00000000e+00  0.00000000e+00
  0.00000000e+00 -5.68970423e-07 -1.82410632e-07  6.07402121e-06
  0.00000000e+00  0.00000000e+00  0.00000000e+00 -2.42331148e-07
  0.00000000e+00  0.00000000e+00  0.00000000e+00  0.00000000e+00
  0.00000000e+00  0.00000000e+00  0.00000000e+00  0.00000000e+00
  0.00000000e+00  0.00000000e+00  0.00000000e+00  0.00000000e+00
  0.00000000e+00  0.00000000e+00  0.00000000e+00  0.00000000e+00
  0.00000000e+00  0.00000000e+00 -5.68970423e-07 -2.42331148e-07
  0.00000000e+00  0.00000000e+00  0.00000000e+00  3.57395645e-06]","[[ 0.00012302  0.00377891]
 [-0.00010869  0.00308335]]",[],0.0,0.0
1787564482.2630727,2.6260602028033895,0.9734214845349959,2.281413348117697,"[ 6.65999412e-06 -1.82410632e-07  0.00000000e+00  0.00000000e+00
  0.00000000e+00 -5.68970423e-07 -1.82410632e-07  6.07402121e-06
  0.00000000e+00  0.00000000e+00  0.00000000e+00 -2.42331148e-07
  0.00000000e+00  0.00000000e+00  0.00000000e+00  0.00000000e+00
  0.00000000e+00  0.00000000e+00  0.00000000e+00  0.00000000e+00
  0.00000000e+00  0.00000000e+00  0.00000000e+00  0.00000000e+00
  0.00000000e+00  0.00000000e+00  0.00000000e+00  0.00000000e+00
  0.00000000e+00  0.00000000e+00 -5.68970423e-07 -2.42331148e-07
  0.00000000e+00  0.00000000e+00  0.00000000e+00  3.57395645e-06]","[[ 0.00012302  0.00377891]
 [-0.00010869  0.00308335]]",[],0.0,0.0
1787564482.3125026,2.6260602028033895,0.9734214845349959,2.281413348117697,"[ 6.65999412e-06 -1.82410632e-07  0.00000000e+00  0.00000000e+00
  0.00000000e+00 -5.68970423e-07 -1.82410632e-07  6.07402121e-06
  0.00000000e+00  0.00000000e+00  0.00000000e+00 -2.42331148e-07
  0.00000000e+00  0.00000000e+00  0.00000000e+00  0.00000000e+00
  0.00000000e+00  0.00000000e+00  0.00000000e+00  0.00000000e+00
  0.00000000e+00  0.00000000e+00  0.00000000e+00  0.00000000e+00
  0.00000000e+00  0.00000000e+00  0.00000000e+00  0.00000000e+00
  0.00000000e+00  0.00000000e+00 -5.68970423e-07 -2.42331148e-07
  0.00000000e+00  0.00000000e+00  0.00000000e+00  3.57395645e-06]","[[ 0.00012302  0.00377891]
 [-0.00010869  0.00308335]]",[],0.0,0.0
1787564482.3600981,2.6260602028033895,0.9734214845349959,2.281413348117697,"[ 6.65999412e-06 -1.82410632e-07  0.00000000e+00  0.00000000e+00
  0.00000000e+00 -5.68970423e-07 -1.82410632e-07  6.07402121e-06
  0.00000000e+00  0.00000000e+00  0.00000000e+00 -2.42331148e-07
  0.00000000e+00  0.00000000e+00  0.00000000e+00  0.00000000e+00
  0.00000000e+00  0.00000000e+00  0.00000000e+00  0.00000000e+00
  0.00000000e+00  0.00000000e+00  0.00000000e+00  0.00000000e+00
  0.00000000e+00  0.00000000e+00  0.00000000e+00  0.00000000e+00
  0.00000000e+00  0.00000000e+00 -5.68970423e-07 -2.42331148e-07
  0.00000000e+00  0.00000000e+00  0.00000000e+00  3.57395645e-06]","[[ 0.00012302  0.00377891]
 [-0.00010869  0.00308335]]",[],0.0,0.0
1787564482.4141278,2.6260602028033895,0.9734214845349959,2.281413348117697,"[ 6.65999412e-06 -1.82410632e-07  0.00000000e+00  0.00000000e+00
  0.00000000e+00 -5.68970423e-07 -1.82410632e-07  6.07402121e-06
  0.00000000e+00  0.00000000e+00  0.00000000e+00 -2.42331148e-07
  0.00000000e+00  0.00000000e+00  0.00000000e+00  0.00000000e+00
  0.00000000e+00  0.00000000e+00  0.00000000e+00  0.00000000e+00
  0.00000000e+00  0.00000000e+00  0.00000000e+00  0.00000000e+00
  0.00000000e+00  0.00000000e+00  0.00000000e+00  0.00000000e+00
  0.00000000e+00  0.00000000e+00 -5.68970423e-07 -2.42331148e-07
  0.00000000e+00  0.00000000e+00  0.00000000e+00  3.57395645e-06]","[[ 0.00012302  0.00377891]
 [-0.00010869  0.00308335]]",[],0.0,0.0
1787564482.4987497,2.6260602028033895,0.9734214845349959,2.281413348117697,"[ 6.65999412e-06 -1.82410632e-07  0.00000000e+00  0.00000000e+00
  0.00000000e+00 -5.68970423e-07 -1.82410632e-07  6.07402121e-06
  0.00000000e+00  0.00000000e+00  0.00000000e+00 -2.42331148e-07
  0.00000000e+00  0.00000000e+00  0.00000000e+00  0.00000000e+00
  0.00000000e+00  0.00000000e+00  0.00000000e+00  0.00000000e+00
  0.00000000e+00  0.00000000e+00  0.00000000e+00  0.00000000e+00
  0.00000000e+00  0.00000000e+00  0.00000000e+00  0.00000000e+00
  0.00000000e+00  0.00000000e+00 -5.68970423e-07 -2.42331148e-07
  0.00000000e+00  0.00000000e+00  0.00000000e+00  3.57395645e-06]","[[ 0.00012302  0.00377891]
 [-0.00010869  0.00308335]]",[],0.0,0.0
1787564482.5110614,2.6260602028033895,0.9734214845349959,2.281413348117697,"[ 6.65999412e-06 -1.82410632e-07  0.00000000e+00  0.00000000e+00
  0.00000000e+00 -5.68970423e-07 -1.82410632e-07  6.07402121e-06
  0.00000000e+00  0.00000000e+00  0.00000000e+00 -2.42331148e-07
  0.00000000e+00  0.00000000e+00  0.00000000e+00  0.00000000e+00
  0.00000000e+00  0.00000000e+00  0.00000000e+00  0.00000000e+00
  0.00000000e+00  0.00000000e+00  0.00000000e+00  0.00000000e+00
  0.00000000e+00  0.00000000e+00  0.00000000e+00  0.00000000e+00
  0.00000000e+00  0.00000000e+00 -5.68970423e-07 -2.42331148e-07
  0.00000000e+00  0.00000000e+00  0.00000000e+00  3.57395645e-06]","[[ 0.00012302  0.00377891]
 [-0.00010869  0.00308335]]",[],0.0,0.0
1787564482.5604353,2.6260602028033895,0.9734214845349959,2.281413348117697,"[ 6.65999412e-06 -1.82410632e-07  0.00000000e+00  0.00000000e+00
  0.00000000e+00 -5.68970423e-07 -1.82410632e-07  6.07402121e-06
  0.00000000e+00  0.00000000e+00  0.00000000e+00 -2.42331148e-07
  0.00000000e+00  0.00000000e+00  0.00000000e+00  0.00000000e+00
  0.00000000e+00  0.00000000e+00  0.00000000e+00  0.00000000e+00
  0.00000000e+00  0.00000000e+00  0.00000000e+00  0.00000000e+00
  0.00000000e+00  0.00000000e+00  0.00000000e+00  0.00000000e+00
  0.00000000e+00  0.00000000e+00 -5.68970423e-07 -2.42331148e-07
  0.00000000e+00  0.00000000e+00  0.00000000e+00  3.57395645e-06]","[[ 0.00012302  0.00377891]
 [-0.00010869  0.00308335]]",[],0.0,0.0
1787564482.6284802,2.6260602028033895,0.9734214845349959,2.281413348117697,"[ 6.65999412e-06 -1.82410632e-07  0.00000000e+00  0.00000000e+00
  0.00000000e+00 -5.68970423e-07 -1.82410632e-07  6.07402121e-06
  0.00000000e+00  0.00000000e+00  0.00000000e+00 -2.42331148e-07
  0.00000000e+00  0.00000000e+00  0.00000000e+00  0.00000000e+00
  0.00000000e+00  0.00000000e+00  0.00000000e+00  0.00000000e+00
  0.00000000e+00  0.00000000e+00  0.00000000e+00  0.00000000e+00
  0.00000000e+00  0.00000000e+00  0.00000000e+00  0.00000000e+00
  0.00000000e+00  0.00000000e+00 -5.68970423e-07 -2.42331148e-07
  0.00000000e+00  0.00000000e+00  0.00000000e+00  3.57395645e-06]","[[ 0.00012302  0.00377891]
 [-0.00010869  0.00308335]]",[],0.0,0.0
1787564482.6648366,2.6260602028033895,0.9734214845349959,2.281413348117697,"[ 6.65999412e-06 -1.82410632e-07  0.00000000e+00  0.00000000e+00
  0.00000000e+00 -5.68970423e-07 -1.82410632e-07  6.07402121e-06
  0.00000000e+00  0.00000000e+00  0.00000000e+00 -2.42331148e-07
  0.00000000e+00  0.00000000e+00  0.00000000e+00  0.00000000e+00
  0.00000000e+00  0.00000000e+00  0.00000000e+00  0.00000000e+00
  0.00000000e+00  0.00000000e+00  0.00000000e+00  0.00000000e+00
  0.00000000e+00  0.00000000e+00  0.00000000e+00  0.00000000e+00
  0.00000000e+00  0.00000000e+00 -5.68970423e-07 -2.42331148e-07
  0.00000000e+00  0.00000000e+00  0.00000000e+00  3.57395645e-06]","[[ 0.00012302  0.00377891]
 [-0.00010869  0.00308335]]",[],0.0,0.0
1787564482.726448,2.6260602028033895,0.9734214845349959,2.281413348117697,"[ 6.65999412e-06 -1.82410632e-07  0.00000000e+00  0.00000000e+00
  0.00000000e+00 -5.68970423e-07 -1.82410632e-07  6.07402121e-06
  0.00000000e+00  0.00000000e+00  0.00000000e+00 -2.42331148e-07
  0.00000000e+00  0.00000000e+00  0.00000000e+00  0.00000000e+00
  0.00000000e+00  0.00000000e+00  0.00000000e+00  0.00000000e+00
  0.00000000e+00  0.00000000e+00  0.00000000e+00  0.00000000e+00
  0.00000000e+00  0.00000000e+00  0.00000000e+00  0.00000000e+00
  0.00000000e+00  0.00000000e+00 -5.68970423e-07 -2.42331148e-07
  0.00000000e+00  0.00000000e+00  0.00000000e+00  3.57395645e-06]","[[ 0.00012302  0.00377891]
 [-0.00010869  0.00308335]]",[],0.0,0.0
1787564482.773857,2.6260602028033895,0.9734214845349959,2.281413348117697,"[ 6.65999412e-06 -1.82410632e-07  0.00000000e+00  0.00000000e+00
  0.00000000e+00 -5.68970423e-07 -1.82410632e-07  6.07402121e-06
  0.00000000e+00  0.00000000e+00  0.00000000e+00 -2.42331148e-07
  0.00000000e+00  0.00000000e+00  0.00000000e+00  0.00000000e+00
  0.00000000e+00  0.00000000e+00  0.00000000e+00  0.00000000e+00
  0.00000000e+00  0.00000000e+00  0.00000000e+00  0.00000000e+00
  0.00000000e+00  0.00000000e+00  0.00000000e+00  0.00000000e+00
  0.00000000e+00  0.00000000e+00 -5.68970423e-07 -2.42331148e-07
  0.00000000e+00  0.00000000e+00  0.00000000e+00  3.57395645e-06]","[[ 0.00012302  0.00377891]
 [-0.00010869  0.00308335]]",[],0.0,0.0
1787564482.828738,2.6260602028033895,0.9734214845349959,2.281413348117697,"[ 6.65999412e-06 -1.82410632e-07  0.00000000e+00  0.00000000e+00
  0.00000000e+00 -5.68970423e-07 -1.82410632e-07  6.07402121e-06
  0.00000000e+00  0.00000000e+00  0.00000000e+00 -2.42331148e-07
  0.00000000e+00  0.00000000e+00  0.00000000e+00  0.00000000e+00
  0.00000000e+00  0.00000000e+00  0.00000000e+00  0.00000000e+00
  0.00000000e+00  0.00000000e+00  0.00000000e+00  0.00000000e+00
  0.00000000e+00  0.00000000e+00  0.00000000e+00  0.00000000e+00
  0.00000000e+00  0.00000000e+00 -5.68970423e-07 -2.42331148e-07
  0.00000000e+00  0.00000000e+00  0.00000000e+00  3.57395645e-06]","[[ 0.00012302  0.00377891]
 [-0.00010869  0.00308335]]",[],0.0,0.0
1787564482.8597786,2.6260602028033895,0.9734214845349959,2.281413348117697,"[ 6.65999412e-06 -1.82410632e-07  0.00000000e+00  0.00000000e+00
  0.00000000e+00 -5.68970423e-07 -1.82410632e-07  6.07402121e-06
  0.00000000e+00  0.00000000e+00  0.00000000e+00 -2.42331148e-07
  0.00000000e+00  0.00000000e+00  0.00000000e+00  0.00000000e+00
  0.00000000e+00  0.00000000e+00  0.00000000e+00  0.00000000e+00
  0.00000000e+00  0.00000000e+00  0.00000000e+00  0.00000000e+00
  0.00000000e+00  0.00000000e+00  0.00000000e+00  0.00000000e+00
  0.00000000e+00  0.00000000e+00 -5.68970423e-07 -2.42331148e-07
  0.00000000e+00  0.00000000e+00  0.00000000e+00  3.57395645e-06]","[[ 0.00012302  0.00377891]
 [-0.00010869  0.00308335]]",[],0.0,0.0
1787564482.9287255,2.6260602028033895,0.9734214845349959,2.281413348117697,"[ 6.65999412e-06 -1.82410632e-07  0.00000000e+00  0.00000000e+00
  0.00000000e+00 -5.68970423e-07 -1.82410632e-07  6.07402121e-06
  0.00000000e+00  0.00000000e+00  0.00000000e+00 -2.42331148e-07
  0.00000000e+00  0.00000000e+00  0.00000000e+00  0.00000000e+00
  0.00000000e+00  0.00000000e+00  0.00000000e+00  0.00000000e+00
  0.00000000e+00  0.00000000e+00  0.00000000e+00  0.00000000e+00
  0.00000000e+00  0.00000000e+00  0.00000000e+00  0.00000000e+00
  0.00000000e+00  0.00000000e+00 -5.68970423e-07 -2.42331148e-07
  0.00000000e+00  0.00000000e+00  0.00000000e+00  3.57395645e-06]","[[ 0.00012302  0.00377891]
 [-0.00010869  0.00308335]]",[],0.0,0.0
1787564482.9768407,2.6260602028033895,0.9734214845349959,2.281413348117697,"[ 6.65999412e-06 -1.82410632e-07  0.00000000e+00  0.00000000e+00
  0.00000000e+00 -5.68970423e-07 -1.82410632e-07  6.07402121e-06
  0.00000000e+00  0.00000000e+00  0.00000000e+00 -2.42331148e-07
  0.00000000e+00  0.00000000e+00  0.00000000e+00  0.00000000e+00
  0.00000000e+00  0.00000000e+00  0.00000000e+00  0.00000000e+00
  0.00000000e+00  0.00000000e+00  0.00000000e+00  0.00000000e+00
  0.00000000e+00  0.00000000e+00  0.00000000e+00  0.00000000e+00
  0.00000000e+00  0.00000000e+00 -5.68970423e-07 -2.42331148e-07
  0.00000000e+00  0.00000000e+00  0.00000000e+00  3.57395645e-06]","[[ 0.00012302  0.00377891]
 [-0.00010869  0.00308335]]",[],0.0,0.0
1787564483.0328043,2.6260602028033895,0.9734214845349959,2.281413348117697,"[ 6.65999412e-06 -1.82410632e-07  0.00000000e+00  0.00000000e+00
  0.00000000e+00 -5.68970423e-07 -1.82410632e-07  6.07402121e-06
  0.00000000e+00  0.00000000e+00  0.00000000e+00 -2.42331148e-07
  0.00000000e+00  0.00000000e+00  0.00000000e+00  0.00000000e+00
  0.00000000e+00  0.00000000e+00  0.00000000e+00  0.00000000e+00
  0.00000000e+00  0.00000000e+00  0.00000000e+00  0.00000000e+00
  0.00000000e+00  0.00000000e+00  0.00000000e+00  0.00000000e+00
  0.00000000e+00  0.00000000e+00 -5.68970423e-07 -2.42331148e-07
  0.00000000e+00  0.00000000e+00  0.00000000e+00  3.57395645e-06]","[[ 0.00012302  0.00377891]
 [-0.00010869  0.00308335]]",[],0.0,0.0
1787564483.0604894,2.6192647808781735,0.967219272066197,2.2868581874338023,"[ 6.01251624e-06 -2.53339361e-07  0.00000000e+00  0.00000000e+00
  0.00000000e+00 -4.52332670e-07 -2.53339361e-07  5.54458872e-06
  0.00000000e+00  0.00000000e+00  0.00000000e+00 -2.00622401e-07
  0.00000000e+00  0.00000000e+00  0.00000000e+00  0.00000000e+00
  0.00000000e+00  0.00000000e+00  0.00000000e+00  0.00000000e+00
  0.00000000e+00  0.00000000e+00  0.00000000e+00  0.00000000e+00
  0.00000000e+00  0.00000000e+00  0.00000000e+00  0.00000000e+00
  0.00000000e+00  0.00000000e+00 -4.52332670e-07 -2.00622401e-07
  0.00000000e+00  0.00000000e+00  0.00000000e+00  3.60540307e-06]","[[ 0.00011231  0.00327718]
 [-0.00010105  0.00273441]]",[],0.0,0.0
1787564483.1422496,2.6192647808781735,0.967219272066197,2.2868581874338023,"[ 6.01251624e-06 -2.53339361e-07  0.00000000e+00  0.00000000e+00
  0.00000000e+00 -4.52332670e-07 -2.53339361e-07  5.54458872e-06
  0.00000000e+00  0.00000000e+00  0.00000000e+00 -2.00622401e-07
  0.00000000e+00  0.00000000e+00  0.00000000e+00  0.00000000e+00
  0.00000000e+00  0.00000000e+00  0.00000000e+00  0.00000000e+00
  0.00000000e+00  0.00000000e+00  0.00000000e+00  0.00000000e+00
  0.00000000e+00  0.00000000e+00  0.00000000e+00  0.00000000e+00
  0.00000000e+00  0.00000000e+00 -4.52332670e-07 -2.00622401e-07
  0.00000000e+00  0.00000000e+00  0.00000000e+00  3.60540307e-06]","[[ 0.00011231  0.00327718]
 [-0.00010105  0.00273441]]",[],0.0,0.0
1787564483.1695518,2.6192647808781735,0.967219272066197,2.2868581874338023,"[ 6.01251624e-06 -2.53339361e-07  0.00000000e+00  0.00000000e+00
  0.00000000e+00 -4.52332670e-07 -2.53339361e-07  5.54458872e-06
  0.00000000e+00  0.00000000e+00  0.00000000e+00 -2.00622401e-07
  0.00000000e+00  0.00000000e+00  0.00000000e+00  0.00000000e+00
  0.00000000e+00  0.00000000e+00  0.00000000e+00  0.00000000e+00
  0.00000000e+00  0.00000000e+00  0.00000000e+00  0.00000000e+00
  0.00000000e+00  0.00000000e+00  0.00000000e+00  0.00000000e+00
  0.00000000e+00  0.00000000e+00 -4.52332670e-07 -2.00622401e-07
  0.00000000e+00  0.00000000e+00  0.00000000e+00  3.60540307e-06]","[[ 0.00011231  0.00327718]
 [-0.00010105  0.00273441]]",[],0.0,0.0
1787564483.2258427,2.6192647808781735,0.967219272066197,2.2868581874338023,"[ 6.01251624e-06 -2.53339361e-07  0.00000000e+00  0.00000000e+00
  0.00000000e+00 -4.52332670e-07 -2.53339361e-07  5.54458872e-06
  0.00000000e+00  0.00000000e+00  0.00000000e+00 -2.00622401e-07
  0.00000000e+00  0.00000000e+00  0.00000000e+00  0.00000000e+00
  0.00000000e+00  0.00000000e+00  0.00000000e+00  0.00000000e+00
  0.00000000e+00  0.00000000e+00  0.00000000e+00  0.00000000e+00
  0.00000000e+00  0.00000000e+00  0.00000000e+00  0.00000000e+00
  0.00000000e+00  0.00000000e+00 -4.52332670e-07 -2.00622401e-07
  0.00000000e+00  0.00000000e+00  0.00000000e+00  3.60540307e-06]","[[ 0.00011231  0.00327718]
 [-0.00010105  0.00273441]]",[],0.0,0.0
1787564483.2956173,2.6192647808781735,0.967219272066197,2.2868581874338023,"[ 6.01251624e-06 -2.53339361e-07  0.00000000e+00  0.00000000e+00
  0.00000000e+00 -4.52332670e-07 -2.53339361e-07  5.54458872e-06
  0.00000000e+00  0.00000000e+00  0.00000000e+00 -2.00622401e-07
  0.00000000e+00  0.00000000e+00  0.00000000e+00  0.00000000e+00
  0.00000000e+00  0.00000000e+00  0.00000000e+00  0.00000000e+00
  0.00000000e+00  0.00000000e+00  0.00000000e+00  0.00000000e+00
  0.00000000e+00  0.00000000e+00  0.00000000e+00  0.00000000e+00
  0.00000000e+00  0.00000000e+00 -4.52332670e-07 -2.00622401e-07
  0.00000000e+00  0.00000000e+00  0.00000000e+00  3.60540307e-06]","[[ 0.00011231  0.00327718]
 [-0.00010105  0.00273441]]",[],0.0,0.0
1787564483.7101445,2.6192647808781735,0.967219272066197,2.2868581874338023,"[ 6.01251624e-06 -2.53339361e-07  0.00000000e+00  0.00000000e+00
  0.00000000e+00 -4.52332670e-07 -2.53339361e-07  5.54458872e-06
  0.00000000e+00  0.00000000e+00  0.00000000e+00 -2.00622401e-07
  0.00000000e+00  0.00000000e+00  0.00000000e+00  0.00000000e+00
  0.00000000e+00  0.00000000e+00  0.00000000e+00  0.00000000e+00
  0.00000000e+00  0.00000000e+00  0.00000000e+00  0.00000000e+00
  0.00000000e+00  0.00000000e+00  0.00000000e+00  0.00000000e+00
  0.00000000e+00  0.00000000e+00 -4.52332670e-07 -2.00622401e-07
  0.00000000e+00  0.00000000e+00  0.00000000e+00  3.60540307e-06]","[[ 0.00011231  0.00327718]
 [-0.00010105  0.00273441]]",[],0.0,0.0
1787564484.3899677,2.613535653872053,0.9606305444894437,2.303291498188126,"[ 5.47325650e-06 -2.92428587e-07  0.00000000e+00  0.00000000e+00
  0.00000000e+00 -4.10403795e-07 -2.92428587e-07  5.05972394e-06
  0.00000000e+00  0.00000000e+00  0.00000000e+00 -1.60533782e-07
  0.00000000e+00  0.00000000e+00  0.00000000e+00  0.00000000e+00
  0.00000000e+00  0.00000000e+00  0.00000000e+00  0.00000000e+00
  0.00000000e+00  0.00000000e+00  0.00000000e+00  0.00000000e+00
  0.00000000e+00  0.00000000e+00  0.00000000e+00  0.00000000e+00
  0.00000000e+00  0.00000000e+00 -4.10403795e-07 -1.60533782e-07
  0.00000000e+00  0.00000000e+00  0.00000000e+00  3.41336476e-06]","[[ 1.02998345e-04  2.96258888e-03]
 [-9.36117399e-05  2.42324059e-03]]",[],0.0,0.0
1787564484.4113433,2.613535653872053,0.9606305444894437,2.303291498188126,"[ 5.47325650e-06 -2.92428587e-07  0.00000000e+00  0.00000000e+00
  0.00000000e+00 -4.10403795e-07 -2.92428587e-07  5.05972394e-06
  0.00000000e+00  0.00000000e+00  0.00000000e+00 -1.60533782e-07
  0.00000000e+00  0.00000000e+00  0.00000000e+00  0.00000000e+00
  0.00000000e+00  0.00000000e+00  0.00000000e+00  0.00000000e+00
  0.00000000e+00  0.00000000e+00  0.00000000e+00  0.00000000e+00
  0.00000000e+00  0.00000000e+00  0.00000000e+00  0.00000000e+00
  0.00000000e+00  0.00000000e+00 -4.10403795e-07 -1.60533782e-07
  0.00000000e+00  0.00000000e+00  0.00000000e+00  3.41336476e-06]","[[ 1.02998345e-04  2.96258888e-03]
 [-9.36117399e-05  2.42324059e-03]]",[],0.0,0.0
1787564484.4605973,2.609139636936852,0.9569866221264077,2.312320198076762,"[ 5.04148763e-06 -3.21973107e-07  0.00000000e+00  0.00000000e+00
  0.00000000e+00 -3.86726586e-07 -3.21973107e-07  4.69932239e-06
  0.00000000e+00  0.00000000e+00  0.00000000e+00 -9.49166712e-08
  0.00000000e+00  0.00000000e+00  0.00000000e+00  0.00000000e+00
  0.00000000e+00  0.00000000e+00  0.00000000e+00  0.00000000e+00
  0.00000000e+00  0.00000000e+00  0.00000000e+00  0.00000000e+00
  0.00000000e+00  0.00000000e+00  0.00000000e+00  0.00000000e+00
  0.00000000e+00  0.00000000e+00 -3.86726586e-07 -9.49166712e-08
  0.00000000e+00  0.00000000e+00  0.00000000e+00  3.40702389e-06]","[[ 9.55176462e-05  2.72711887e-03]
 [-8.81053392e-05  2.13098998e-03]]",[],0.0,0.0
1787564484.6672208,2.609139636936852,0.9569866221264077,2.312320198076762,"[ 5.04148763e-06 -3.21973107e-07  0.00000000e+00  0.00000000e+00
  0.00000000e+00 -3.86726586e-07 -3.21973107e-07  4.69932239e-06
  0.00000000e+00  0.00000000e+00  0.00000000e+00 -9.49166712e-08
  0.00000000e+00  0.00000000e+00  0.00000000e+00  0.00000000e+00
  0.00000000e+00  0.00000000e+00  0.00000000e+00  0.00000000e+00
  0.00000000e+00  0.00000000e+00  0.00000000e+00  0.00000000e+00
  0.00000000e+00  0.00000000e+00  0.00000000e+00  0.00000000e+00
  0.00000000e+00  0.00000000e+00 -3.86726586e-07 -9.49166712e-08
  0.00000000e+00  0.00000000e+00  0.00000000e+00  3.40702389e-06]","[[ 9.55176462e-05  2.72711887e-03]
 [-8.81053392e-05  2.13098998e-03]]",[],0.0,0.0
1787564485.0720506,2.609139636936852,0.9569866221264077,2.312320198076762,"[ 5.04148763e-06 -3.21973107e-07  0.00000000e+00  0.00000000e+00
  0.00000000e+00 -3.86726586e-07 -3.21973107e-07  4.69932239e-06
  0.00000000e+00  0.00000000e+00  0.00000000e+00 -9.49166712e-08
  0.00000000e+00  0.00000000e+00  0.00000000e+00  0.00000000e+00
  0.00000000e+00  0.00000000e+00  0.00000000e+00  0.00000000e+00
  0.00000000e+00  0.00000000e+00  0.00000000e+00  0.00000000e+00
  0.00000000e+00  0.00000000e+00  0.00000000e+00  0.00000000e+00
  0.00000000e+00  0.00000000e+00 -3.86726586e-07 -9.49166712e-08
  0.00000000e+00  0.00000000e+00  0.00000000e+00  3.40702389e-06]","[[ 9.55176462e-05  2.72711887e-03]
 [-8.81053392e-05  2.13098998e-03]]",[],0.0,0.0
1787564485.1117527,2.609139636936852,0.9569866221264077,2.312320198076762,"[ 5.04148763e-06 -3.21973107e-07  0.00000000e+00  0.00000000e+00
  0.00000000e+00 -3.86726586e-07 -3.21973107e-07  4.69932239e-06
  0.00000000e+00  0.00000000e+00  0.00000000e+00 -9.49166712e-08
  0.00000000e+00  0.00000000e+00  0.00000000e+00  0.00000000e+00
  0.00000000e+00  0.00000000e+00  0.00000000e+00  0.00000000e+00
  0.00000000e+00  0.00000000e+00  0.00000000e+00  0.00000000e+00
  0.00000000e+00  0.00000000e+00  0.00000000e+00  0.00000000e+00
  0.00000000e+00  0.00000000e+00 -3.86726586e-07 -9.49166712e-08
  0.00000000e+00  0.00000000e+00  0.00000000e+00  3.40702389e-06]","[[ 9.55176462e-05  2.72711887e-03]
 [-8.81053392e-05  2.13098998e-03]]",[],0.0,0.0
1787564485.159934,2.609139636936852,0.9569866221264077,2.312320198076762,"[ 5.04148763e-06 -3.21973107e-07  0.00000000e+00  0.00000000e+00
  0.00000000e+00 -3.86726586e-07 -3.21973107e-07  4.69932239e-06
  0.00000000e+00  0.00000000e+00  0.00000000e+00 -9.49166712e-08
  0.00000000e+00  0.00000000e+00  0.00000000e+00  0.00000000e+00
  0.00000000e+00  0.00000000e+00  0.00000000e+00  0.00000000e+00
  0.00000000e+00  0.00000000e+00  0.00000000e+00  0.00000000e+00
  0.00000000e+00  0.00000000e+00  0.00000000e+00  0.00000000e+00
  0.00000000e+00  0.00000000e+00 -3.86726586e-07 -9.49166712e-08
  0.00000000e+00  0.00000000e+00  0.00000000e+00  3.40702389e-06]","[[ 9.55176462e-05  2.72711887e-03]
 [-8.81053392e-05  2.13098998e-03]]",[],0.0,0.0
1787564485.8162944,2.606898981535318,0.9526065801263337,2.3272127477609175,"[ 4.67280339e-06 -3.78121127e-07  0.00000000e+00  0.00000000e+00
  0.00000000e+00 -3.34258345e-07 -3.78121127e-07  4.38035665e-06
  0.00000000e+00  0.00000000e+00  0.00000000e+00 -1.11202654e-07
  0.00000000e+00  0.00000000e+00  0.00000000e+00  0.00000000e+00
  0.00000000e+00  0.00000000e+00  0.00000000e+00  0.00000000e+00
  0.00000000e+00  0.00000000e+00  0.00000000e+00  0.00000000e+00
  0.00000000e+00  0.00000000e+00  0.00000000e+00  0.00000000e+00
  0.00000000e+00  0.00000000e+00 -3.34258345e-07 -1.11202654e-07
  0.00000000e+00  0.00000000e+00  0.00000000e+00  3.42926573e-06]","[[ 8.97659529e-05  2.45712813e-03]
 [-8.36705937e-05  1.98521305e-03]]",[],0.0,0.0
1787564486.486912,2.606173858131134,0.9488027495477794,2.341712032648556,"[ 4.36051094e-06 -3.97824180e-07  0.00000000e+00  0.00000000e+00
  0.00000000e+00 -3.64967093e-07 -3.97824180e-07  4.10366086e-06
  0.00000000e+00  0.00000000e+00  0.00000000e+00 -8.00209916e-08
  0.00000000e+00  0.00000000e+00  0.00000000e+00  0.00000000e+00
  0.00000000e+00  0.00000000e+00  0.00000000e+00  0.00000000e+00
  0.00000000e+00  0.00000000e+00  0.00000000e+00  0.00000000e+00
  0.00000000e+00  0.00000000e+00  0.00000000e+00  0.00000000e+00
  0.00000000e+00  0.00000000e+00 -3.64967093e-07 -8.00209916e-08
  0.00000000e+00  0.00000000e+00  0.00000000e+00  3.32715065e-06]","[[ 8.44320879e-05  2.36326071e-03]
 [-7.92788060e-05  1.79597765e-03]]",[],0.0,0.0
1787564486.511369,2.603892407066479,0.9456139472417268,2.3507467735014806,"[ 4.07912078e-06 -4.08136149e-07  0.00000000e+00  0.00000000e+00
  0.00000000e+00 -3.36666782e-07 -4.08136149e-07  3.85550826e-06
  0.00000000e+00  0.00000000e+00  0.00000000e+00 -8.38040312e-08
  0.00000000e+00  0.00000000e+00  0.00000000e+00  0.00000000e+00
  0.00000000e+00  0.00000000e+00  0.00000000e+00  0.00000000e+00
  0.00000000e+00  0.00000000e+00  0.00000000e+00  0.00000000e+00
  0.00000000e+00  0.00000000e+00  0.00000000e+00  0.00000000e+00
  0.00000000e+00  0.00000000e+00 -3.36666782e-07 -8.38040312e-08
  0.00000000e+00  0.00000000e+00  0.00000000e+00  3.24355080e-06]","[[ 7.95376626e-05  2.18787864e-03]
 [-7.51700656e-05  1.68275755e-03]]",[],0.0,0.0
1787564487.1280515,2.603892407066479,0.9456139472417268,2.3507467735014806,"[ 4.07912078e-06 -4.08136149e-07  0.00000000e+00  0.00000000e+00
  0.00000000e+00 -3.36666782e-07 -4.08136149e-07  3.85550826e-06
  0.00000000e+00  0.00000000e+00  0.00000000e+00 -8.38040312e-08
  0.00000000e+00  0.00000000e+00  0.00000000e+00  0.00000000e+00
  0.00000000e+00  0.00000000e+00  0.00000000e+00  0.00000000e+00
  0.00000000e+00  0.00000000e+00  0.00000000e+00  0.00000000e+00
  0.00000000e+00  0.00000000e+00  0.00000000e+00  0.00000000e+00
  0.00000000e+00  0.00000000e+00 -3.36666782e-07 -8.38040312e-08
  0.00000000e+00  0.00000000e+00  0.00000000e+00  3.24355080e-06]","[[ 7.95376626e-05  2.18787864e-03]
 [-7.51700656e-05  1.68275755e-03]]",[],0.0,0.0
1787564487.1734977,2.6032804851386553,0.9426816068946204,2.35060462434153,"[ 3.84573250e-06 -4.10799000e-07  0.00000000e+00  0.00000000e+00
  0.00000000e+00 -3.09618118e-07 -4.10799000e-07  3.64209773e-06
  0.00000000e+00  0.00000000e+00  0.00000000e+00 -1.28537541e-07
  0.00000000e+00  0.00000000e+00  0.00000000e+00  0.00000000e+00
  0.00000000e+00  0.00000000e+00  0.00000000e+00  0.00000000e+00
  0.00000000e+00  0.00000000e+00  0.00000000e+00  0.00000000e+00
  0.00000000e+00  0.00000000e+00  0.00000000e+00  0.00000000e+00
  0.00000000e+00  0.00000000e+00 -3.09618118e-07 -1.28537541e-07
  0.00000000e+00  0.00000000e+00  0.00000000e+00  3.32731382e-06]","[[ 7.53559144e-05  2.04061677e-03]
 [-7.15417184e-05  1.65703466e-03]]",[],0.0,0.0
1787564487.265627,2.6032804851386553,0.9426816068946204,2.35060462434153,"[ 3.84573250e-06 -4.10799000e-07  0.00000000e+00  0.00000000e+00
  0.00000000e+00 -3.09618118e-07 -4.10799000e-07  3.64209773e-06
  0.00000000e+00  0.00000000e+00  0.00000000e+00 -1.28537541e-07
  0.00000000e+00  0.00000000e+00  0.00000000e+00  0.00000000e+00
  0.00000000e+00  0.00000000e+00  0.00000000e+00  0.00000000e+00
  0.00000000e+00  0.00000000e+00  0.00000000e+00  0.00000000e+00
  0.00000000e+00  0.00000000e+00  0.00000000e+00  0.00000000e+00
  0.00000000e+00  0.00000000e+00 -3.09618118e-07 -1.28537541e-07
  0.00000000e+00  0.00000000e+00  0.00000000e+00  3.32731382e-06]","[[ 7.53559144e-05  2.04061677e-03]
 [-7.15417184e-05  1.65703466e-03]]",[],0.0,0.0
1787564487.822502,2.6032804851386553,0.9426816068946204,2.35060462434153,"[ 3.84573250e-06 -4.10799000e-07  0.00000000e+00  0.00000000e+00
  0.00000000e+00 -3.09618118e-07 -4.10799000e-07  3.64209773e-06
  0.00000000e+00  0.00000000e+00  0.00000000e+00 -1.28537541e-07
  0.00000000e+00  0.00000000e+00  0.00000000e+00  0.00000000e+00
  0.00000000e+00  0.00000000e+00  0.00000000e+00  0.00000000e+00
  0.00000000e+00  0.00000000e+00  0.00000000e+00  0.00000000e+00
  0.00000000e+00  0.00000000e+00  0.00000000e+00  0.00000000e+00
  0.00000000e+00  0.00000000e+00 -3.09618118e-07 -1.28537541e-07
  0.00000000e+00  0.00000000e+00  0.00000000e+00  3.32731382e-06]","[[ 7.53559144e-05  2.04061677e-03]
 [-7.15417184e-05  1.65703466e-03]]",[],0.0,0.0
1787564487.86864,2.6021295042654033,0.9397888521756288,2.3501356891273346,"[ 3.66008039e-06 -4.27029144e-07  0.00000000e+00  0.00000000e+00
  0.00000000e+00 -3.03695635e-07 -4.27029144e-07  3.47517002e-06
  0.00000000e+00  0.00000000e+00  0.00000000e+00 -6.08726594e-08
  0.00000000e+00  0.00000000e+00  0.00000000e+00  0.00000000e+00
  0.00000000e+00  0.00000000e+00  0.00000000e+00  0.00000000e+00
  0.00000000e+00  0.00000000e+00  0.00000000e+00  0.00000000e+00
  0.00000000e+00  0.00000000e+00  0.00000000e+00  0.00000000e+00
  0.00000000e+00  0.00000000e+00 -3.03695635e-07 -6.08726594e-08
  0.00000000e+00  0.00000000e+00  0.00000000e+00  3.40156559e-06]","[[ 7.22998808e-05  1.94176597e-03]
 [-6.89352471e-05  1.46079616e-03]]",[],0.0,0.0
1787564487.9284444,2.6021295042654033,0.9397888521756288,2.3501356891273346,"[ 3.66008039e-06 -4.27029144e-07  0.00000000e+00  0.00000000e+00
  0.00000000e+00 -3.03695635e-07 -4.27029144e-07  3.47517002e-06
  0.00000000e+00  0.00000000e+00  0.00000000e+00 -6.08726594e-08
  0.00000000e+00  0.00000000e+00  0.00000000e+00  0.00000000e+00
  0.00000000e+00  0.00000000e+00  0.00000000e+00  0.00000000e+00
  0.00000000e+00  0.00000000e+00  0.00000000e+00  0.00000000e+00
  0.00000000e+00  0.00000000e+00  0.00000000e+00  0.00000000e+00
  0.00000000e+00  0.00000000e+00 -3.03695635e-07 -6.08726594e-08
  0.00000000e+00  0.00000000e+00  0.00000000e+00  3.40156559e-06]","[[ 7.22998808e-05  1.94176597e-03]
 [-6.89352471e-05  1.46079616e-03]]",[],0.0,0.0
1787564487.961822,2.6021295042654033,0.9397888521756288,2.3501356891273346,"[ 3.66008039e-06 -4.27029144e-07  0.00000000e+00  0.00000000e+00
  0.00000000e+00 -3.03695635e-07 -4.27029144e-07  3.47517002e-06
  0.00000000e+00  0.00000000e+00  0.00000000e+00 -6.08726594e-08
  0.00000000e+00  0.00000000e+00  0.00000000e+00  0.00000000e+00
  0.00000000e+00  0.00000000e+00  0.00000000e+00  0.00000000e+00
  0.00000000e+00  0.00000000e+00  0.00000000e+00  0.00000000e+00
  0.00000000e+00  0.00000000e+00  0.00000000e+00  0.00000000e+00
  0.00000000e+00  0.00000000e+00 -3.03695635e-07 -6.08726594e-08
  0.00000000e+00  0.00000000e+00  0.00000000e+00  3.40156559e-06]","[[ 7.22998808e-05  1.94176597e-03]
 [-6.89352471e-05  1.46079616e-03]]",[],0.0,0.0
1787564488.0165381,2.6021295042654033,0.9397888521756288,2.3501356891273346,"[ 3.66008039e-06 -4.27029144e-07  0.00000000e+00  0.00000000e+00
  0.00000000e+00 -3.03695635e-07 -4.27029144e-07  3.47517002e-06
  0.00000000e+00  0.00000000e+00  0.00000000e+00 -6.08726594e-08
  0.00000000e+00  0.00000000e+00  0.00000000e+00  0.00000000e+00
  0.00000000e+00  0.00000000e+00  0.00000000e+00  0.00000000e+00
  0.00000000e+00  0.00000000e+00  0.00000000e+00  0.00000000e+00
  0.00000000e+00  0.00000000e+00  0.00000000e+00  0.00000000e+00
  0.00000000e+00  0.00000000e+00 -3.03695635e-07 -6.08726594e-08
  0.00000000e+00  0.00000000e+00  0.00000000e+00  3.40156559e-06]","[[ 7.22998808e-05  1.94176597e-03]
 [-6.89352471e-05  1.46079616e-03]]",[],0.0,0.0
1787564488.062775,2.6021295042654033,0.9397888521756288,2.3501356891273346,"[ 3.66008039e-06 -4.27029144e-07  0.00000000e+00  0.00000000e+00
  0.00000000e+00 -3.03695635e-07 -4.27029144e-07  3.47517002e-06
  0.00000000e+00  0.00000000e+00  0.00000000e+00 -6.08726594e-08
  0.00000000e+00  0.00000000e+00  0.00000000e+00  0.00000000e+00
  0.00000000e+00  0.00000000e+00  0.00000000e+00  0.00000000e+00
  0.00000000e+00  0.00000000e+00  0.00000000e+00  0.00000000e+00
  0.00000000e+00  0.00000000e+00  0.00000000e+00  0.00000000e+00
  0.00000000e+00  0.00000000e+00 -3.03695635e-07 -6.08726594e-08
  0.00000000e+00  0.00000000e+00  0.00000000e+00  3.40156559e-06]","[[ 7.22998808e-05  1.94176597e-03]
 [-6.89352471e-05  1.46079616e-03]]",[],0.0,0.0
1787564488.1201847,2.6021295042654033,0.9397888521756288,2.3501356891273346,"[ 3.66008039e-06 -4.27029144e-07  0.00000000e+00  0.00000000e+00
  0.00000000e+00 -3.03695635e-07 -4.27029144e-07  3.47517002e-06
  0.00000000e+00  0.00000000e+00  0.00000000e+00 -6.08726594e-08
  0.00000000e+00  0.00000000e+00  0.00000000e+00  0.00000000e+00
  0.00000000e+00  0.00000000e+00  0.00000000e+00  0.00000000e+00
  0.00000000e+00  0.00000000e+00  0.00000000e+00  0.00000000e+00
  0.00000000e+00  0.00000000e+00  0.00000000e+00  0.00000000e+00
  0.00000000e+00  0.00000000e+00 -3.03695635e-07 -6.08726594e-08
  0.00000000e+00  0.00000000e+00  0.00000000e+00  3.40156559e-06]","[[ 7.22998808e-05  1.94176597e-03]
 [-6.89352471e-05  1.46079616e-03]]",[],0.0,0.0
1787564488.1734405,2.6021295042654033,0.9397888521756288,2.3501356891273346,"[ 3.66008039e-06 -4.27029144e-07  0.00000000e+00  0.00000000e+00
  0.00000000e+00 -3.03695635e-07 -4.27029144e-07  3.47517002e-06
  0.00000000e+00  0.00000000e+00  0.00000000e+00 -6.08726594e-08
  0.00000000e+00  0.00000000e+00  0.00000000e+00  0.00000000e+00
  0.00000000e+00  0.00000000e+00  0.00000000e+00  0.00000000e+00
  0.00000000e+00  0.00000000e+00  0.00000000e+00  0.00000000e+00
  0.00000000e+00  0.00000000e+00  0.00000000e+00  0.00000000e+00
  0.00000000e+00  0.00000000e+00 -3.03695635e-07 -6.08726594e-08
  0.00000000e+00  0.00000000e+00  0.00000000e+00  3.40156559e-06]","[[ 7.22998808e-05  1.94176597e-03]
 [-6.89352471e-05  1.46079616e-03]]",[],0.0,0.0
1787564488.2105286,2.6021295042654033,0.9397888521756288,2.3501356891273346,"[ 3.66008039e-06 -4.27029144e-07  0.00000000e+00  0.00000000e+00
  0.00000000e+00 -3.03695635e-07 -4.27029144e-07  3.47517002e-06
  0.00000000e+00  0.00000000e+00  0.00000000e+00 -6.08726594e-08
  0.00000000e+00  0.00000000e+00  0.00000000e+00  0.00000000e+00
  0.00000000e+00  0.00000000e+00  0.00000000e+00  0.00000000e+00
  0.00000000e+00  0.00000000e+00  0.00000000e+00  0.00000000e+00
  0.00000000e+00  0.00000000e+00  0.00000000e+00  0.00000000e+00
  0.00000000e+00  0.00000000e+00 -3.03695635e-07 -6.08726594e-08
  0.00000000e+00  0.00000000e+00  0.00000000e+00  3.40156559e-06]","[[ 7.22998808e-05  1.94176597e-03]
 [-6.89352471e-05  1.46079616e-03]]",[],0.0,0.0
1787564488.2878351,2.6021295042654033,0.9397888521756288,2.3501356891273346,"[ 3.66008039e-06 -4.27029144e-07  0.00000000e+00  0.00000000e+00
  0.00000000e+00 -3.03695635e-07 -4.27029144e-07  3.47517002e-06
  0.00000000e+00  0.00000000e+00  0.00000000e+00 -6.08726594e-08
  0.00000000e+00  0.00000000e+00  0.00000000e+00  0.00000000e+00
  0.00000000e+00  0.00000000e+00  0.00000000e+00  0.00000000e+00
  0.00000000e+00  0.00000000e+00  0.00000000e+00  0.00000000e+00
  0.00000000e+00  0.00000000e+00  0.00000000e+00  0.00000000e+00
  0.00000000e+00  0.00000000e+00 -3.03695635e-07 -6.08726594e-08
  0.00000000e+00  0.00000000e+00  0.00000000e+00  3.40156559e-06]","[[ 7.22998808e-05  1.94176597e-03]
 [-6.89352471e-05  1.46079616e-03]]",[],0.0,0.0
1787564488.8081806,2.6021295042654033,0.9397888521756288,2.3501356891273346,"[ 3.66008039e-06 -4.27029144e-07  0.00000000e+00  0.00000000e+00
  0.00000000e+00 -3.03695635e-07 -4.27029144e-07  3.47517002e-06
  0.00000000e+00  0.00000000e+00  0.00000000e+00 -6.08726594e-08
  0.00000000e+00  0.00000000e+00  0.00000000e+00  0.00000000e+00
  0.00000000e+00  0.00000000e+00  0.00000000e+00  0.00000000e+00
  0.00000000e+00  0.00000000e+00  0.00000000e+00  0.00000000e+00
  0.00000000e+00  0.00000000e+00  0.00000000e+00  0.00000000e+00
  0.00000000e+00  0.00000000e+00 -3.03695635e-07 -6.08726594e-08
  0.00000000e+00  0.00000000e+00  0.00000000e+00  3.40156559e-06]","[[ 7.22998808e-05  1.94176597e-03]
 [-6.89352471e-05  1.46079616e-03]]",[],0.0,0.0
1787564488.8158238,2.6021295042654033,0.9397888521756288,2.3501356891273346,"[ 3.66008039e-06 -4.27029144e-07  0.00000000e+00  0.00000000e+00
  0.00000000e+00 -3.03695635e-07 -4.27029144e-07  3.47517002e-06
  0.00000000e+00  0.00000000e+00  0.00000000e+00 -6.08726594e-08
  0.00000000e+00  0.00000000e+00  0.00000000e+00  0.00000000e+00
  0.00000000e+00  0.00000000e+00  0.00000000e+00  0.00000000e+00
  0.00000000e+00  0.00000000e+00  0.00000000e+00  0.00000000e+00
  0.00000000e+00  0.00000000e+00  0.00000000e+00  0.00000000e+00
  0.00000000e+00  0.00000000e+00 -3.03695635e-07 -6.08726594e-08
  0.00000000e+00  0.00000000e+00  0.00000000e+00  3.40156559e-06]","[[ 7.22998808e-05  1.94176597e-03]
 [-6.89352471e-05  1.46079616e-03]]",[],0.0,0.0
1787564488.8624156,2.6021295042654033,0.9397888521756288,2.3501356891273346,"[ 3.66008039e-06 -4.27029144e-07  0.00000000e+00  0.00000000e+00
  0.00000000e+00 -3.03695635e-07 -4.27029144e-07  3.47517002e-06
  0.00000000e+00  0.00000000e+00  0.00000000e+00 -6.08726594e-08
  0.00000000e+00  0.00000000e+00  0.00000000e+00  0.00000000e+00
  0.00000000e+00  0.00000000e+00  0.00000000e+00  0.00000000e+00
  0.00000000e+00  0.00000000e+00  0.00000000e+00  0.00000000e+00
  0.00000000e+00  0.00000000e+00  0.00000000e+00  0.00000000e+00
  0.00000000e+00  0.00000000e+00 -3.03695635e-07 -6.08726594e-08
  0.00000000e+00  0.00000000e+00  0.00000000e+00  3.40156559e-06]","[[ 7.22998808e-05  1.94176597e-03]
 [-6.89352471e-05  1.46079616e-03]]",[],0.0,0.0
1787564489.5419414,2.6013204672776724,0.9368304421045419,2.3930960737543403,"[ 3.57132154e-06 -5.23343864e-07  0.00000000e+00  0.00000000e+00
  0.00000000e+00 -2.99264228e-07 -5.23343864e-07  3.39695575e-06
  0.00000000e+00  0.00000000e+00  0.00000000e+00 -2.83395995e-08
  0.00000000e+00  0.00000000e+00  0.00000000e+00  0.00000000e+00
  0.00000000e+00  0.00000000e+00  0.00000000e+00  0.00000000e+00
  0.00000000e+00  0.00000000e+00  0.00000000e+00  0.00000000e+00
  0.00000000e+00  0.00000000e+00  0.00000000e+00  0.00000000e+00
  0.00000000e+00  0.00000000e+00 -2.99264228e-07 -2.83395995e-08
  0.00000000e+00  0.00000000e+00  0.00000000e+00  3.50421032e-06]","[[ 7.23719427e-05  1.85329489e-03]
 [-6.93132588e-05  1.32669937e-03]]",[],0.0,0.0
1787564489.6573117,2.602520072028541,0.9328889143462469,2.410746997912243,"[ 3.42533043e-06 -5.38487712e-07  0.00000000e+00  0.00000000e+00
  0.00000000e+00 -2.38095453e-07 -5.38487712e-07  3.27202104e-06
  0.00000000e+00  0.00000000e+00  0.00000000e+00 -6.01806771e-08
  0.00000000e+00  0.00000000e+00  0.00000000e+00  0.00000000e+00
  0.00000000e+00  0.00000000e+00  0.00000000e+00  0.00000000e+00
  0.00000000e+00  0.00000000e+00  0.00000000e+00  0.00000000e+00
  0.00000000e+00  0.00000000e+00  0.00000000e+00  0.00000000e+00
  0.00000000e+00  0.00000000e+00 -2.38095453e-07 -6.01806771e-08
  0.00000000e+00  0.00000000e+00  0.00000000e+00  3.49990720e-06]","[[ 7.00077105e-05  1.68136564e-03]
 [-6.74208037e-05  1.31454209e-03]]",[],0.0,0.0
1787564490.2596056,2.602520072028541,0.9328889143462469,2.410746997912243,"[ 3.42533043e-06 -5.38487712e-07  0.00000000e+00  0.00000000e+00
  0.00000000e+00 -2.38095453e-07 -5.38487712e-07  3.27202104e-06
  0.00000000e+00  0.00000000e+00  0.00000000e+00 -6.01806771e-08
  0.00000000e+00  0.00000000e+00  0.00000000e+00  0.00000000e+00
  0.00000000e+00  0.00000000e+00  0.00000000e+00  0.00000000e+00
  0.00000000e+00  0.00000000e+00  0.00000000e+00  0.00000000e+00
  0.00000000e+00  0.00000000e+00  0.00000000e+00  0.00000000e+00
  0.00000000e+00  0.00000000e+00 -2.38095453e-07 -6.01806771e-08
  0.00000000e+00  0.00000000e+00  0.00000000e+00  3.49990720e-06]","[[ 7.00077105e-05  1.68136564e-03]
 [-6.74208037e-05  1.31454209e-03]]",[],0.0,0.0
1787564490.3105056,2.602520072028541,0.9328889143462469,2.410746997912243,"[ 3.42533043e-06 -5.38487712e-07  0.00000000e+00  0.00000000e+00
  0.00000000e+00 -2.38095453e-07 -5.38487712e-07  3.27202104e-06
  0.00000000e+00  0.00000000e+00  0.00000000e+00 -6.01806771e-08
  0.00000000e+00  0.00000000e+00  0.00000000e+00  0.00000000e+00
  0.00000000e+00  0.00000000e+00  0.00000000e+00  0.00000000e+00
  0.00000000e+00  0.00000000e+00  0.00000000e+00  0.00000000e+00
  0.00000000e+00  0.00000000e+00  0.00000000e+00  0.00000000e+00
  0.00000000e+00  0.00000000e+00 -2.38095453e-07 -6.01806771e-08
  0.00000000e+00  0.00000000e+00  0.00000000e+00  3.49990720e-06]","[[ 7.00077105e-05  1.68136564e-03]
 [-6.74208037e-05  1.31454209e-03]]",[],0.0,0.0
1787564490.3606997,2.6040797132875246,0.9292173987964665,2.4171455307638823,"[ 3.29708937e-06 -5.48629194e-07  0.00000000e+00  0.00000000e+00
  0.00000000e+00 -2.13244680e-07 -5.48629194e-07  3.14497305e-06
  0.00000000e+00  0.00000000e+00  0.00000000e+00 -1.00291798e-07
  0.00000000e+00  0.00000000e+00  0.00000000e+00  0.00000000e+00
  0.00000000e+00  0.00000000e+00  0.00000000e+00  0.00000000e+00
  0.00000000e+00  0.00000000e+00  0.00000000e+00  0.00000000e+00
  0.00000000e+00  0.00000000e+00  0.00000000e+00  0.00000000e+00
  0.00000000e+00  0.00000000e+00 -2.13244680e-07 -1.00291798e-07
  0.00000000e+00  0.00000000e+00  0.00000000e+00  3.43411902e-06]","[[ 6.78872111e-05  1.57814292e-03]
 [-6.53848373e-05  1.31706079e-03]]",[],0.0,0.0
1787564491.0246606,2.6040797132875246,0.9292173987964665,2.4171455307638823,"[ 3.29708937e-06 -5.48629194e-07  0.00000000e+00  0.00000000e+00
  0.00000000e+00 -2.13244680e-07 -5.48629194e-07  3.14497305e-06
  0.00000000e+00  0.00000000e+00  0.00000000e+00 -1.00291798e-07
  0.00000000e+00  0.00000000e+00  0.00000000e+00  0.00000000e+00
  0.00000000e+00  0.00000000e+00  0.00000000e+00  0.00000000e+00
  0.00000000e+00  0.00000000e+00  0.00000000e+00  0.00000000e+00
  0.00000000e+00  0.00000000e+00  0.00000000e+00  0.00000000e+00
  0.00000000e+00  0.00000000e+00 -2.13244680e-07 -1.00291798e-07
  0.00000000e+00  0.00000000e+00  0.00000000e+00  3.43411902e-06]","[[ 6.78872111e-05  1.57814292e-03]
 [-6.53848373e-05  1.31706079e-03]]",[],0.0,0.0
1787564491.098709,2.60517379867753,0.926623383660056,2.4488841542968416,"[ 3.19941491e-06 -5.84760638e-07  0.00000000e+00  0.00000000e+00
  0.00000000e+00 -2.30729201e-07 -5.84760638e-07  3.03784830e-06
  0.00000000e+00  0.00000000e+00  0.00000000e+00 -8.93944708e-08
  0.00000000e+00  0.00000000e+00  0.00000000e+00  0.00000000e+00
  0.00000000e+00  0.00000000e+00  0.00000000e+00  0.00000000e+00
  0.00000000e+00  0.00000000e+00  0.00000000e+00  0.00000000e+00
  0.00000000e+00  0.00000000e+00  0.00000000e+00  0.00000000e+00
  0.00000000e+00  0.00000000e+00 -2.30729201e-07 -8.93944708e-08
  0.00000000e+00  0.00000000e+00  0.00000000e+00  3.43662142e-06]","[[ 6.67777888e-05  1.54682094e-03]
 [-6.41492228e-05  1.23296502e-03]]",[],0.0,0.0
1787564491.1136532,2.60517379867753,0.926623383660056,2.4488841542968416,"[ 3.19941491e-06 -5.84760638e-07  0.00000000e+00  0.00000000e+00
  0.00000000e+00 -2.30729201e-07 -5.84760638e-07  3.03784830e-06
  0.00000000e+00  0.00000000e+00  0.00000000e+00 -8.93944708e-08
  0.00000000e+00  0.00000000e+00  0.00000000e+00  0.00000000e+00
  0.00000000e+00  0.00000000e+00  0.00000000e+00  0.00000000e+00
  0.00000000e+00  0.00000000e+00  0.00000000e+00  0.00000000e+00
  0.00000000e+00  0.00000000e+00  0.00000000e+00  0.00000000e+00
  0.00000000e+00  0.00000000e+00 -2.30729201e-07 -8.93944708e-08
  0.00000000e+00  0.00000000e+00  0.00000000e+00  3.43662142e-06]","[[ 6.67777888e-05  1.54682094e-03]
 [-6.41492228e-05  1.23296502e-03]]",[],0.0,0.0
1787564491.1619349,2.60517379867753,0.926623383660056,2.4488841542968416,"[ 3.19941491e-06 -5.84760638e-07  0.00000000e+00  0.00000000e+00
  0.00000000e+00 -2.30729201e-07 -5.84760638e-07  3.03784830e-06
  0.00000000e+00  0.00000000e+00  0.00000000e+00 -8.93944708e-08
  0.00000000e+00  0.00000000e+00  0.00000000e+00  0.00000000e+00
  0.00000000e+00  0.00000000e+00  0.00000000e+00  0.00000000e+00
  0.00000000e+00  0.00000000e+00  0.00000000e+00  0.00000000e+00
  0.00000000e+00  0.00000000e+00  0.00000000e+00  0.00000000e+00
  0.00000000e+00  0.00000000e+00 -2.30729201e-07 -8.93944708e-08
  0.00000000e+00  0.00000000e+00  0.00000000e+00  3.43662142e-06]","[[ 6.67777888e-05  1.54682094e-03]
 [-6.41492228e-05  1.23296502e-03]]",[],0.0,0.0
1787564491.2097955,2.60517379867753,0.926623383660056,2.4488841542968416,"[ 3.19941491e-06 -5.84760638e-07  0.00000000e+00  0.00000000e+00
  0.00000000e+00 -2.30729201e-07 -5.84760638e-07  3.03784830e-06
  0.00000000e+00  0.00000000e+00  0.00000000e+00 -8.93944708e-08
  0.00000000e+00  0.00000000e+00  0.00000000e+00  0.00000000e+00
  0.00000000e+00  0.00000000e+00  0.00000000e+00  0.00000000e+00
  0.00000000e+00  0.00000000e+00  0.00000000e+00  0.00000000e+00
  0.00000000e+00  0.00000000e+00  0.00000000e+00  0.00000000e+00
  0.00000000e+00  0.00000000e+00 -2.30729201e-07 -8.93944708e-08
  0.00000000e+00  0.00000000e+00  0.00000000e+00  3.43662142e-06]","[[ 6.67777888e-05  1.54682094e-03]
 [-6.41492228e-05  1.23296502e-03]]",[],0.0,0.0
1787564491.259588,2.60517379867753,0.926623383660056,2.4488841542968416,"[ 3.19941491e-06 -5.84760638e-07  0.00000000e+00  0.00000000e+00
  0.00000000e+00 -2.30729201e-07 -5.84760638e-07  3.03784830e-06
  0.00000000e+00  0.00000000e+00  0.00000000e+00 -8.93944708e-08
  0.00000000e+00  0.00000000e+00  0.00000000e+00  0.00000000e+00
  0.00000000e+00  0.00000000e+00  0.00000000e+00  0.00000000e+00
  0.00000000e+00  0.00000000e+00  0.00000000e+00  0.00000000e+00
  0.00000000e+00  0.00000000e+00  0.00000000e+00  0.00000000e+00
  0.00000000e+00  0.00000000e+00 -2.30729201e-07 -8.93944708e-08
  0.00000000e+00  0.00000000e+00  0.00000000e+00  3.43662142e-06]","[[ 6.67777888e-05  1.54682094e-03]
 [-6.41492228e-05  1.23296502e-03]]",[],0.0,0.0
1787564491.7959156,2.60517379867753,0.926623383660056,2.4488841542968416,"[ 3.19941491e-06 -5.84760638e-07  0.00000000e+00  0.00000000e+00
  0.00000000e+00 -2.30729201e-07 -5.84760638e-07  3.03784830e-06
  0.00000000e+00  0.00000000e+00  0.00000000e+00 -8.93944708e-08
  0.00000000e+00  0.00000000e+00  0.00000000e+00  0.00000000e+00
  0.00000000e+00  0.00000000e+00  0.00000000e+00  0.00000000e+00
  0.00000000e+00  0.00000000e+00  0.00000000e+00  0.00000000e+00
  0.00000000e+00  0.00000000e+00  0.00000000e+00  0.00000000e+00
  0.00000000e+00  0.00000000e+00 -2.30729201e-07 -8.93944708e-08
  0.00000000e+00  0.00000000e+00  0.00000000e+00  3.43662142e-06]","[[ 6.67777888e-05  1.54682094e-03]
 [-6.41492228e-05  1.23296502e-03]]",[],0.0,0.0
1787564491.8100502,2.6050677312422503,0.9251387207000498,2.469038358975702,"[ 3.10390512e-06 -6.07413043e-07  0.00000000e+00  0.00000000e+00
  0.00000000e+00 -2.02108820e-07 -6.07413043e-07  2.93175819e-06
  0.00000000e+00  0.00000000e+00  0.00000000e+00 -8.19963868e-08
  0.00000000e+00  0.00000000e+00  0.00000000e+00  0.00000000e+00
  0.00000000e+00  0.00000000e+00  0.00000000e+00  0.00000000e+00
  0.00000000e+00  0.00000000e+00  0.00000000e+00  0.00000000e+00
  0.00000000e+00  0.00000000e+00  0.00000000e+00  0.00000000e+00
  0.00000000e+00  0.00000000e+00 -2.02108820e-07 -8.19963868e-08
  0.00000000e+00  0.00000000e+00  0.00000000e+00  3.34618908e-06]","[[ 6.67777888e-05  1.54682094e-03]
 [-6.41492228e-05  1.23296502e-03]]",[],0.0,0.0
1787564491.8606317,2.6050677312422503,0.9251387207000498,2.469038358975702,"[ 3.10390512e-06 -6.07413043e-07  0.00000000e+00  0.00000000e+00
  0.00000000e+00 -2.02108820e-07 -6.07413043e-07  2.93175819e-06
  0.00000000e+00  0.00000000e+00  0.00000000e+00 -8.19963868e-08
  0.00000000e+00  0.00000000e+00  0.00000000e+00  0.00000000e+00
  0.00000000e+00  0.00000000e+00  0.00000000e+00  0.00000000e+00
  0.00000000e+00  0.00000000e+00  0.00000000e+00  0.00000000e+00
  0.00000000e+00  0.00000000e+00  0.00000000e+00  0.00000000e+00
  0.00000000e+00  0.00000000e+00 -2.02108820e-07 -8.19963868e-08
  0.00000000e+00  0.00000000e+00  0.00000000e+00  3.34618908e-06]","[[ 7.14886491e-05  1.16315733e-03]
 [-5.56876907e-05  1.36270642e-03]]",[],0.0,0.0
1787564491.9264765,2.6050677312422503,0.9251387207000498,2.469038358975702,"[ 3.10390512e-06 -6.07413043e-07  0.00000000e+00  0.00000000e+00
  0.00000000e+00 -2.02108820e-07 -6.07413043e-07  2.93175819e-06
  0.00000000e+00  0.00000000e+00  0.00000000e+00 -8.19963868e-08
  0.00000000e+00  0.00000000e+00  0.00000000e+00  0.00000000e+00
  0.00000000e+00  0.00000000e+00  0.00000000e+00  0.00000000e+00
  0.00000000e+00  0.00000000e+00  0.00000000e+00  0.00000000e+00
  0.00000000e+00  0.00000000e+00  0.00000000e+00  0.00000000e+00
  0.00000000e+00  0.00000000e+00 -2.02108820e-07 -8.19963868e-08
  0.00000000e+00  0.00000000e+00  0.00000000e+00  3.34618908e-06]","[[ 7.14886491e-05  1.16315733e-03]
 [-5.56876907e-05  1.36270642e-03]]",[],0.0,0.0
1787564492.0215485,2.6050677312422503,0.9251387207000498,2.469038358975702,"[ 3.10390512e-06 -6.07413043e-07  0.00000000e+00  0.00000000e+00
  0.00000000e+00 -2.02108820e-07 -6.07413043e-07  2.93175819e-06
  0.00000000e+00  0.00000000e+00  0.00000000e+00 -8.19963868e-08
  0.00000000e+00  0.00000000e+00  0.00000000e+00  0.00000000e+00
  0.00000000e+00  0.00000000e+00  0.00000000e+00  0.00000000e+00
  0.00000000e+00  0.00000000e+00  0.00000000e+00  0.00000000e+00
  0.00000000e+00  0.00000000e+00  0.00000000e+00  0.00000000e+00
  0.00000000e+00  0.00000000e+00 -2.02108820e-07 -8.19963868e-08
  0.00000000e+00  0.00000000e+00  0.00000000e+00  3.34618908e-06]","[[ 7.14886491e-05  1.16315733e-03]
 [-5.56876907e-05  1.36270642e-03]]",[],0.0,0.0
1787564492.089529,2.6050677312422503,0.9251387207000498,2.469038358975702,"[ 3.10390512e-06 -6.07413043e-07  0.00000000e+00  0.00000000e+00
  0.00000000e+00 -2.02108820e-07 -6.07413043e-07  2.93175819e-06
  0.00000000e+00  0.00000000e+00  0.00000000e+00 -8.19963868e-08
  0.00000000e+00  0.00000000e+00  0.00000000e+00  0.00000000e+00
  0.00000000e+00  0.00000000e+00  0.00000000e+00  0.00000000e+00
  0.00000000e+00  0.00000000e+00  0.00000000e+00  0.00000000e+00
  0.00000000e+00  0.00000000e+00  0.00000000e+00  0.00000000e+00
  0.00000000e+00  0.00000000e+00 -2.02108820e-07 -8.19963868e-08
  0.00000000e+00  0.00000000e+00  0.00000000e+00  3.34618908e-06]","[[ 7.14886491e-05  1.16315733e-03]
 [-5.56876907e-05  1.36270642e-03]]",[],0.0,0.0
1787564492.133867,2.6050677312422503,0.9251387207000498,2.469038358975702,"[ 3.10390512e-06 -6.07413043e-07  0.00000000e+00  0.00000000e+00
  0.00000000e+00 -2.02108820e-07 -6.07413043e-07  2.93175819e-06
  0.00000000e+00  0.00000000e+00  0.00000000e+00 -8.19963868e-08
  0.00000000e+00  0.00000000e+00  0.00000000e+00  0.00000000e+00
  0.00000000e+00  0.00000000e+00  0.00000000e+00  0.00000000e+00
  0.00000000e+00  0.00000000e+00  0.00000000e+00  0.00000000e+00
  0.00000000e+00  0.00000000e+00  0.00000000e+00  0.00000000e+00
  0.00000000e+00  0.00000000e+00 -2.02108820e-07 -8.19963868e-08
  0.00000000e+00  0.00000000e+00  0.00000000e+00  3.34618908e-06]","[[ 7.14886491e-05  1.16315733e-03]
 [-5.56876907e-05  1.36270642e-03]]",[],0.0,0.0
1787564492.1936436,2.6050677312422503,0.9251387207000498,2.469038358975702,"[ 3.10390512e-06 -6.07413043e-07  0.00000000e+00  0.00000000e+00
  0.00000000e+00 -2.02108820e-07 -6.07413043e-07  2.93175819e-06
  0.00000000e+00  0.00000000e+00  0.00000000e+00 -8.19963868e-08
  0.00000000e+00  0.00000000e+00  0.00000000e+00  0.00000000e+00
  0.00000000e+00  0.00000000e+00  0.00000000e+00  0.00000000e+00
  0.00000000e+00  0.00000000e+00  0.00000000e+00  0.00000000e+00
  0.00000000e+00  0.00000000e+00  0.00000000e+00  0.00000000e+00
  0.00000000e+00  0.00000000e+00 -2.02108820e-07 -8.19963868e-08
  0.00000000e+00  0.00000000e+00  0.00000000e+00  3.34618908e-06]","[[ 7.14886491e-05  1.16315733e-03]
 [-5.56876907e-05  1.36270642e-03]]",[],0.0,0.0
1787564492.2145088,2.6050677312422503,0.9251387207000498,2.469038358975702,"[ 3.10390512e-06 -6.07413043e-07  0.00000000e+00  0.00000000e+00
  0.00000000e+00 -2.02108820e-07 -6.07413043e-07  2.93175819e-06
  0.00000000e+00  0.00000000e+00  0.00000000e+00 -8.19963868e-08
  0.00000000e+00  0.00000000e+00  0.00000000e+00  0.00000000e+00
  0.00000000e+00  0.00000000e+00  0.00000000e+00  0.00000000e+00
  0.00000000e+00  0.00000000e+00  0.00000000e+00  0.00000000e+00
  0.00000000e+00  0.00000000e+00  0.00000000e+00  0.00000000e+00
  0.00000000e+00  0.00000000e+00 -2.02108820e-07 -8.19963868e-08
  0.00000000e+00  0.00000000e+00  0.00000000e+00  3.34618908e-06]","[[ 7.14886491e-05  1.16315733e-03]
 [-5.56876907e-05  1.36270642e-03]]",[],0.0,0.0
1787564492.2597508,2.6050677312422503,0.9251387207000498,2.469038358975702,"[ 3.10390512e-06 -6.07413043e-07  0.00000000e+00  0.00000000e+00
  0.00000000e+00 -2.02108820e-07 -6.07413043e-07  2.93175819e-06
  0.00000000e+00  0.00000000e+00  0.00000000e+00 -8.19963868e-08
  0.00000000e+00  0.00000000e+00  0.00000000e+00  0.00000000e+00
  0.00000000e+00  0.00000000e+00  0.00000000e+00  0.00000000e+00
  0.00000000e+00  0.00000000e+00  0.00000000e+00  0.00000000e+00
  0.00000000e+00  0.00000000e+00  0.00000000e+00  0.00000000e+00
  0.00000000e+00  0.00000000e+00 -2.02108820e-07 -8.19963868e-08
  0.00000000e+00  0.00000000e+00  0.00000000e+00  3.34618908e-06]","[[ 7.14886491e-05  1.16315733e-03]
 [-5.56876907e-05  1.36270642e-03]]",[],0.0,0.0
1787564492.3277967,2.6050677312422503,0.9251387207000498,2.469038358975702,"[ 3.10390512e-06 -6.07413043e-07  0.00000000e+00  0.00000000e+00
  0.00000000e+00 -2.02108820e-07 -6.07413043e-07  2.93175819e-06
  0.00000000e+00  0.00000000e+00  0.00000000e+00 -8.19963868e-08
  0.00000000e+00  0.00000000e+00  0.00000000e+00  0.00000000e+00
  0.00000000e+00  0.00000000e+00  0.00000000e+00  0.00000000e+00
  0.00000000e+00  0.00000000e+00  0.00000000e+00  0.00000000e+00
  0.00000000e+00  0.00000000e+00  0.00000000e+00  0.00000000e+00
  0.00000000e+00  0.00000000e+00 -2.02108820e-07 -8.19963868e-08
  0.00000000e+00  0.00000000e+00  0.00000000e+00  3.34618908e-06]","[[ 7.14886491e-05  1.16315733e-03]
 [-5.56876907e-05  1.36270642e-03]]",[],0.0,0.0
1787564492.359379,2.6050677312422503,0.9251387207000498,2.469038358975702,"[ 3.10390512e-06 -6.07413043e-07  0.00000000e+00  0.00000000e+00
  0.00000000e+00 -2.02108820e-07 -6.07413043e-07  2.93175819e-06
  0.00000000e+00  0.00000000e+00  0.00000000e+00 -8.19963868e-08
  0.00000000e+00  0.00000000e+00  0.00000000e+00  0.00000000e+00
  0.00000000e+00  0.00000000e+00  0.00000000e+00  0.00000000e+00
  0.00000000e+00  0.00000000e+00  0.00000000e+00  0.00000000e+00
  0.00000000e+00  0.00000000e+00  0.00000000e+00  0.00000000e+00
  0.00000000e+00  0.00000000e+00 -2.02108820e-07 -8.19963868e-08
  0.00000000e+00  0.00000000e+00  0.00000000e+00  3.34618908e-06]","[[ 7.14886491e-05  1.16315733e-03]
 [-5.56876907e-05  1.36270642e-03]]",[],0.0,0.0
1787564492.4108264,2.6050677312422503,0.9251387207000498,2.469038358975702,"[ 3.10390512e-06 -6.07413043e-07  0.00000000e+00  0.00000000e+00
  0.00000000e+00 -2.02108820e-07 -6.07413043e-07  2.93175819e-06
  0.00000000e+00  0.00000000e+00  0.00000000e+00 -8.19963868e-08
  0.00000000e+00  0.00000000e+00  0.00000000e+00  0.00000000e+00
  0.00000000e+00  0.00000000e+00  0.00000000e+00  0.00000000e+00
  0.00000000e+00  0.00000000e+00  0.00000000e+00  0.00000000e+00
  0.00000000e+00  0.00000000e+00  0.00000000e+00  0.00000000e+00
  0.00000000e+00  0.00000000e+00 -2.02108820e-07 -8.19963868e-08
  0.00000000e+00  0.00000000e+00  0.00000000e+00  3.34618908e-06]","[[ 7.14886491e-05  1.16315733e-03]
 [-5.56876907e-05  1.36270642e-03]]",[],0.0,0.0
1787564492.4699569,2.6050677312422503,0.9251387207000498,2.469038358975702,"[ 3.10390512e-06 -6.07413043e-07  0.00000000e+00  0.00000000e+00
  0.00000000e+00 -2.02108820e-07 -6.07413043e-07  2.93175819e-06
  0.00000000e+00  0.00000000e+00  0.00000000e+00 -8.19963868e-08
  0.00000000e+00  0.00000000e+00  0.00000000e+00  0.00000000e+00
  0.00000000e+00  0.00000000e+00  0.00000000e+00  0.00000000e+00
  0.00000000e+00  0.00000000e+00  0.00000000e+00  0.00000000e+00
  0.00000000e+00  0.00000000e+00  0.00000000e+00  0.00000000e+00
  0.00000000e+00  0.00000000e+00 -2.02108820e-07 -8.19963868e-08
  0.00000000e+00  0.00000000e+00  0.00000000e+00  3.34618908e-06]","[[ 7.14886491e-05  1.16315733e-03]
 [-5.56876907e-05  1.36270642e-03]]",[],0.0,0.0
1787564492.5229707,2.6050677312422503,0.9251387207000498,2.469038358975702,"[ 3.10390512e-06 -6.07413043e-07  0.00000000e+00  0.00000000e+00
  0.00000000e+00 -2.02108820e-07 -6.07413043e-07  2.93175819e-06
  0.00000000e+00  0.00000000e+00  0.00000000e+00 -8.19963868e-08
  0.00000000e+00  0.00000000e+00  0.00000000e+00  0.00000000e+00
  0.00000000e+00  0.00000000e+00  0.00000000e+00  0.00000000e+00
  0.00000000e+00  0.00000000e+00  0.00000000e+00  0.00000000e+00
  0.00000000e+00  0.00000000e+00  0.00000000e+00  0.00000000e+00
  0.00000000e+00  0.00000000e+00 -2.02108820e-07 -8.19963868e-08
  0.00000000e+00  0.00000000e+00  0.00000000e+00  3.34618908e-06]","[[ 7.14886491e-05  1.16315733e-03]
 [-5.56876907e-05  1.36270642e-03]]",[],0.0,0.0
1787564492.6582634,2.6050677312422503,0.9251387207000498,2.469038358975702,"[ 3.10390512e-06 -6.07413043e-07  0.00000000e+00  0.00000000e+00
  0.00000000e+00 -2.02108820e-07 -6.07413043e-07  2.93175819e-06
  0.00000000e+00  0.00000000e+00  0.00000000e+00 -8.19963868e-08
  0.00000000e+00  0.00000000e+00  0.00000000e+00  0.00000000e+00
  0.00000000e+00  0.00000000e+00  0.00000000e+00  0.00000000e+00
  0.00000000e+00  0.00000000e+00  0.00000000e+00  0.00000000e+00
  0.00000000e+00  0.00000000e+00  0.00000000e+00  0.00000000e+00
  0.00000000e+00  0.00000000e+00 -2.02108820e-07 -8.19963868e-08
  0.00000000e+00  0.00000000e+00  0.00000000e+00  3.34618908e-06]","[[ 7.14886491e-05  1.16315733e-03]
 [-5.56876907e-05  1.36270642e-03]]",[],0.0,0.0
1787564492.6602721,2.6050677312422503,0.9251387207000498,2.469038358975702,"[ 3.10390512e-06 -6.07413043e-07  0.00000000e+00  0.00000000e+00
  0.00000000e+00 -2.02108820e-07 -6.07413043e-07  2.93175819e-06
  0.00000000e+00  0.00000000e+00  0.00000000e+00 -8.19963868e-08
  0.00000000e+00  0.00000000e+00  0.00000000e+00  0.00000000e+00
  0.00000000e+00  0.00000000e+00  0.00000000e+00  0.00000000e+00
  0.00000000e+00  0.00000000e+00  0.00000000e+00  0.00000000e+00
  0.00000000e+00  0.00000000e+00  0.00000000e+00  0.00000000e+00
  0.00000000e+00  0.00000000e+00 -2.02108820e-07 -8.19963868e-08
  0.00000000e+00  0.00000000e+00  0.00000000e+00  3.34618908e-06]","[[ 7.14886491e-05  1.16315733e-03]
 [-5.56876907e-05  1.36270642e-03]]",[],0.0,0.0
1787564492.7100673,2.6050677312422503,0.9251387207000498,2.469038358975702,"[ 3.10390512e-06 -6.07413043e-07  0.00000000e+00  0.00000000e+00
  0.00000000e+00 -2.02108820e-07 -6.07413043e-07  2.93175819e-06
  0.00000000e+00  0.00000000e+00  0.00000000e+00 -8.19963868e-08
  0.00000000e+00  0.00000000e+00  0.00000000e+00  0.00000000e+00
  0.00000000e+00  0.00000000e+00  0.00000000e+00  0.00000000e+00
  0.00000000e+00  0.00000000e+00  0.00000000e+00  0.00000000e+00
  0.00000000e+00  0.00000000e+00  0.00000000e+00  0.00000000e+00
  0.00000000e+00  0.00000000e+00 -2.02108820e-07 -8.19963868e-08
  0.00000000e+00  0.00000000e+00  0.00000000e+00  3.34618908e-06]","[[ 7.14886491e-05  1.16315733e-03]
 [-5.56876907e-05  1.36270642e-03]]",[],0.0,0.0
1787564492.7640069,2.606090766680312,0.923271719137914,2.471485116874459,"[ 3.06473910e-06 -6.61692107e-07  0.00000000e+00  0.00000000e+00
  0.00000000e+00 -1.92548730e-07 -6.61692107e-07  2.86016948e-06
  0.00000000e+00  0.00000000e+00  0.00000000e+00 -8.51406828e-08
  0.00000000e+00  0.00000000e+00  0.00000000e+00  0.00000000e+00
  0.00000000e+00  0.00000000e+00  0.00000000e+00  0.00000000e+00
  0.00000000e+00  0.00000000e+00  0.00000000e+00  0.00000000e+00
  0.00000000e+00  0.00000000e+00  0.00000000e+00  0.00000000e+00
  0.00000000e+00  0.00000000e+00 -1.92548730e-07 -8.51406828e-08
  0.00000000e+00  0.00000000e+00  0.00000000e+00  3.53809394e-06]","[[ 7.36754962e-05  9.35559981e-04]
 [-5.20498157e-05  1.33412849e-03]]",[],0.0,0.0
1787564492.829384,2.606090766680312,0.923271719137914,2.471485116874459,"[ 3.06473910e-06 -6.61692107e-07  0.00000000e+00  0.00000000e+00
  0.00000000e+00 -1.92548730e-07 -6.61692107e-07  2.86016948e-06
  0.00000000e+00  0.00000000e+00  0.00000000e+00 -8.51406828e-08
  0.00000000e+00  0.00000000e+00  0.00000000e+00  0.00000000e+00
  0.00000000e+00  0.00000000e+00  0.00000000e+00  0.00000000e+00
  0.00000000e+00  0.00000000e+00  0.00000000e+00  0.00000000e+00
  0.00000000e+00  0.00000000e+00  0.00000000e+00  0.00000000e+00
  0.00000000e+00  0.00000000e+00 -1.92548730e-07 -8.51406828e-08
  0.00000000e+00  0.00000000e+00  0.00000000e+00  3.53809394e-06]","[[ 7.36754962e-05  9.35559981e-04]
 [-5.20498157e-05  1.33412849e-03]]",[],0.0,0.0
1787564492.9059143,2.606090766680312,0.923271719137914,2.471485116874459,"[ 3.06473910e-06 -6.61692107e-07  0.00000000e+00  0.00000000e+00
  0.00000000e+00 -1.92548730e-07 -6.61692107e-07  2.86016948e-06
  0.00000000e+00  0.00000000e+00  0.00000000e+00 -8.51406828e-08
  0.00000000e+00  0.00000000e+00  0.00000000e+00  0.00000000e+00
  0.00000000e+00  0.00000000e+00  0.00000000e+00  0.00000000e+00
  0.00000000e+00  0.00000000e+00  0.00000000e+00  0.00000000e+00
  0.00000000e+00  0.00000000e+00  0.00000000e+00  0.00000000e+00
  0.00000000e+00  0.00000000e+00 -1.92548730e-07 -8.51406828e-08
  0.00000000e+00  0.00000000e+00  0.00000000e+00  3.53809394e-06]","[[ 7.36754962e-05  9.35559981e-04]
 [-5.20498157e-05  1.33412849e-03]]",[],0.0,0.0
1787564492.9166234,2.606090766680312,0.923271719137914,2.471485116874459,"[ 3.06473910e-06 -6.61692107e-07  0.00000000e+00  0.00000000e+00
  0.00000000e+00 -1.92548730e-07 -6.61692107e-07  2.86016948e-06
  0.00000000e+00  0.00000000e+00  0.00000000e+00 -8.51406828e-08
  0.00000000e+00  0.00000000e+00  0.00000000e+00  0.00000000e+00
  0.00000000e+00  0.00000000e+00  0.00000000e+00  0.00000000e+00
  0.00000000e+00  0.00000000e+00  0.00000000e+00  0.00000000e+00
  0.00000000e+00  0.00000000e+00  0.00000000e+00  0.00000000e+00
  0.00000000e+00  0.00000000e+00 -1.92548730e-07 -8.51406828e-08
  0.00000000e+00  0.00000000e+00  0.00000000e+00  3.53809394e-06]","[[ 7.36754962e-05  9.35559981e-04]
 [-5.20498157e-05  1.33412849e-03]]",[],0.0,0.0
1787564492.9597352,2.606090766680312,0.923271719137914,2.471485116874459,"[ 3.06473910e-06 -6.61692107e-07  0.00000000e+00  0.00000000e+00
  0.00000000e+00 -1.92548730e-07 -6.61692107e-07  2.86016948e-06
  0.00000000e+00  0.00000000e+00  0.00000000e+00 -8.51406828e-08
  0.00000000e+00  0.00000000e+00  0.00000000e+00  0.00000000e+00
  0.00000000e+00  0.00000000e+00  0.00000000e+00  0.00000000e+00
  0.00000000e+00  0.00000000e+00  0.00000000e+00  0.00000000e+00
  0.00000000e+00  0.00000000e+00  0.00000000e+00  0.00000000e+00
  0.00000000e+00  0.00000000e+00 -1.92548730e-07 -8.51406828e-08
  0.00000000e+00  0.00000000e+00  0.00000000e+00  3.53809394e-06]","[[ 7.36754962e-05  9.35559981e-04]
 [-5.20498157e-05  1.33412849e-03]]",[],0.0,0.0
1787564493.010075,2.606090766680312,0.923271719137914,2.471485116874459,"[ 3.06473910e-06 -6.61692107e-07  0.00000000e+00  0.00000000e+00
  0.00000000e+00 -1.92548730e-07 -6.61692107e-07  2.86016948e-06
  0.00000000e+00  0.00000000e+00  0.00000000e+00 -8.51406828e-08
  0.00000000e+00  0.00000000e+00  0.00000000e+00  0.00000000e+00
  0.00000000e+00  0.00000000e+00  0.00000000e+00  0.00000000e+00
  0.00000000e+00  0.00000000e+00  0.00000000e+00  0.00000000e+00
  0.00000000e+00  0.00000000e+00  0.00000000e+00  0.00000000e+00
  0.00000000e+00  0.00000000e+00 -1.92548730e-07 -8.51406828e-08
  0.00000000e+00  0.00000000e+00  0.00000000e+00  3.53809394e-06]","[[ 7.36754962e-05  9.35559981e-04]
 [-5.20498157e-05  1.33412849e-03]]",[],0.0,0.0
1787564493.0806308,2.606090766680312,0.923271719137914,2.471485116874459,"[ 3.06473910e-06 -6.61692107e-07  0.00000000e+00  0.00000000e+00
  0.00000000e+00 -1.92548730e-07 -6.61692107e-07  2.86016948e-06
  0.00000000e+00  0.00000000e+00  0.00000000e+00 -8.51406828e-08
  0.00000000e+00  0.00000000e+00  0.00000000e+00  0.00000000e+00
  0.00000000e+00  0.00000000e+00  0.00000000e+00  0.00000000e+00
  0.00000000e+00  0.00000000e+00  0.00000000e+00  0.00000000e+00
  0.00000000e+00  0.00000000e+00  0.00000000e+00  0.00000000e+00
  0.00000000e+00  0.00000000e+00 -1.92548730e-07 -8.51406828e-08
  0.00000000e+00  0.00000000e+00  0.00000000e+00  3.53809394e-06]","[[ 7.36754962e-05  9.35559981e-04]
 [-5.20498157e-05  1.33412849e-03]]",[],0.0,0.0
1787564493.1105456,2.606090766680312,0.923271719137914,2.471485116874459,"[ 3.06473910e-06 -6.61692107e-07  0.00000000e+00  0.00000000e+00
  0.00000000e+00 -1.92548730e-07 -6.61692107e-07  2.86016948e-06
  0.00000000e+00  0.00000000e+00  0.00000000e+00 -8.51406828e-08
  0.00000000e+00  0.00000000e+00  0.00000000e+00  0.00000000e+00
  0.00000000e+00  0.00000000e+00  0.00000000e+00  0.00000000e+00
  0.00000000e+00  0.00000000e+00  0.00000000e+00  0.00000000e+00
  0.00000000e+00  0.00000000e+00  0.00000000e+00  0.00000000e+00
  0.00000000e+00  0.00000000e+00 -1.92548730e-07 -8.51406828e-08
  0.00000000e+00  0.00000000e+00  0.00000000e+00  3.53809394e-06]","[[ 7.36754962e-05  9.35559981e-04]
 [-5.20498157e-05  1.33412849e-03]]",[],0.0,0.0
1787564493.1662745,2.606090766680312,0.923271719137914,2.471485116874459,"[ 3.06473910e-06 -6.61692107e-07  0.00000000e+00  0.00000000e+00
  0.00000000e+00 -1.92548730e-07 -6.61692107e-07  2.86016948e-06
  0.00000000e+00  0.00000000e+00  0.00000000e+00 -8.51406828e-08
  0.00000000e+00  0.00000000e+00  0.00000000e+00  0.00000000e+00
  0.00000000e+00  0.00000000e+00  0.00000000e+00  0.00000000e+00
  0.00000000e+00  0.00000000e+00  0.00000000e+00  0.00000000e+00
  0.00000000e+00  0.00000000e+00  0.00000000e+00  0.00000000e+00
  0.00000000e+00  0.00000000e+00 -1.92548730e-07 -8.51406828e-08
  0.00000000e+00  0.00000000e+00  0.00000000e+00  3.53809394e-06]","[[ 7.36754962e-05  9.35559981e-04]
 [-5.20498157e-05  1.33412849e-03]]",[],0.0,0.0
1787564493.215916,2.606090766680312,0.923271719137914,2.471485116874459,"[ 3.06473910e-06 -6.61692107e-07  0.00000000e+00  0.00000000e+00
  0.00000000e+00 -1.92548730e-07 -6.61692107e-07  2.86016948e-06
  0.00000000e+00  0.00000000e+00  0.00000000e+00 -8.51406828e-08
  0.00000000e+00  0.00000000e+00  0.00000000e+00  0.00000000e+00
