time,x,y,yaw,cov_prop,K_gain,innovation,v_ekf,omega_ekf
1787564552.2882864,2.2085513869132627,1.0063039707388042,2.145348590817453,"[ 6.22430785e-05  5.08123406e-06  0.00000000e+00  0.00000000e+00
  0.00000000e+00 -7.19886708e-06  5.08123406e-06  5.16094714e-05
  0.00000000e+00  0.00000000e+00  0.00000000e+00 -1.56790454e-06
  0.00000000e+00  0.00000000e+00  0.00000000e+00  0.00000000e+00
  0.00000000e+00  0.00000000e+00  0.00000000e+00  0.00000000e+00
  0.00000000e+00  0.00000000e+00  0.00000000e+00  0.00000000e+00
  0.00000000e+00  0.00000000e+00  0.00000000e+00  0.00000000e+00
  0.00000000e+00  0.00000000e+00 -7.19886708e-06 -1.56790454e-06
  0.00000000e+00  0.00000000e+00  0.00000000e+00  5.07755865e-06]","[[-0.00099827  0.03393393]
 [-0.00112887 -0.00910597]]",[],0.0,0.0
1787564552.3388915,2.2085513869132627,1.0063039707388042,2.145348590817453,"[ 6.22430785e-05  5.08123406e-06  0.00000000e+00  0.00000000e+00
  0.00000000e+00 -7.19886708e-06  5.08123406e-06  5.16094714e-05
  0.00000000e+00  0.00000000e+00  0.00000000e+00 -1.56790454e-06
  0.00000000e+00  0.00000000e+00  0.00000000e+00  0.00000000e+00
  0.00000000e+00  0.00000000e+00  0.00000000e+00  0.00000000e+00
  0.00000000e+00  0.00000000e+00  0.00000000e+00  0.00000000e+00
  0.00000000e+00  0.00000000e+00  0.00000000e+00  0.00000000e+00
  0.00000000e+00  0.00000000e+00 -7.19886708e-06 -1.56790454e-06
  0.00000000e+00  0.00000000e+00  0.00000000e+00  5.07755865e-06]","[[-0.00099827  0.03393393]
 [-0.00112887 -0.00910597]]",[],0.0,0.0
1787564552.3828554,2.2192516617832547,0.9792373991905942,2.1786699916021846,"[ 3.16178378e-05  1.65627795e-06  0.00000000e+00  0.00000000e+00
  0.00000000e+00 -3.18307773e-06  1.65627795e-06  2.62519217e-05
  0.00000000e+00  0.00000000e+00  0.00000000e+00 -1.07101586e-06
  0.00000000e+00  0.00000000e+00  0.00000000e+00  0.00000000e+00
  0.00000000e+00  0.00000000e+00  0.00000000e+00  0.00000000e+00
  0.00000000e+00  0.00000000e+00  0.00000000e+00  0.00000000e+00
  0.00000000e+00  0.00000000e+00  0.00000000e+00  0.00000000e+00
  0.00000000e+00  0.00000000e+00 -3.18307773e-06 -1.07101586e-06
  0.00000000e+00  0.00000000e+00  0.00000000e+00  3.84425521e-06]","[[-0.00045867  0.01759112]
 [-0.00057624 -0.00428289]]",[],0.0,0.0
1787564552.4336777,2.2192516617832547,0.9792373991905942,2.1786699916021846,"[ 3.16178378e-05  1.65627795e-06  0.00000000e+00  0.00000000e+00
  0.00000000e+00 -3.18307773e-06  1.65627795e-06  2.62519217e-05
  0.00000000e+00  0.00000000e+00  0.00000000e+00 -1.07101586e-06
  0.00000000e+00  0.00000000e+00  0.00000000e+00  0.00000000e+00
  0.00000000e+00  0.00000000e+00  0.00000000e+00  0.00000000e+00
  0.00000000e+00  0.00000000e+00  0.00000000e+00  0.00000000e+00
  0.00000000e+00  0.00000000e+00  0.00000000e+00  0.00000000e+00
  0.00000000e+00  0.00000000e+00 -3.18307773e-06 -1.07101586e-06
  0.00000000e+00  0.00000000e+00  0.00000000e+00  3.84425521e-06]","[[-0.00045867  0.01759112]
 [-0.00057624 -0.00428289]]",[],0.0,0.0
1787564552.4824502,2.2192516617832547,0.9792373991905942,2.1786699916021846,"[ 3.16178378e-05  1.65627795e-06  0.00000000e+00  0.00000000e+00
  0.00000000e+00 -3.18307773e-06  1.65627795e-06  2.62519217e-05
  0.00000000e+00  0.00000000e+00  0.00000000e+00 -1.07101586e-06
  0.00000000e+00  0.00000000e+00  0.00000000e+00  0.00000000e+00
  0.00000000e+00  0.00000000e+00  0.00000000e+00  0.00000000e+00
  0.00000000e+00  0.00000000e+00  0.00000000e+00  0.00000000e+00
  0.00000000e+00  0.00000000e+00  0.00000000e+00  0.00000000e+00
  0.00000000e+00  0.00000000e+00 -3.18307773e-06 -1.07101586e-06
  0.00000000e+00  0.00000000e+00  0.00000000e+00  3.84425521e-06]","[[-0.00045867  0.01759112]
 [-0.00057624 -0.00428289]]",[],0.0,0.0
1787564552.539033,2.2192516617832547,0.9792373991905942,2.1786699916021846,"[ 3.16178378e-05  1.65627795e-06  0.00000000e+00  0.00000000e+00
  0.00000000e+00 -3.18307773e-06  1.65627795e-06  2.62519217e-05
  0.00000000e+00  0.00000000e+00  0.00000000e+00 -1.07101586e-06
  0.00000000e+00  0.00000000e+00  0.00000000e+00  0.00000000e+00
  0.00000000e+00  0.00000000e+00  0.00000000e+00  0.00000000e+00
  0.00000000e+00  0.00000000e+00  0.00000000e+00  0.00000000e+00
  0.00000000e+00  0.00000000e+00  0.00000000e+00  0.00000000e+00
  0.00000000e+00  0.00000000e+00 -3.18307773e-06 -1.07101586e-06
  0.00000000e+00  0.00000000e+00  0.00000000e+00  3.84425521e-06]","[[-0.00045867  0.01759112]
 [-0.00057624 -0.00428289]]",[],0.0,0.0
1787564552.5786169,2.2192516617832547,0.9792373991905942,2.1786699916021846,"[ 3.16178378e-05  1.65627795e-06  0.00000000e+00  0.00000000e+00
  0.00000000e+00 -3.18307773e-06  1.65627795e-06  2.62519217e-05
  0.00000000e+00  0.00000000e+00  0.00000000e+00 -1.07101586e-06
  0.00000000e+00  0.00000000e+00  0.00000000e+00  0.00000000e+00
  0.00000000e+00  0.00000000e+00  0.00000000e+00  0.00000000e+00
  0.00000000e+00  0.00000000e+00  0.00000000e+00  0.00000000e+00
  0.00000000e+00  0.00000000e+00  0.00000000e+00  0.00000000e+00
  0.00000000e+00  0.00000000e+00 -3.18307773e-06 -1.07101586e-06
  0.00000000e+00  0.00000000e+00  0.00000000e+00  3.84425521e-06]","[[-0.00045867  0.01759112]
 [-0.00057624 -0.00428289]]",[],0.0,0.0
1787564552.629628,2.2192516617832547,0.9792373991905942,2.1786699916021846,"[ 3.16178378e-05  1.65627795e-06  0.00000000e+00  0.00000000e+00
  0.00000000e+00 -3.18307773e-06  1.65627795e-06  2.62519217e-05
  0.00000000e+00  0.00000000e+00  0.00000000e+00 -1.07101586e-06
  0.00000000e+00  0.00000000e+00  0.00000000e+00  0.00000000e+00
  0.00000000e+00  0.00000000e+00  0.00000000e+00  0.00000000e+00
  0.00000000e+00  0.00000000e+00  0.00000000e+00  0.00000000e+00
  0.00000000e+00  0.00000000e+00  0.00000000e+00  0.00000000e+00
  0.00000000e+00  0.00000000e+00 -3.18307773e-06 -1.07101586e-06
  0.00000000e+00  0.00000000e+00  0.00000000e+00  3.84425521e-06]","[[-0.00045867  0.01759112]
 [-0.00057624 -0.00428289]]",[],0.0,0.0
1787564552.6789308,2.2192516617832547,0.9792373991905942,2.1786699916021846,"[ 3.16178378e-05  1.65627795e-06  0.00000000e+00  0.00000000e+00
  0.00000000e+00 -3.18307773e-06  1.65627795e-06  2.62519217e-05
  0.00000000e+00  0.00000000e+00  0.00000000e+00 -1.07101586e-06
  0.00000000e+00  0.00000000e+00  0.00000000e+00  0.00000000e+00
  0.00000000e+00  0.00000000e+00  0.00000000e+00  0.00000000e+00
  0.00000000e+00  0.00000000e+00  0.00000000e+00  0.00000000e+00
  0.00000000e+00  0.00000000e+00  0.00000000e+00  0.00000000e+00
  0.00000000e+00  0.00000000e+00 -3.18307773e-06 -1.07101586e-06
  0.00000000e+00  0.00000000e+00  0.00000000e+00  3.84425521e-06]","[[-0.00045867  0.01759112]
 [-0.00057624 -0.00428289]]",[],0.0,0.0
1787564552.7378016,2.2192516617832547,0.9792373991905942,2.1786699916021846,"[ 3.16178378e-05  1.65627795e-06  0.00000000e+00  0.00000000e+00
  0.00000000e+00 -3.18307773e-06  1.65627795e-06  2.62519217e-05
  0.00000000e+00  0.00000000e+00  0.00000000e+00 -1.07101586e-06
  0.00000000e+00  0.00000000e+00  0.00000000e+00  0.00000000e+00
  0.00000000e+00  0.00000000e+00  0.00000000e+00  0.00000000e+00
  0.00000000e+00  0.00000000e+00  0.00000000e+00  0.00000000e+00
  0.00000000e+00  0.00000000e+00  0.00000000e+00  0.00000000e+00
  0.00000000e+00  0.00000000e+00 -3.18307773e-06 -1.07101586e-06
  0.00000000e+00  0.00000000e+00  0.00000000e+00  3.84425521e-06]","[[-0.00045867  0.01759112]
 [-0.00057624 -0.00428289]]",[],0.0,0.0
1787564552.779598,2.2192516617832547,0.9792373991905942,2.1786699916021846,"[ 3.16178378e-05  1.65627795e-06  0.00000000e+00  0.00000000e+00
  0.00000000e+00 -3.18307773e-06  1.65627795e-06  2.62519217e-05
  0.00000000e+00  0.00000000e+00  0.00000000e+00 -1.07101586e-06
  0.00000000e+00  0.00000000e+00  0.00000000e+00  0.00000000e+00
  0.00000000e+00  0.00000000e+00  0.00000000e+00  0.00000000e+00
  0.00000000e+00  0.00000000e+00  0.00000000e+00  0.00000000e+00
  0.00000000e+00  0.00000000e+00  0.00000000e+00  0.00000000e+00
  0.00000000e+00  0.00000000e+00 -3.18307773e-06 -1.07101586e-06
  0.00000000e+00  0.00000000e+00  0.00000000e+00  3.84425521e-06]","[[-0.00045867  0.01759112]
 [-0.00057624 -0.00428289]]",[],0.0,0.0
1787564552.830726,2.2192516617832547,0.9792373991905942,2.1786699916021846,"[ 3.16178378e-05  1.65627795e-06  0.00000000e+00  0.00000000e+00
  0.00000000e+00 -3.18307773e-06  1.65627795e-06  2.62519217e-05
  0.00000000e+00  0.00000000e+00  0.00000000e+00 -1.07101586e-06
  0.00000000e+00  0.00000000e+00  0.00000000e+00  0.00000000e+00
  0.00000000e+00  0.00000000e+00  0.00000000e+00  0.00000000e+00
  0.00000000e+00  0.00000000e+00  0.00000000e+00  0.00000000e+00
  0.00000000e+00  0.00000000e+00  0.00000000e+00  0.00000000e+00
  0.00000000e+00  0.00000000e+00 -3.18307773e-06 -1.07101586e-06
  0.00000000e+00  0.00000000e+00  0.00000000e+00  3.84425521e-06]","[[-0.00045867  0.01759112]
 [-0.00057624 -0.00428289]]",[],0.0,0.0
1787564552.8793957,2.2192516617832547,0.9792373991905942,2.1786699916021846,"[ 3.16178378e-05  1.65627795e-06  0.00000000e+00  0.00000000e+00
  0.00000000e+00 -3.18307773e-06  1.65627795e-06  2.62519217e-05
  0.00000000e+00  0.00000000e+00  0.00000000e+00 -1.07101586e-06
  0.00000000e+00  0.00000000e+00  0.00000000e+00  0.00000000e+00
  0.00000000e+00  0.00000000e+00  0.00000000e+00  0.00000000e+00
  0.00000000e+00  0.00000000e+00  0.00000000e+00  0.00000000e+00
  0.00000000e+00  0.00000000e+00  0.00000000e+00  0.00000000e+00
  0.00000000e+00  0.00000000e+00 -3.18307773e-06 -1.07101586e-06
  0.00000000e+00  0.00000000e+00  0.00000000e+00  3.84425521e-06]","[[-0.00045867  0.01759112]
 [-0.00057624 -0.00428289]]",[],0.0,0.0
1787564552.9297674,2.2192516617832547,0.9792373991905942,2.1786699916021846,"[ 3.16178378e-05  1.65627795e-06  0.00000000e+00  0.00000000e+00
  0.00000000e+00 -3.18307773e-06  1.65627795e-06  2.62519217e-05
  0.00000000e+00  0.00000000e+00  0.00000000e+00 -1.07101586e-06
  0.00000000e+00  0.00000000e+00  0.00000000e+00  0.00000000e+00
  0.00000000e+00  0.00000000e+00  0.00000000e+00  0.00000000e+00
  0.00000000e+00  0.00000000e+00  0.00000000e+00  0.00000000e+00
  0.00000000e+00  0.00000000e+00  0.00000000e+00  0.00000000e+00
  0.00000000e+00  0.00000000e+00 -3.18307773e-06 -1.07101586e-06
  0.00000000e+00  0.00000000e+00  0.00000000e+00  3.84425521e-06]","[[-0.00045867  0.01759112]
 [-0.00057624 -0.00428289]]",[],0.0,0.0
1787564552.9792335,2.2192516617832547,0.9792373991905942,2.1786699916021846,"[ 3.16178378e-05  1.65627795e-06  0.00000000e+00  0.00000000e+00
  0.00000000e+00 -3.18307773e-06  1.65627795e-06  2.62519217e-05
  0.00000000e+00  0.00000000e+00  0.00000000e+00 -1.07101586e-06
  0.00000000e+00  0.00000000e+00  0.00000000e+00  0.00000000e+00
  0.00000000e+00  0.00000000e+00  0.00000000e+00  0.00000000e+00
  0.00000000e+00  0.00000000e+00  0.00000000e+00  0.00000000e+00
  0.00000000e+00  0.00000000e+00  0.00000000e+00  0.00000000e+00
  0.00000000e+00  0.00000000e+00 -3.18307773e-06 -1.07101586e-06
  0.00000000e+00  0.00000000e+00  0.00000000e+00  3.84425521e-06]","[[-0.00045867  0.01759112]
 [-0.00057624 -0.00428289]]",[],0.0,0.0
1787564553.0377324,2.2192516617832547,0.9792373991905942,2.1786699916021846,"[ 3.16178378e-05  1.65627795e-06  0.00000000e+00  0.00000000e+00
  0.00000000e+00 -3.18307773e-06  1.65627795e-06  2.62519217e-05
  0.00000000e+00  0.00000000e+00  0.00000000e+00 -1.07101586e-06
  0.00000000e+00  0.00000000e+00  0.00000000e+00  0.00000000e+00
  0.00000000e+00  0.00000000e+00  0.00000000e+00  0.00000000e+00
  0.00000000e+00  0.00000000e+00  0.00000000e+00  0.00000000e+00
  0.00000000e+00  0.00000000e+00  0.00000000e+00  0.00000000e+00
  0.00000000e+00  0.00000000e+00 -3.18307773e-06 -1.07101586e-06
  0.00000000e+00  0.00000000e+00  0.00000000e+00  3.84425521e-06]","[[-0.00045867  0.01759112]
 [-0.00057624 -0.00428289]]",[],0.0,0.0
1787564553.0811615,2.2192516617832547,0.9792373991905942,2.1786699916021846,"[ 3.16178378e-05  1.65627795e-06  0.00000000e+00  0.00000000e+00
  0.00000000e+00 -3.18307773e-06  1.65627795e-06  2.62519217e-05
  0.00000000e+00  0.00000000e+00  0.00000000e+00 -1.07101586e-06
  0.00000000e+00  0.00000000e+00  0.00000000e+00  0.00000000e+00
  0.00000000e+00  0.00000000e+00  0.00000000e+00  0.00000000e+00
  0.00000000e+00  0.00000000e+00  0.00000000e+00  0.00000000e+00
  0.00000000e+00  0.00000000e+00  0.00000000e+00  0.00000000e+00
  0.00000000e+00  0.00000000e+00 -3.18307773e-06 -1.07101586e-06
  0.00000000e+00  0.00000000e+00  0.00000000e+00  3.84425521e-06]","[[-0.00045867  0.01759112]
 [-0.00057624 -0.00428289]]",[],0.0,0.0
1787564553.1321414,2.2192516617832547,0.9792373991905942,2.1786699916021846,"[ 3.16178378e-05  1.65627795e-06  0.00000000e+00  0.00000000e+00
  0.00000000e+00 -3.18307773e-06  1.65627795e-06  2.62519217e-05
  0.00000000e+00  0.00000000e+00  0.00000000e+00 -1.07101586e-06
  0.00000000e+00  0.00000000e+00  0.00000000e+00  0.00000000e+00
  0.00000000e+00  0.00000000e+00  0.00000000e+00  0.00000000e+00
  0.00000000e+00  0.00000000e+00  0.00000000e+00  0.00000000e+00
  0.00000000e+00  0.00000000e+00  0.00000000e+00  0.00000000e+00
  0.00000000e+00  0.00000000e+00 -3.18307773e-06 -1.07101586e-06
  0.00000000e+00  0.00000000e+00  0.00000000e+00  3.84425521e-06]","[[-0.00045867  0.01759112]
 [-0.00057624 -0.00428289]]",[],0.0,0.0
1787564553.1786103,2.2192516617832547,0.9792373991905942,2.1786699916021846,"[ 3.16178378e-05  1.65627795e-06  0.00000000e+00  0.00000000e+00
  0.00000000e+00 -3.18307773e-06  1.65627795e-06  2.62519217e-05
  0.00000000e+00  0.00000000e+00  0.00000000e+00 -1.07101586e-06
  0.00000000e+00  0.00000000e+00  0.00000000e+00  0.00000000e+00
  0.00000000e+00  0.00000000e+00  0.00000000e+00  0.00000000e+00
  0.00000000e+00  0.00000000e+00  0.00000000e+00  0.00000000e+00
  0.00000000e+00  0.00000000e+00  0.00000000e+00  0.00000000e+00
  0.00000000e+00  0.00000000e+00 -3.18307773e-06 -1.07101586e-06
  0.00000000e+00  0.00000000e+00  0.00000000e+00  3.84425521e-06]","[[-0.00045867  0.01759112]
 [-0.00057624 -0.00428289]]",[],0.0,0.0
1787564553.2287252,2.2192516617832547,0.9792373991905942,2.1786699916021846,"[ 3.16178378e-05  1.65627795e-06  0.00000000e+00  0.00000000e+00
  0.00000000e+00 -3.18307773e-06  1.65627795e-06  2.62519217e-05
  0.00000000e+00  0.00000000e+00  0.00000000e+00 -1.07101586e-06
  0.00000000e+00  0.00000000e+00  0.00000000e+00  0.00000000e+00
  0.00000000e+00  0.00000000e+00  0.00000000e+00  0.00000000e+00
  0.00000000e+00  0.00000000e+00  0.00000000e+00  0.00000000e+00
  0.00000000e+00  0.00000000e+00  0.00000000e+00  0.00000000e+00
  0.00000000e+00  0.00000000e+00 -3.18307773e-06 -1.07101586e-06
  0.00000000e+00  0.00000000e+00  0.00000000e+00  3.84425521e-06]","[[-0.00045867  0.01759112]
 [-0.00057624 -0.00428289]]",[],0.0,0.0
1787564553.2835681,2.2257812101811063,0.9647380084074715,2.2117837672416734,"[ 2.07141144e-05  9.62289170e-07  0.00000000e+00  0.00000000e+00
  0.00000000e+00 -1.84138631e-06  9.62289170e-07  1.73614525e-05
  0.00000000e+00  0.00000000e+00  0.00000000e+00 -7.71782168e-07
  0.00000000e+00  0.00000000e+00  0.00000000e+00  0.00000000e+00
  0.00000000e+00  0.00000000e+00  0.00000000e+00  0.00000000e+00
  0.00000000e+00  0.00000000e+00  0.00000000e+00  0.00000000e+00
  0.00000000e+00  0.00000000e+00  0.00000000e+00  0.00000000e+00
  0.00000000e+00  0.00000000e+00 -1.84138631e-06 -7.71782168e-07
  0.00000000e+00  0.00000000e+00  0.00000000e+00  3.89787767e-06]","[[-0.00029502  0.01115064]
 [-0.00038073 -0.00271218]]",[],0.0,0.0
1787564553.329986,2.2257812101811063,0.9647380084074715,2.2117837672416734,"[ 2.07141144e-05  9.62289170e-07  0.00000000e+00  0.00000000e+00
  0.00000000e+00 -1.84138631e-06  9.62289170e-07  1.73614525e-05
  0.00000000e+00  0.00000000e+00  0.00000000e+00 -7.71782168e-07
  0.00000000e+00  0.00000000e+00  0.00000000e+00  0.00000000e+00
  0.00000000e+00  0.00000000e+00  0.00000000e+00  0.00000000e+00
  0.00000000e+00  0.00000000e+00  0.00000000e+00  0.00000000e+00
  0.00000000e+00  0.00000000e+00  0.00000000e+00  0.00000000e+00
  0.00000000e+00  0.00000000e+00 -1.84138631e-06 -7.71782168e-07
  0.00000000e+00  0.00000000e+00  0.00000000e+00  3.89787767e-06]","[[-0.00029502  0.01115064]
 [-0.00038073 -0.00271218]]",[],0.0,0.0
1787564553.379096,2.2257812101811063,0.9647380084074715,2.2117837672416734,"[ 2.07141144e-05  9.62289170e-07  0.00000000e+00  0.00000000e+00
  0.00000000e+00 -1.84138631e-06  9.62289170e-07  1.73614525e-05
  0.00000000e+00  0.00000000e+00  0.00000000e+00 -7.71782168e-07
  0.00000000e+00  0.00000000e+00  0.00000000e+00  0.00000000e+00
  0.00000000e+00  0.00000000e+00  0.00000000e+00  0.00000000e+00
  0.00000000e+00  0.00000000e+00  0.00000000e+00  0.00000000e+00
  0.00000000e+00  0.00000000e+00  0.00000000e+00  0.00000000e+00
  0.00000000e+00  0.00000000e+00 -1.84138631e-06 -7.71782168e-07
  0.00000000e+00  0.00000000e+00  0.00000000e+00  3.89787767e-06]","[[-0.00029502  0.01115064]
 [-0.00038073 -0.00271218]]",[],0.0,0.0
1787564553.4312682,2.2257812101811063,0.9647380084074715,2.2117837672416734,"[ 2.07141144e-05  9.62289170e-07  0.00000000e+00  0.00000000e+00
  0.00000000e+00 -1.84138631e-06  9.62289170e-07  1.73614525e-05
  0.00000000e+00  0.00000000e+00  0.00000000e+00 -7.71782168e-07
  0.00000000e+00  0.00000000e+00  0.00000000e+00  0.00000000e+00
  0.00000000e+00  0.00000000e+00  0.00000000e+00  0.00000000e+00
  0.00000000e+00  0.00000000e+00  0.00000000e+00  0.00000000e+00
  0.00000000e+00  0.00000000e+00  0.00000000e+00  0.00000000e+00
  0.00000000e+00  0.00000000e+00 -1.84138631e-06 -7.71782168e-07
  0.00000000e+00  0.00000000e+00  0.00000000e+00  3.89787767e-06]","[[-0.00029502  0.01115064]
 [-0.00038073 -0.00271218]]",[],0.0,0.0
1787564553.4828014,2.2257812101811063,0.9647380084074715,2.2117837672416734,"[ 2.07141144e-05  9.62289170e-07  0.00000000e+00  0.00000000e+00
  0.00000000e+00 -1.84138631e-06  9.62289170e-07  1.73614525e-05
  0.00000000e+00  0.00000000e+00  0.00000000e+00 -7.71782168e-07
  0.00000000e+00  0.00000000e+00  0.00000000e+00  0.00000000e+00
  0.00000000e+00  0.00000000e+00  0.00000000e+00  0.00000000e+00
  0.00000000e+00  0.00000000e+00  0.00000000e+00  0.00000000e+00
  0.00000000e+00  0.00000000e+00  0.00000000e+00  0.00000000e+00
  0.00000000e+00  0.00000000e+00 -1.84138631e-06 -7.71782168e-07
  0.00000000e+00  0.00000000e+00  0.00000000e+00  3.89787767e-06]","[[-0.00029502  0.01115064]
 [-0.00038073 -0.00271218]]",[],0.0,0.0
1787564553.5316432,2.2257812101811063,0.9647380084074715,2.2117837672416734,"[ 2.07141144e-05  9.62289170e-07  0.00000000e+00  0.00000000e+00
  0.00000000e+00 -1.84138631e-06  9.62289170e-07  1.73614525e-05
  0.00000000e+00  0.00000000e+00  0.00000000e+00 -7.71782168e-07
  0.00000000e+00  0.00000000e+00  0.00000000e+00  0.00000000e+00
  0.00000000e+00  0.00000000e+00  0.00000000e+00  0.00000000e+00
  0.00000000e+00  0.00000000e+00  0.00000000e+00  0.00000000e+00
  0.00000000e+00  0.00000000e+00  0.00000000e+00  0.00000000e+00
  0.00000000e+00  0.00000000e+00 -1.84138631e-06 -7.71782168e-07
  0.00000000e+00  0.00000000e+00  0.00000000e+00  3.89787767e-06]","[[-0.00029502  0.01115064]
 [-0.00038073 -0.00271218]]",[],0.0,0.0
1787564553.57875,2.2257812101811063,0.9647380084074715,2.2117837672416734,"[ 2.07141144e-05  9.62289170e-07  0.00000000e+00  0.00000000e+00
  0.00000000e+00 -1.84138631e-06  9.62289170e-07  1.73614525e-05
  0.00000000e+00  0.00000000e+00  0.00000000e+00 -7.71782168e-07
  0.00000000e+00  0.00000000e+00  0.00000000e+00  0.00000000e+00
  0.00000000e+00  0.00000000e+00  0.00000000e+00  0.00000000e+00
  0.00000000e+00  0.00000000e+00  0.00000000e+00  0.00000000e+00
  0.00000000e+00  0.00000000e+00  0.00000000e+00  0.00000000e+00
  0.00000000e+00  0.00000000e+00 -1.84138631e-06 -7.71782168e-07
  0.00000000e+00  0.00000000e+00  0.00000000e+00  3.89787767e-06]","[[-0.00029502  0.01115064]
 [-0.00038073 -0.00271218]]",[],0.0,0.0
1787564553.6306615,2.2257812101811063,0.9647380084074715,2.2117837672416734,"[ 2.07141144e-05  9.62289170e-07  0.00000000e+00  0.00000000e+00
  0.00000000e+00 -1.84138631e-06  9.62289170e-07  1.73614525e-05
  0.00000000e+00  0.00000000e+00  0.00000000e+00 -7.71782168e-07
  0.00000000e+00  0.00000000e+00  0.00000000e+00  0.00000000e+00
  0.00000000e+00  0.00000000e+00  0.00000000e+00  0.00000000e+00
  0.00000000e+00  0.00000000e+00  0.00000000e+00  0.00000000e+00
  0.00000000e+00  0.00000000e+00  0.00000000e+00  0.00000000e+00
  0.00000000e+00  0.00000000e+00 -1.84138631e-06 -7.71782168e-07
  0.00000000e+00  0.00000000e+00  0.00000000e+00  3.89787767e-06]","[[-0.00029502  0.01115064]
 [-0.00038073 -0.00271218]]",[],0.0,0.0
1787564553.694039,2.2257812101811063,0.9647380084074715,2.2117837672416734,"[ 2.07141144e-05  9.62289170e-07  0.00000000e+00  0.00000000e+00
  0.00000000e+00 -1.84138631e-06  9.62289170e-07  1.73614525e-05
  0.00000000e+00  0.00000000e+00  0.00000000e+00 -7.71782168e-07
  0.00000000e+00  0.00000000e+00  0.00000000e+00  0.00000000e+00
  0.00000000e+00  0.00000000e+00  0.00000000e+00  0.00000000e+00
  0.00000000e+00  0.00000000e+00  0.00000000e+00  0.00000000e+00
  0.00000000e+00  0.00000000e+00  0.00000000e+00  0.00000000e+00
  0.00000000e+00  0.00000000e+00 -1.84138631e-06 -7.71782168e-07
  0.00000000e+00  0.00000000e+00  0.00000000e+00  3.89787767e-06]","[[-0.00029502  0.01115064]
 [-0.00038073 -0.00271218]]",[],0.0,0.0
1787564553.736533,2.2257812101811063,0.9647380084074715,2.2117837672416734,"[ 2.07141144e-05  9.62289170e-07  0.00000000e+00  0.00000000e+00
  0.00000000e+00 -1.84138631e-06  9.62289170e-07  1.73614525e-05
  0.00000000e+00  0.00000000e+00  0.00000000e+00 -7.71782168e-07
  0.00000000e+00  0.00000000e+00  0.00000000e+00  0.00000000e+00
  0.00000000e+00  0.00000000e+00  0.00000000e+00  0.00000000e+00
  0.00000000e+00  0.00000000e+00  0.00000000e+00  0.00000000e+00
  0.00000000e+00  0.00000000e+00  0.00000000e+00  0.00000000e+00
  0.00000000e+00  0.00000000e+00 -1.84138631e-06 -7.71782168e-07
  0.00000000e+00  0.00000000e+00  0.00000000e+00  3.89787767e-06]","[[-0.00029502  0.01115064]
 [-0.00038073 -0.00271218]]",[],0.0,0.0
1787564553.7961133,2.2257812101811063,0.9647380084074715,2.2117837672416734,"[ 2.07141144e-05  9.62289170e-07  0.00000000e+00  0.00000000e+00
  0.00000000e+00 -1.84138631e-06  9.62289170e-07  1.73614525e-05
  0.00000000e+00  0.00000000e+00  0.00000000e+00 -7.71782168e-07
  0.00000000e+00  0.00000000e+00  0.00000000e+00  0.00000000e+00
  0.00000000e+00  0.00000000e+00  0.00000000e+00  0.00000000e+00
  0.00000000e+00  0.00000000e+00  0.00000000e+00  0.00000000e+00
  0.00000000e+00  0.00000000e+00  0.00000000e+00  0.00000000e+00
  0.00000000e+00  0.00000000e+00 -1.84138631e-06 -7.71782168e-07
  0.00000000e+00  0.00000000e+00  0.00000000e+00  3.89787767e-06]","[[-0.00029502  0.01115064]
 [-0.00038073 -0.00271218]]",[],0.0,0.0
1787564553.842414,2.2257812101811063,0.9647380084074715,2.2117837672416734,"[ 2.07141144e-05  9.62289170e-07  0.00000000e+00  0.00000000e+00
  0.00000000e+00 -1.84138631e-06  9.62289170e-07  1.73614525e-05
  0.00000000e+00  0.00000000e+00  0.00000000e+00 -7.71782168e-07
  0.00000000e+00  0.00000000e+00  0.00000000e+00  0.00000000e+00
  0.00000000e+00  0.00000000e+00  0.00000000e+00  0.00000000e+00
  0.00000000e+00  0.00000000e+00  0.00000000e+00  0.00000000e+00
  0.00000000e+00  0.00000000e+00  0.00000000e+00  0.00000000e+00
  0.00000000e+00  0.00000000e+00 -1.84138631e-06 -7.71782168e-07
  0.00000000e+00  0.00000000e+00  0.00000000e+00  3.89787767e-06]","[[-0.00029502  0.01115064]
 [-0.00038073 -0.00271218]]",[],0.0,0.0
1787564553.8830154,2.2257812101811063,0.9647380084074715,2.2117837672416734,"[ 2.07141144e-05  9.62289170e-07  0.00000000e+00  0.00000000e+00
  0.00000000e+00 -1.84138631e-06  9.62289170e-07  1.73614525e-05
  0.00000000e+00  0.00000000e+00  0.00000000e+00 -7.71782168e-07
  0.00000000e+00  0.00000000e+00  0.00000000e+00  0.00000000e+00
  0.00000000e+00  0.00000000e+00  0.00000000e+00  0.00000000e+00
  0.00000000e+00  0.00000000e+00  0.00000000e+00  0.00000000e+00
  0.00000000e+00  0.00000000e+00  0.00000000e+00  0.00000000e+00
  0.00000000e+00  0.00000000e+00 -1.84138631e-06 -7.71782168e-07
  0.00000000e+00  0.00000000e+00  0.00000000e+00  3.89787767e-06]","[[-0.00029502  0.01115064]
 [-0.00038073 -0.00271218]]",[],0.0,0.0
1787564553.943872,2.2257812101811063,0.9647380084074715,2.2117837672416734,"[ 2.07141144e-05  9.62289170e-07  0.00000000e+00  0.00000000e+00
  0.00000000e+00 -1.84138631e-06  9.62289170e-07  1.73614525e-05
  0.00000000e+00  0.00000000e+00  0.00000000e+00 -7.71782168e-07
  0.00000000e+00  0.00000000e+00  0.00000000e+00  0.00000000e+00
  0.00000000e+00  0.00000000e+00  0.00000000e+00  0.00000000e+00
  0.00000000e+00  0.00000000e+00  0.00000000e+00  0.00000000e+00
  0.00000000e+00  0.00000000e+00  0.00000000e+00  0.00000000e+00
  0.00000000e+00  0.00000000e+00 -1.84138631e-06 -7.71782168e-07
  0.00000000e+00  0.00000000e+00  0.00000000e+00  3.89787767e-06]","[[-0.00029502  0.01115064]
 [-0.00038073 -0.00271218]]",[],0.0,0.0
1787564554.0174694,2.2257812101811063,0.9647380084074715,2.2117837672416734,"[ 2.07141144e-05  9.62289170e-07  0.00000000e+00  0.00000000e+00
  0.00000000e+00 -1.84138631e-06  9.62289170e-07  1.73614525e-05
  0.00000000e+00  0.00000000e+00  0.00000000e+00 -7.71782168e-07
  0.00000000e+00  0.00000000e+00  0.00000000e+00  0.00000000e+00
  0.00000000e+00  0.00000000e+00  0.00000000e+00  0.00000000e+00
  0.00000000e+00  0.00000000e+00  0.00000000e+00  0.00000000e+00
  0.00000000e+00  0.00000000e+00  0.00000000e+00  0.00000000e+00
  0.00000000e+00  0.00000000e+00 -1.84138631e-06 -7.71782168e-07
  0.00000000e+00  0.00000000e+00  0.00000000e+00  3.89787767e-06]","[[-0.00029502  0.01115064]
 [-0.00038073 -0.00271218]]",[],0.0,0.0
1787564554.0310922,2.2257812101811063,0.9647380084074715,2.2117837672416734,"[ 2.07141144e-05  9.62289170e-07  0.00000000e+00  0.00000000e+00
  0.00000000e+00 -1.84138631e-06  9.62289170e-07  1.73614525e-05
  0.00000000e+00  0.00000000e+00  0.00000000e+00 -7.71782168e-07
  0.00000000e+00  0.00000000e+00  0.00000000e+00  0.00000000e+00
  0.00000000e+00  0.00000000e+00  0.00000000e+00  0.00000000e+00
  0.00000000e+00  0.00000000e+00  0.00000000e+00  0.00000000e+00
  0.00000000e+00  0.00000000e+00  0.00000000e+00  0.00000000e+00
  0.00000000e+00  0.00000000e+00 -1.84138631e-06 -7.71782168e-07
  0.00000000e+00  0.00000000e+00  0.00000000e+00  3.89787767e-06]","[[-0.00029502  0.01115064]
 [-0.00038073 -0.00271218]]",[],0.0,0.0
1787564554.0988877,2.2257812101811063,0.9647380084074715,2.2117837672416734,"[ 2.07141144e-05  9.62289170e-07  0.00000000e+00  0.00000000e+00
  0.00000000e+00 -1.84138631e-06  9.62289170e-07  1.73614525e-05
  0.00000000e+00  0.00000000e+00  0.00000000e+00 -7.71782168e-07
  0.00000000e+00  0.00000000e+00  0.00000000e+00  0.00000000e+00
  0.00000000e+00  0.00000000e+00  0.00000000e+00  0.00000000e+00
  0.00000000e+00  0.00000000e+00  0.00000000e+00  0.00000000e+00
  0.00000000e+00  0.00000000e+00  0.00000000e+00  0.00000000e+00
  0.00000000e+00  0.00000000e+00 -1.84138631e-06 -7.71782168e-07
  0.00000000e+00  0.00000000e+00  0.00000000e+00  3.89787767e-06]","[[-0.00029502  0.01115064]
 [-0.00038073 -0.00271218]]",[],0.0,0.0
1787564554.1410692,2.2257812101811063,0.9647380084074715,2.2117837672416734,"[ 2.07141144e-05  9.62289170e-07  0.00000000e+00  0.00000000e+00
  0.00000000e+00 -1.84138631e-06  9.62289170e-07  1.73614525e-05
  0.00000000e+00  0.00000000e+00  0.00000000e+00 -7.71782168e-07
  0.00000000e+00  0.00000000e+00  0.00000000e+00  0.00000000e+00
  0.00000000e+00  0.00000000e+00  0.00000000e+00  0.00000000e+00
  0.00000000e+00  0.00000000e+00  0.00000000e+00  0.00000000e+00
  0.00000000e+00  0.00000000e+00  0.00000000e+00  0.00000000e+00
  0.00000000e+00  0.00000000e+00 -1.84138631e-06 -7.71782168e-07
  0.00000000e+00  0.00000000e+00  0.00000000e+00  3.89787767e-06]","[[-0.00029502  0.01115064]
 [-0.00038073 -0.00271218]]",[],0.0,0.0
1787564554.2262714,2.2219112159376535,0.9478961638302539,2.240991029646932,"[ 1.52915657e-05  3.92187441e-07  0.00000000e+00  0.00000000e+00
  0.00000000e+00 -1.26084216e-06  3.92187441e-07  1.29623893e-05
  0.00000000e+00  0.00000000e+00  0.00000000e+00 -4.22117669e-07
  0.00000000e+00  0.00000000e+00  0.00000000e+00  0.00000000e+00
  0.00000000e+00  0.00000000e+00  0.00000000e+00  0.00000000e+00
  0.00000000e+00  0.00000000e+00  0.00000000e+00  0.00000000e+00
  0.00000000e+00  0.00000000e+00  0.00000000e+00  0.00000000e+00
  0.00000000e+00  0.00000000e+00 -1.26084216e-06 -4.22117669e-07
  0.00000000e+00  0.00000000e+00  0.00000000e+00  3.68197413e-06]","[[ 0.00023258  0.01061463]
 [-0.00024594  0.00663372]]",[],0.0,0.0
1787564554.2302403,2.2219112159376535,0.9478961638302539,2.240991029646932,"[ 1.52915657e-05  3.92187441e-07  0.00000000e+00  0.00000000e+00
  0.00000000e+00 -1.26084216e-06  3.92187441e-07  1.29623893e-05
  0.00000000e+00  0.00000000e+00  0.00000000e+00 -4.22117669e-07
  0.00000000e+00  0.00000000e+00  0.00000000e+00  0.00000000e+00
  0.00000000e+00  0.00000000e+00  0.00000000e+00  0.00000000e+00
  0.00000000e+00  0.00000000e+00  0.00000000e+00  0.00000000e+00
  0.00000000e+00  0.00000000e+00  0.00000000e+00  0.00000000e+00
  0.00000000e+00  0.00000000e+00 -1.26084216e-06 -4.22117669e-07
  0.00000000e+00  0.00000000e+00  0.00000000e+00  3.68197413e-06]","[[ 0.00023258  0.01061463]
 [-0.00024594  0.00663372]]",[],0.0,0.0
1787564554.3179016,2.2219112159376535,0.9478961638302539,2.240991029646932,"[ 1.52915657e-05  3.92187441e-07  0.00000000e+00  0.00000000e+00
  0.00000000e+00 -1.26084216e-06  3.92187441e-07  1.29623893e-05
  0.00000000e+00  0.00000000e+00  0.00000000e+00 -4.22117669e-07
  0.00000000e+00  0.00000000e+00  0.00000000e+00  0.00000000e+00
  0.00000000e+00  0.00000000e+00  0.00000000e+00  0.00000000e+00
  0.00000000e+00  0.00000000e+00  0.00000000e+00  0.00000000e+00
  0.00000000e+00  0.00000000e+00  0.00000000e+00  0.00000000e+00
  0.00000000e+00  0.00000000e+00 -1.26084216e-06 -4.22117669e-07
  0.00000000e+00  0.00000000e+00  0.00000000e+00  3.68197413e-06]","[[ 0.00023258  0.01061463]
 [-0.00024594  0.00663372]]",[],0.0,0.0
1787564554.335186,2.2219112159376535,0.9478961638302539,2.240991029646932,"[ 1.52915657e-05  3.92187441e-07  0.00000000e+00  0.00000000e+00
  0.00000000e+00 -1.26084216e-06  3.92187441e-07  1.29623893e-05
  0.00000000e+00  0.00000000e+00  0.00000000e+00 -4.22117669e-07
  0.00000000e+00  0.00000000e+00  0.00000000e+00  0.00000000e+00
  0.00000000e+00  0.00000000e+00  0.00000000e+00  0.00000000e+00
  0.00000000e+00  0.00000000e+00  0.00000000e+00  0.00000000e+00
  0.00000000e+00  0.00000000e+00  0.00000000e+00  0.00000000e+00
  0.00000000e+00  0.00000000e+00 -1.26084216e-06 -4.22117669e-07
  0.00000000e+00  0.00000000e+00  0.00000000e+00  3.68197413e-06]","[[ 0.00023258  0.01061463]
 [-0.00024594  0.00663372]]",[],0.0,0.0
1787564554.385708,2.2219112159376535,0.9478961638302539,2.240991029646932,"[ 1.52915657e-05  3.92187441e-07  0.00000000e+00  0.00000000e+00
  0.00000000e+00 -1.26084216e-06  3.92187441e-07  1.29623893e-05
  0.00000000e+00  0.00000000e+00  0.00000000e+00 -4.22117669e-07
  0.00000000e+00  0.00000000e+00  0.00000000e+00  0.00000000e+00
  0.00000000e+00  0.00000000e+00  0.00000000e+00  0.00000000e+00
  0.00000000e+00  0.00000000e+00  0.00000000e+00  0.00000000e+00
  0.00000000e+00  0.00000000e+00  0.00000000e+00  0.00000000e+00
  0.00000000e+00  0.00000000e+00 -1.26084216e-06 -4.22117669e-07
  0.00000000e+00  0.00000000e+00  0.00000000e+00  3.68197413e-06]","[[ 0.00023258  0.01061463]
 [-0.00024594  0.00663372]]",[],0.0,0.0
1787564554.432569,2.2219112159376535,0.9478961638302539,2.240991029646932,"[ 1.52915657e-05  3.92187441e-07  0.00000000e+00  0.00000000e+00
  0.00000000e+00 -1.26084216e-06  3.92187441e-07  1.29623893e-05
  0.00000000e+00  0.00000000e+00  0.00000000e+00 -4.22117669e-07
  0.00000000e+00  0.00000000e+00  0.00000000e+00  0.00000000e+00
  0.00000000e+00  0.00000000e+00  0.00000000e+00  0.00000000e+00
  0.00000000e+00  0.00000000e+00  0.00000000e+00  0.00000000e+00
  0.00000000e+00  0.00000000e+00  0.00000000e+00  0.00000000e+00
  0.00000000e+00  0.00000000e+00 -1.26084216e-06 -4.22117669e-07
  0.00000000e+00  0.00000000e+00  0.00000000e+00  3.68197413e-06]","[[ 0.00023258  0.01061463]
 [-0.00024594  0.00663372]]",[],0.0,0.0
1787564554.5292659,2.2219112159376535,0.9478961638302539,2.240991029646932,"[ 1.52915657e-05  3.92187441e-07  0.00000000e+00  0.00000000e+00
  0.00000000e+00 -1.26084216e-06  3.92187441e-07  1.29623893e-05
  0.00000000e+00  0.00000000e+00  0.00000000e+00 -4.22117669e-07
  0.00000000e+00  0.00000000e+00  0.00000000e+00  0.00000000e+00
  0.00000000e+00  0.00000000e+00  0.00000000e+00  0.00000000e+00
  0.00000000e+00  0.00000000e+00  0.00000000e+00  0.00000000e+00
  0.00000000e+00  0.00000000e+00  0.00000000e+00  0.00000000e+00
  0.00000000e+00  0.00000000e+00 -1.26084216e-06 -4.22117669e-07
  0.00000000e+00  0.00000000e+00  0.00000000e+00  3.68197413e-06]","[[ 0.00023258  0.01061463]
 [-0.00024594  0.00663372]]",[],0.0,0.0
1787564554.5970848,2.2219112159376535,0.9478961638302539,2.240991029646932,"[ 1.52915657e-05  3.92187441e-07  0.00000000e+00  0.00000000e+00
  0.00000000e+00 -1.26084216e-06  3.92187441e-07  1.29623893e-05
  0.00000000e+00  0.00000000e+00  0.00000000e+00 -4.22117669e-07
  0.00000000e+00  0.00000000e+00  0.00000000e+00  0.00000000e+00
  0.00000000e+00  0.00000000e+00  0.00000000e+00  0.00000000e+00
  0.00000000e+00  0.00000000e+00  0.00000000e+00  0.00000000e+00
  0.00000000e+00  0.00000000e+00  0.00000000e+00  0.00000000e+00
  0.00000000e+00  0.00000000e+00 -1.26084216e-06 -4.22117669e-07
  0.00000000e+00  0.00000000e+00  0.00000000e+00  3.68197413e-06]","[[ 0.00023258  0.01061463]
 [-0.00024594  0.00663372]]",[],0.0,0.0
1787564554.6290832,2.2219112159376535,0.9478961638302539,2.240991029646932,"[ 1.52915657e-05  3.92187441e-07  0.00000000e+00  0.00000000e+00
  0.00000000e+00 -1.26084216e-06  3.92187441e-07  1.29623893e-05
  0.00000000e+00  0.00000000e+00  0.00000000e+00 -4.22117669e-07
  0.00000000e+00  0.00000000e+00  0.00000000e+00  0.00000000e+00
  0.00000000e+00  0.00000000e+00  0.00000000e+00  0.00000000e+00
  0.00000000e+00  0.00000000e+00  0.00000000e+00  0.00000000e+00
  0.00000000e+00  0.00000000e+00  0.00000000e+00  0.00000000e+00
  0.00000000e+00  0.00000000e+00 -1.26084216e-06 -4.22117669e-07
  0.00000000e+00  0.00000000e+00  0.00000000e+00  3.68197413e-06]","[[ 0.00023258  0.01061463]
 [-0.00024594  0.00663372]]",[],0.0,0.0
1787564554.6792943,2.2219112159376535,0.9478961638302539,2.240991029646932,"[ 1.52915657e-05  3.92187441e-07  0.00000000e+00  0.00000000e+00
  0.00000000e+00 -1.26084216e-06  3.92187441e-07  1.29623893e-05
  0.00000000e+00  0.00000000e+00  0.00000000e+00 -4.22117669e-07
  0.00000000e+00  0.00000000e+00  0.00000000e+00  0.00000000e+00
  0.00000000e+00  0.00000000e+00  0.00000000e+00  0.00000000e+00
  0.00000000e+00  0.00000000e+00  0.00000000e+00  0.00000000e+00
  0.00000000e+00  0.00000000e+00  0.00000000e+00  0.00000000e+00
  0.00000000e+00  0.00000000e+00 -1.26084216e-06 -4.22117669e-07
  0.00000000e+00  0.00000000e+00  0.00000000e+00  3.68197413e-06]","[[ 0.00023258  0.01061463]
 [-0.00024594  0.00663372]]",[],0.0,0.0
1787564554.7565753,2.2219112159376535,0.9478961638302539,2.240991029646932,"[ 1.52915657e-05  3.92187441e-07  0.00000000e+00  0.00000000e+00
  0.00000000e+00 -1.26084216e-06  3.92187441e-07  1.29623893e-05
  0.00000000e+00  0.00000000e+00  0.00000000e+00 -4.22117669e-07
  0.00000000e+00  0.00000000e+00  0.00000000e+00  0.00000000e+00
  0.00000000e+00  0.00000000e+00  0.00000000e+00  0.00000000e+00
  0.00000000e+00  0.00000000e+00  0.00000000e+00  0.00000000e+00
  0.00000000e+00  0.00000000e+00  0.00000000e+00  0.00000000e+00
  0.00000000e+00  0.00000000e+00 -1.26084216e-06 -4.22117669e-07
  0.00000000e+00  0.00000000e+00  0.00000000e+00  3.68197413e-06]","[[ 0.00023258  0.01061463]
 [-0.00024594  0.00663372]]",[],0.0,0.0
1787564554.7922173,2.2219112159376535,0.9478961638302539,2.240991029646932,"[ 1.52915657e-05  3.92187441e-07  0.00000000e+00  0.00000000e+00
  0.00000000e+00 -1.26084216e-06  3.92187441e-07  1.29623893e-05
  0.00000000e+00  0.00000000e+00  0.00000000e+00 -4.22117669e-07
  0.00000000e+00  0.00000000e+00  0.00000000e+00  0.00000000e+00
  0.00000000e+00  0.00000000e+00  0.00000000e+00  0.00000000e+00
  0.00000000e+00  0.00000000e+00  0.00000000e+00  0.00000000e+00
  0.00000000e+00  0.00000000e+00  0.00000000e+00  0.00000000e+00
  0.00000000e+00  0.00000000e+00 -1.26084216e-06 -4.22117669e-07
  0.00000000e+00  0.00000000e+00  0.00000000e+00  3.68197413e-06]","[[ 0.00023258  0.01061463]
 [-0.00024594  0.00663372]]",[],0.0,0.0
1787564554.8287268,2.2219112159376535,0.9478961638302539,2.240991029646932,"[ 1.52915657e-05  3.92187441e-07  0.00000000e+00  0.00000000e+00
  0.00000000e+00 -1.26084216e-06  3.92187441e-07  1.29623893e-05
  0.00000000e+00  0.00000000e+00  0.00000000e+00 -4.22117669e-07
  0.00000000e+00  0.00000000e+00  0.00000000e+00  0.00000000e+00
  0.00000000e+00  0.00000000e+00  0.00000000e+00  0.00000000e+00
  0.00000000e+00  0.00000000e+00  0.00000000e+00  0.00000000e+00
  0.00000000e+00  0.00000000e+00  0.00000000e+00  0.00000000e+00
  0.00000000e+00  0.00000000e+00 -1.26084216e-06 -4.22117669e-07
  0.00000000e+00  0.00000000e+00  0.00000000e+00  3.68197413e-06]","[[ 0.00023258  0.01061463]
 [-0.00024594  0.00663372]]",[],0.0,0.0
1787564554.8827899,2.2219112159376535,0.9478961638302539,2.240991029646932,"[ 1.52915657e-05  3.92187441e-07  0.00000000e+00  0.00000000e+00
  0.00000000e+00 -1.26084216e-06  3.92187441e-07  1.29623893e-05
  0.00000000e+00  0.00000000e+00  0.00000000e+00 -4.22117669e-07
  0.00000000e+00  0.00000000e+00  0.00000000e+00  0.00000000e+00
  0.00000000e+00  0.00000000e+00  0.00000000e+00  0.00000000e+00
  0.00000000e+00  0.00000000e+00  0.00000000e+00  0.00000000e+00
  0.00000000e+00  0.00000000e+00  0.00000000e+00  0.00000000e+00
  0.00000000e+00  0.00000000e+00 -1.26084216e-06 -4.22117669e-07
  0.00000000e+00  0.00000000e+00  0.00000000e+00  3.68197413e-06]","[[ 0.00023258  0.01061463]
 [-0.00024594  0.00663372]]",[],0.0,0.0
1787564554.9310138,2.2219112159376535,0.9478961638302539,2.240991029646932,"[ 1.52915657e-05  3.92187441e-07  0.00000000e+00  0.00000000e+00
  0.00000000e+00 -1.26084216e-06  3.92187441e-07  1.29623893e-05
  0.00000000e+00  0.00000000e+00  0.00000000e+00 -4.22117669e-07
  0.00000000e+00  0.00000000e+00  0.00000000e+00  0.00000000e+00
  0.00000000e+00  0.00000000e+00  0.00000000e+00  0.00000000e+00
  0.00000000e+00  0.00000000e+00  0.00000000e+00  0.00000000e+00
  0.00000000e+00  0.00000000e+00  0.00000000e+00  0.00000000e+00
  0.00000000e+00  0.00000000e+00 -1.26084216e-06 -4.22117669e-07
  0.00000000e+00  0.00000000e+00  0.00000000e+00  3.68197413e-06]","[[ 0.00023258  0.01061463]
 [-0.00024594  0.00663372]]",[],0.0,0.0
1787564555.0217752,2.2219112159376535,0.9478961638302539,2.240991029646932,"[ 1.52915657e-05  3.92187441e-07  0.00000000e+00  0.00000000e+00
  0.00000000e+00 -1.26084216e-06  3.92187441e-07  1.29623893e-05
  0.00000000e+00  0.00000000e+00  0.00000000e+00 -4.22117669e-07
  0.00000000e+00  0.00000000e+00  0.00000000e+00  0.00000000e+00
  0.00000000e+00  0.00000000e+00  0.00000000e+00  0.00000000e+00
  0.00000000e+00  0.00000000e+00  0.00000000e+00  0.00000000e+00
  0.00000000e+00  0.00000000e+00  0.00000000e+00  0.00000000e+00
  0.00000000e+00  0.00000000e+00 -1.26084216e-06 -4.22117669e-07
  0.00000000e+00  0.00000000e+00  0.00000000e+00  3.68197413e-06]","[[ 0.00023258  0.01061463]
 [-0.00024594  0.00663372]]",[],0.0,0.0
1787564555.032703,2.2219112159376535,0.9478961638302539,2.240991029646932,"[ 1.52915657e-05  3.92187441e-07  0.00000000e+00  0.00000000e+00
  0.00000000e+00 -1.26084216e-06  3.92187441e-07  1.29623893e-05
  0.00000000e+00  0.00000000e+00  0.00000000e+00 -4.22117669e-07
  0.00000000e+00  0.00000000e+00  0.00000000e+00  0.00000000e+00
  0.00000000e+00  0.00000000e+00  0.00000000e+00  0.00000000e+00
  0.00000000e+00  0.00000000e+00  0.00000000e+00  0.00000000e+00
  0.00000000e+00  0.00000000e+00  0.00000000e+00  0.00000000e+00
  0.00000000e+00  0.00000000e+00 -1.26084216e-06 -4.22117669e-07
  0.00000000e+00  0.00000000e+00  0.00000000e+00  3.68197413e-06]","[[ 0.00023258  0.01061463]
 [-0.00024594  0.00663372]]",[],0.0,0.0
1787564555.0821478,2.2235196929342638,0.9334353044468746,2.278290351793295,"[ 1.20459961e-05  2.19821368e-07  0.00000000e+00  0.00000000e+00
  0.00000000e+00 -9.01731537e-07  2.19821368e-07  1.03547525e-05
  0.00000000e+00  0.00000000e+00  0.00000000e+00 -4.33501163e-07
  0.00000000e+00  0.00000000e+00  0.00000000e+00  0.00000000e+00
  0.00000000e+00  0.00000000e+00  0.00000000e+00  0.00000000e+00
  0.00000000e+00  0.00000000e+00  0.00000000e+00  0.00000000e+00
  0.00000000e+00  0.00000000e+00  0.00000000e+00  0.00000000e+00
  0.00000000e+00  0.00000000e+00 -9.01731537e-07 -4.33501163e-07
  0.00000000e+00  0.00000000e+00  0.00000000e+00  3.62901270e-06]","[[ 0.00018358  0.00817042]
 [-0.00019889  0.0053543 ]]",[],0.0,0.0
1787564555.129524,2.2235196929342638,0.9334353044468746,2.278290351793295,"[ 1.20459961e-05  2.19821368e-07  0.00000000e+00  0.00000000e+00
  0.00000000e+00 -9.01731537e-07  2.19821368e-07  1.03547525e-05
  0.00000000e+00  0.00000000e+00  0.00000000e+00 -4.33501163e-07
  0.00000000e+00  0.00000000e+00  0.00000000e+00  0.00000000e+00
  0.00000000e+00  0.00000000e+00  0.00000000e+00  0.00000000e+00
  0.00000000e+00  0.00000000e+00  0.00000000e+00  0.00000000e+00
  0.00000000e+00  0.00000000e+00  0.00000000e+00  0.00000000e+00
  0.00000000e+00  0.00000000e+00 -9.01731537e-07 -4.33501163e-07
  0.00000000e+00  0.00000000e+00  0.00000000e+00  3.62901270e-06]","[[ 0.00018358  0.00817042]
 [-0.00019889  0.0053543 ]]",[],0.0,0.0
1787564555.1806817,2.2235196929342638,0.9334353044468746,2.278290351793295,"[ 1.20459961e-05  2.19821368e-07  0.00000000e+00  0.00000000e+00
  0.00000000e+00 -9.01731537e-07  2.19821368e-07  1.03547525e-05
  0.00000000e+00  0.00000000e+00  0.00000000e+00 -4.33501163e-07
  0.00000000e+00  0.00000000e+00  0.00000000e+00  0.00000000e+00
  0.00000000e+00  0.00000000e+00  0.00000000e+00  0.00000000e+00
  0.00000000e+00  0.00000000e+00  0.00000000e+00  0.00000000e+00
  0.00000000e+00  0.00000000e+00  0.00000000e+00  0.00000000e+00
  0.00000000e+00  0.00000000e+00 -9.01731537e-07 -4.33501163e-07
  0.00000000e+00  0.00000000e+00  0.00000000e+00  3.62901270e-06]","[[ 0.00018358  0.00817042]
 [-0.00019889  0.0053543 ]]",[],0.0,0.0
1787564555.238206,2.2235196929342638,0.9334353044468746,2.278290351793295,"[ 1.20459961e-05  2.19821368e-07  0.00000000e+00  0.00000000e+00
  0.00000000e+00 -9.01731537e-07  2.19821368e-07  1.03547525e-05
  0.00000000e+00  0.00000000e+00  0.00000000e+00 -4.33501163e-07
  0.00000000e+00  0.00000000e+00  0.00000000e+00  0.00000000e+00
  0.00000000e+00  0.00000000e+00  0.00000000e+00  0.00000000e+00
  0.00000000e+00  0.00000000e+00  0.00000000e+00  0.00000000e+00
  0.00000000e+00  0.00000000e+00  0.00000000e+00  0.00000000e+00
  0.00000000e+00  0.00000000e+00 -9.01731537e-07 -4.33501163e-07
  0.00000000e+00  0.00000000e+00  0.00000000e+00  3.62901270e-06]","[[ 0.00018358  0.00817042]
 [-0.00019889  0.0053543 ]]",[],0.0,0.0
1787564555.2790048,2.2235196929342638,0.9334353044468746,2.278290351793295,"[ 1.20459961e-05  2.19821368e-07  0.00000000e+00  0.00000000e+00
  0.00000000e+00 -9.01731537e-07  2.19821368e-07  1.03547525e-05
  0.00000000e+00  0.00000000e+00  0.00000000e+00 -4.33501163e-07
  0.00000000e+00  0.00000000e+00  0.00000000e+00  0.00000000e+00
  0.00000000e+00  0.00000000e+00  0.00000000e+00  0.00000000e+00
  0.00000000e+00  0.00000000e+00  0.00000000e+00  0.00000000e+00
  0.00000000e+00  0.00000000e+00  0.00000000e+00  0.00000000e+00
  0.00000000e+00  0.00000000e+00 -9.01731537e-07 -4.33501163e-07
  0.00000000e+00  0.00000000e+00  0.00000000e+00  3.62901270e-06]","[[ 0.00018358  0.00817042]
 [-0.00019889  0.0053543 ]]",[],0.0,0.0
1787564555.3296628,2.2235196929342638,0.9334353044468746,2.278290351793295,"[ 1.20459961e-05  2.19821368e-07  0.00000000e+00  0.00000000e+00
  0.00000000e+00 -9.01731537e-07  2.19821368e-07  1.03547525e-05
  0.00000000e+00  0.00000000e+00  0.00000000e+00 -4.33501163e-07
  0.00000000e+00  0.00000000e+00  0.00000000e+00  0.00000000e+00
  0.00000000e+00  0.00000000e+00  0.00000000e+00  0.00000000e+00
  0.00000000e+00  0.00000000e+00  0.00000000e+00  0.00000000e+00
  0.00000000e+00  0.00000000e+00  0.00000000e+00  0.00000000e+00
  0.00000000e+00  0.00000000e+00 -9.01731537e-07 -4.33501163e-07
  0.00000000e+00  0.00000000e+00  0.00000000e+00  3.62901270e-06]","[[ 0.00018358  0.00817042]
 [-0.00019889  0.0053543 ]]",[],0.0,0.0
1787564555.379727,2.2235196929342638,0.9334353044468746,2.278290351793295,"[ 1.20459961e-05  2.19821368e-07  0.00000000e+00  0.00000000e+00
  0.00000000e+00 -9.01731537e-07  2.19821368e-07  1.03547525e-05
  0.00000000e+00  0.00000000e+00  0.00000000e+00 -4.33501163e-07
  0.00000000e+00  0.00000000e+00  0.00000000e+00  0.00000000e+00
  0.00000000e+00  0.00000000e+00  0.00000000e+00  0.00000000e+00
  0.00000000e+00  0.00000000e+00  0.00000000e+00  0.00000000e+00
  0.00000000e+00  0.00000000e+00  0.00000000e+00  0.00000000e+00
  0.00000000e+00  0.00000000e+00 -9.01731537e-07 -4.33501163e-07
  0.00000000e+00  0.00000000e+00  0.00000000e+00  3.62901270e-06]","[[ 0.00018358  0.00817042]
 [-0.00019889  0.0053543 ]]",[],0.0,0.0
1787564555.42864,2.2235196929342638,0.9334353044468746,2.278290351793295,"[ 1.20459961e-05  2.19821368e-07  0.00000000e+00  0.00000000e+00
  0.00000000e+00 -9.01731537e-07  2.19821368e-07  1.03547525e-05
  0.00000000e+00  0.00000000e+00  0.00000000e+00 -4.33501163e-07
  0.00000000e+00  0.00000000e+00  0.00000000e+00  0.00000000e+00
  0.00000000e+00  0.00000000e+00  0.00000000e+00  0.00000000e+00
  0.00000000e+00  0.00000000e+00  0.00000000e+00  0.00000000e+00
  0.00000000e+00  0.00000000e+00  0.00000000e+00  0.00000000e+00
  0.00000000e+00  0.00000000e+00 -9.01731537e-07 -4.33501163e-07
  0.00000000e+00  0.00000000e+00  0.00000000e+00  3.62901270e-06]","[[ 0.00018358  0.00817042]
 [-0.00019889  0.0053543 ]]",[],0.0,0.0
1787564555.494833,2.2235196929342638,0.9334353044468746,2.278290351793295,"[ 1.20459961e-05  2.19821368e-07  0.00000000e+00  0.00000000e+00
  0.00000000e+00 -9.01731537e-07  2.19821368e-07  1.03547525e-05
  0.00000000e+00  0.00000000e+00  0.00000000e+00 -4.33501163e-07
  0.00000000e+00  0.00000000e+00  0.00000000e+00  0.00000000e+00
  0.00000000e+00  0.00000000e+00  0.00000000e+00  0.00000000e+00
  0.00000000e+00  0.00000000e+00  0.00000000e+00  0.00000000e+00
  0.00000000e+00  0.00000000e+00  0.00000000e+00  0.00000000e+00
  0.00000000e+00  0.00000000e+00 -9.01731537e-07 -4.33501163e-07
  0.00000000e+00  0.00000000e+00  0.00000000e+00  3.62901270e-06]","[[ 0.00018358  0.00817042]
 [-0.00019889  0.0053543 ]]",[],0.0,0.0
1787564555.5286486,2.2235196929342638,0.9334353044468746,2.278290351793295,"[ 1.20459961e-05  2.19821368e-07  0.00000000e+00  0.00000000e+00
  0.00000000e+00 -9.01731537e-07  2.19821368e-07  1.03547525e-05
  0.00000000e+00  0.00000000e+00  0.00000000e+00 -4.33501163e-07
  0.00000000e+00  0.00000000e+00  0.00000000e+00  0.00000000e+00
  0.00000000e+00  0.00000000e+00  0.00000000e+00  0.00000000e+00
  0.00000000e+00  0.00000000e+00  0.00000000e+00  0.00000000e+00
  0.00000000e+00  0.00000000e+00  0.00000000e+00  0.00000000e+00
  0.00000000e+00  0.00000000e+00 -9.01731537e-07 -4.33501163e-07
  0.00000000e+00  0.00000000e+00  0.00000000e+00  3.62901270e-06]","[[ 0.00018358  0.00817042]
 [-0.00019889  0.0053543 ]]",[],0.0,0.0
1787564555.586491,2.2235196929342638,0.9334353044468746,2.278290351793295,"[ 1.20459961e-05  2.19821368e-07  0.00000000e+00  0.00000000e+00
  0.00000000e+00 -9.01731537e-07  2.19821368e-07  1.03547525e-05
  0.00000000e+00  0.00000000e+00  0.00000000e+00 -4.33501163e-07
  0.00000000e+00  0.00000000e+00  0.00000000e+00  0.00000000e+00
  0.00000000e+00  0.00000000e+00  0.00000000e+00  0.00000000e+00
  0.00000000e+00  0.00000000e+00  0.00000000e+00  0.00000000e+00
  0.00000000e+00  0.00000000e+00  0.00000000e+00  0.00000000e+00
  0.00000000e+00  0.00000000e+00 -9.01731537e-07 -4.33501163e-07
  0.00000000e+00  0.00000000e+00  0.00000000e+00  3.62901270e-06]","[[ 0.00018358  0.00817042]
 [-0.00019889  0.0053543 ]]",[],0.0,0.0
1787564555.6299174,2.2235196929342638,0.9334353044468746,2.278290351793295,"[ 1.20459961e-05  2.19821368e-07  0.00000000e+00  0.00000000e+00
  0.00000000e+00 -9.01731537e-07  2.19821368e-07  1.03547525e-05
  0.00000000e+00  0.00000000e+00  0.00000000e+00 -4.33501163e-07
  0.00000000e+00  0.00000000e+00  0.00000000e+00  0.00000000e+00
  0.00000000e+00  0.00000000e+00  0.00000000e+00  0.00000000e+00
  0.00000000e+00  0.00000000e+00  0.00000000e+00  0.00000000e+00
  0.00000000e+00  0.00000000e+00  0.00000000e+00  0.00000000e+00
  0.00000000e+00  0.00000000e+00 -9.01731537e-07 -4.33501163e-07
  0.00000000e+00  0.00000000e+00  0.00000000e+00  3.62901270e-06]","[[ 0.00018358  0.00817042]
 [-0.00019889  0.0053543 ]]",[],0.0,0.0
1787564555.6853013,2.2235196929342638,0.9334353044468746,2.278290351793295,"[ 1.20459961e-05  2.19821368e-07  0.00000000e+00  0.00000000e+00
  0.00000000e+00 -9.01731537e-07  2.19821368e-07  1.03547525e-05
  0.00000000e+00  0.00000000e+00  0.00000000e+00 -4.33501163e-07
  0.00000000e+00  0.00000000e+00  0.00000000e+00  0.00000000e+00
  0.00000000e+00  0.00000000e+00  0.00000000e+00  0.00000000e+00
  0.00000000e+00  0.00000000e+00  0.00000000e+00  0.00000000e+00
  0.00000000e+00  0.00000000e+00  0.00000000e+00  0.00000000e+00
  0.00000000e+00  0.00000000e+00 -9.01731537e-07 -4.33501163e-07
  0.00000000e+00  0.00000000e+00  0.00000000e+00  3.62901270e-06]","[[ 0.00018358  0.00817042]
 [-0.00019889  0.0053543 ]]",[],0.0,0.0
1787564555.7285995,2.2235196929342638,0.9334353044468746,2.278290351793295,"[ 1.20459961e-05  2.19821368e-07  0.00000000e+00  0.00000000e+00
  0.00000000e+00 -9.01731537e-07  2.19821368e-07  1.03547525e-05
  0.00000000e+00  0.00000000e+00  0.00000000e+00 -4.33501163e-07
  0.00000000e+00  0.00000000e+00  0.00000000e+00  0.00000000e+00
  0.00000000e+00  0.00000000e+00  0.00000000e+00  0.00000000e+00
  0.00000000e+00  0.00000000e+00  0.00000000e+00  0.00000000e+00
  0.00000000e+00  0.00000000e+00  0.00000000e+00  0.00000000e+00
  0.00000000e+00  0.00000000e+00 -9.01731537e-07 -4.33501163e-07
  0.00000000e+00  0.00000000e+00  0.00000000e+00  3.62901270e-06]","[[ 0.00018358  0.00817042]
 [-0.00019889  0.0053543 ]]",[],0.0,0.0
1787564555.780878,2.2235196929342638,0.9334353044468746,2.278290351793295,"[ 1.20459961e-05  2.19821368e-07  0.00000000e+00  0.00000000e+00
  0.00000000e+00 -9.01731537e-07  2.19821368e-07  1.03547525e-05
  0.00000000e+00  0.00000000e+00  0.00000000e+00 -4.33501163e-07
  0.00000000e+00  0.00000000e+00  0.00000000e+00  0.00000000e+00
  0.00000000e+00  0.00000000e+00  0.00000000e+00  0.00000000e+00
  0.00000000e+00  0.00000000e+00  0.00000000e+00  0.00000000e+00
  0.00000000e+00  0.00000000e+00  0.00000000e+00  0.00000000e+00
  0.00000000e+00  0.00000000e+00 -9.01731537e-07 -4.33501163e-07
  0.00000000e+00  0.00000000e+00  0.00000000e+00  3.62901270e-06]","[[ 0.00018358  0.00817042]
 [-0.00019889  0.0053543 ]]",[],0.0,0.0
1787564555.8309076,2.2235196929342638,0.9334353044468746,2.278290351793295,"[ 1.20459961e-05  2.19821368e-07  0.00000000e+00  0.00000000e+00
  0.00000000e+00 -9.01731537e-07  2.19821368e-07  1.03547525e-05
  0.00000000e+00  0.00000000e+00  0.00000000e+00 -4.33501163e-07
  0.00000000e+00  0.00000000e+00  0.00000000e+00  0.00000000e+00
  0.00000000e+00  0.00000000e+00  0.00000000e+00  0.00000000e+00
  0.00000000e+00  0.00000000e+00  0.00000000e+00  0.00000000e+00
  0.00000000e+00  0.00000000e+00  0.00000000e+00  0.00000000e+00
  0.00000000e+00  0.00000000e+00 -9.01731537e-07 -4.33501163e-07
  0.00000000e+00  0.00000000e+00  0.00000000e+00  3.62901270e-06]","[[ 0.00018358  0.00817042]
 [-0.00019889  0.0053543 ]]",[],0.0,0.0
1787564555.884274,2.2235196929342638,0.9334353044468746,2.278290351793295,"[ 1.20459961e-05  2.19821368e-07  0.00000000e+00  0.00000000e+00
  0.00000000e+00 -9.01731537e-07  2.19821368e-07  1.03547525e-05
  0.00000000e+00  0.00000000e+00  0.00000000e+00 -4.33501163e-07
  0.00000000e+00  0.00000000e+00  0.00000000e+00  0.00000000e+00
  0.00000000e+00  0.00000000e+00  0.00000000e+00  0.00000000e+00
  0.00000000e+00  0.00000000e+00  0.00000000e+00  0.00000000e+00
  0.00000000e+00  0.00000000e+00  0.00000000e+00  0.00000000e+00
  0.00000000e+00  0.00000000e+00 -9.01731537e-07 -4.33501163e-07
  0.00000000e+00  0.00000000e+00  0.00000000e+00  3.62901270e-06]","[[ 0.00018358  0.00817042]
 [-0.00019889  0.0053543 ]]",[],0.0,0.0
1787564555.9514534,2.2235196929342638,0.9334353044468746,2.278290351793295,"[ 1.20459961e-05  2.19821368e-07  0.00000000e+00  0.00000000e+00
  0.00000000e+00 -9.01731537e-07  2.19821368e-07  1.03547525e-05
  0.00000000e+00  0.00000000e+00  0.00000000e+00 -4.33501163e-07
  0.00000000e+00  0.00000000e+00  0.00000000e+00  0.00000000e+00
  0.00000000e+00  0.00000000e+00  0.00000000e+00  0.00000000e+00
  0.00000000e+00  0.00000000e+00  0.00000000e+00  0.00000000e+00
  0.00000000e+00  0.00000000e+00  0.00000000e+00  0.00000000e+00
  0.00000000e+00  0.00000000e+00 -9.01731537e-07 -4.33501163e-07
  0.00000000e+00  0.00000000e+00  0.00000000e+00  3.62901270e-06]","[[ 0.00018358  0.00817042]
 [-0.00019889  0.0053543 ]]",[],0.0,0.0
1787564555.9878836,2.2235196929342638,0.9334353044468746,2.278290351793295,"[ 1.20459961e-05  2.19821368e-07  0.00000000e+00  0.00000000e+00
  0.00000000e+00 -9.01731537e-07  2.19821368e-07  1.03547525e-05
  0.00000000e+00  0.00000000e+00  0.00000000e+00 -4.33501163e-07
  0.00000000e+00  0.00000000e+00  0.00000000e+00  0.00000000e+00
  0.00000000e+00  0.00000000e+00  0.00000000e+00  0.00000000e+00
  0.00000000e+00  0.00000000e+00  0.00000000e+00  0.00000000e+00
  0.00000000e+00  0.00000000e+00  0.00000000e+00  0.00000000e+00
  0.00000000e+00  0.00000000e+00 -9.01731537e-07 -4.33501163e-07
  0.00000000e+00  0.00000000e+00  0.00000000e+00  3.62901270e-06]","[[ 0.00018358  0.00817042]
 [-0.00019889  0.0053543 ]]",[],0.0,0.0
1787564556.0326052,2.2220388586508624,0.9253684655187503,2.3025377809119334,"[ 9.90695829e-06  5.03822974e-08  0.00000000e+00  0.00000000e+00
  0.00000000e+00 -7.06809134e-07  5.03822974e-08  8.71741303e-06
  0.00000000e+00  0.00000000e+00  0.00000000e+00 -3.63155017e-07
  0.00000000e+00  0.00000000e+00  0.00000000e+00  0.00000000e+00
  0.00000000e+00  0.00000000e+00  0.00000000e+00  0.00000000e+00
  0.00000000e+00  0.00000000e+00  0.00000000e+00  0.00000000e+00
  0.00000000e+00  0.00000000e+00  0.00000000e+00  0.00000000e+00
  0.00000000e+00  0.00000000e+00 -7.06809134e-07 -3.63155017e-07
  0.00000000e+00  0.00000000e+00  0.00000000e+00  3.71381067e-06]","[[ 0.00015289  0.00659089]
 [-0.00016998  0.0043958 ]]",[],0.0,0.0
1787564556.0807085,2.2220388586508624,0.9253684655187503,2.3025377809119334,"[ 9.90695829e-06  5.03822974e-08  0.00000000e+00  0.00000000e+00
  0.00000000e+00 -7.06809134e-07  5.03822974e-08  8.71741303e-06
  0.00000000e+00  0.00000000e+00  0.00000000e+00 -3.63155017e-07
  0.00000000e+00  0.00000000e+00  0.00000000e+00  0.00000000e+00
  0.00000000e+00  0.00000000e+00  0.00000000e+00  0.00000000e+00
  0.00000000e+00  0.00000000e+00  0.00000000e+00  0.00000000e+00
  0.00000000e+00  0.00000000e+00  0.00000000e+00  0.00000000e+00
  0.00000000e+00  0.00000000e+00 -7.06809134e-07 -3.63155017e-07
  0.00000000e+00  0.00000000e+00  0.00000000e+00  3.71381067e-06]","[[ 0.00015289  0.00659089]
 [-0.00016998  0.0043958 ]]",[],0.0,0.0
1787564556.1387618,2.2220388586508624,0.9253684655187503,2.3025377809119334,"[ 9.90695829e-06  5.03822974e-08  0.00000000e+00  0.00000000e+00
  0.00000000e+00 -7.06809134e-07  5.03822974e-08  8.71741303e-06
  0.00000000e+00  0.00000000e+00  0.00000000e+00 -3.63155017e-07
  0.00000000e+00  0.00000000e+00  0.00000000e+00  0.00000000e+00
  0.00000000e+00  0.00000000e+00  0.00000000e+00  0.00000000e+00
  0.00000000e+00  0.00000000e+00  0.00000000e+00  0.00000000e+00
  0.00000000e+00  0.00000000e+00  0.00000000e+00  0.00000000e+00
  0.00000000e+00  0.00000000e+00 -7.06809134e-07 -3.63155017e-07
  0.00000000e+00  0.00000000e+00  0.00000000e+00  3.71381067e-06]","[[ 0.00015289  0.00659089]
 [-0.00016998  0.0043958 ]]",[],0.0,0.0
1787564556.1859798,2.2220388586508624,0.9253684655187503,2.3025377809119334,"[ 9.90695829e-06  5.03822974e-08  0.00000000e+00  0.00000000e+00
  0.00000000e+00 -7.06809134e-07  5.03822974e-08  8.71741303e-06
  0.00000000e+00  0.00000000e+00  0.00000000e+00 -3.63155017e-07
  0.00000000e+00  0.00000000e+00  0.00000000e+00  0.00000000e+00
  0.00000000e+00  0.00000000e+00  0.00000000e+00  0.00000000e+00
  0.00000000e+00  0.00000000e+00  0.00000000e+00  0.00000000e+00
  0.00000000e+00  0.00000000e+00  0.00000000e+00  0.00000000e+00
  0.00000000e+00  0.00000000e+00 -7.06809134e-07 -3.63155017e-07
  0.00000000e+00  0.00000000e+00  0.00000000e+00  3.71381067e-06]","[[ 0.00015289  0.00659089]
 [-0.00016998  0.0043958 ]]",[],0.0,0.0
1787564556.230405,2.2220388586508624,0.9253684655187503,2.3025377809119334,"[ 9.90695829e-06  5.03822974e-08  0.00000000e+00  0.00000000e+00
  0.00000000e+00 -7.06809134e-07  5.03822974e-08  8.71741303e-06
  0.00000000e+00  0.00000000e+00  0.00000000e+00 -3.63155017e-07
  0.00000000e+00  0.00000000e+00  0.00000000e+00  0.00000000e+00
  0.00000000e+00  0.00000000e+00  0.00000000e+00  0.00000000e+00
  0.00000000e+00  0.00000000e+00  0.00000000e+00  0.00000000e+00
  0.00000000e+00  0.00000000e+00  0.00000000e+00  0.00000000e+00
  0.00000000e+00  0.00000000e+00 -7.06809134e-07 -3.63155017e-07
  0.00000000e+00  0.00000000e+00  0.00000000e+00  3.71381067e-06]","[[ 0.00015289  0.00659089]
 [-0.00016998  0.0043958 ]]",[],0.0,0.0
1787564556.3058686,2.2220388586508624,0.9253684655187503,2.3025377809119334,"[ 9.90695829e-06  5.03822974e-08  0.00000000e+00  0.00000000e+00
  0.00000000e+00 -7.06809134e-07  5.03822974e-08  8.71741303e-06
  0.00000000e+00  0.00000000e+00  0.00000000e+00 -3.63155017e-07
  0.00000000e+00  0.00000000e+00  0.00000000e+00  0.00000000e+00
  0.00000000e+00  0.00000000e+00  0.00000000e+00  0.00000000e+00
  0.00000000e+00  0.00000000e+00  0.00000000e+00  0.00000000e+00
  0.00000000e+00  0.00000000e+00  0.00000000e+00  0.00000000e+00
  0.00000000e+00  0.00000000e+00 -7.06809134e-07 -3.63155017e-07
  0.00000000e+00  0.00000000e+00  0.00000000e+00  3.71381067e-06]","[[ 0.00015289  0.00659089]
 [-0.00016998  0.0043958 ]]",[],0.0,0.0
1787564556.389397,2.2220388586508624,0.9253684655187503,2.3025377809119334,"[ 9.90695829e-06  5.03822974e-08  0.00000000e+00  0.00000000e+00
  0.00000000e+00 -7.06809134e-07  5.03822974e-08  8.71741303e-06
  0.00000000e+00  0.00000000e+00  0.00000000e+00 -3.63155017e-07
  0.00000000e+00  0.00000000e+00  0.00000000e+00  0.00000000e+00
  0.00000000e+00  0.00000000e+00  0.00000000e+00  0.00000000e+00
  0.00000000e+00  0.00000000e+00  0.00000000e+00  0.00000000e+00
  0.00000000e+00  0.00000000e+00  0.00000000e+00  0.00000000e+00
  0.00000000e+00  0.00000000e+00 -7.06809134e-07 -3.63155017e-07
  0.00000000e+00  0.00000000e+00  0.00000000e+00  3.71381067e-06]","[[ 0.00015289  0.00659089]
 [-0.00016998  0.0043958 ]]",[],0.0,0.0
1787564556.4764621,2.2220388586508624,0.9253684655187503,2.3025377809119334,"[ 9.90695829e-06  5.03822974e-08  0.00000000e+00  0.00000000e+00
  0.00000000e+00 -7.06809134e-07  5.03822974e-08  8.71741303e-06
  0.00000000e+00  0.00000000e+00  0.00000000e+00 -3.63155017e-07
  0.00000000e+00  0.00000000e+00  0.00000000e+00  0.00000000e+00
  0.00000000e+00  0.00000000e+00  0.00000000e+00  0.00000000e+00
  0.00000000e+00  0.00000000e+00  0.00000000e+00  0.00000000e+00
  0.00000000e+00  0.00000000e+00  0.00000000e+00  0.00000000e+00
  0.00000000e+00  0.00000000e+00 -7.06809134e-07 -3.63155017e-07
  0.00000000e+00  0.00000000e+00  0.00000000e+00  3.71381067e-06]","[[ 0.00015289  0.00659089]
 [-0.00016998  0.0043958 ]]",[],0.0,0.0
1787564556.4800391,2.2220388586508624,0.9253684655187503,2.3025377809119334,"[ 9.90695829e-06  5.03822974e-08  0.00000000e+00  0.00000000e+00
  0.00000000e+00 -7.06809134e-07  5.03822974e-08  8.71741303e-06
  0.00000000e+00  0.00000000e+00  0.00000000e+00 -3.63155017e-07
  0.00000000e+00  0.00000000e+00  0.00000000e+00  0.00000000e+00
  0.00000000e+00  0.00000000e+00  0.00000000e+00  0.00000000e+00
  0.00000000e+00  0.00000000e+00  0.00000000e+00  0.00000000e+00
  0.00000000e+00  0.00000000e+00  0.00000000e+00  0.00000000e+00
  0.00000000e+00  0.00000000e+00 -7.06809134e-07 -3.63155017e-07
  0.00000000e+00  0.00000000e+00  0.00000000e+00  3.71381067e-06]","[[ 0.00015289  0.00659089]
 [-0.00016998  0.0043958 ]]",[],0.0,0.0
