time,x,y,yaw,cov_prop,K_gain,innovation,v_ekf,omega_ekf
1787562960.1201189,1.7276800962424104,1.4955517118794084,2.1668813917695786,"[ 7.18747735e-05  2.37959230e-08  0.00000000e+00  0.00000000e+00
  0.00000000e+00 -7.91557428e-06  2.37959230e-08  5.37060835e-05
  0.00000000e+00  0.00000000e+00  0.00000000e+00 -1.53479642e-06
  0.00000000e+00  0.00000000e+00  0.00000000e+00  0.00000000e+00
  0.00000000e+00  0.00000000e+00  0.00000000e+00  0.00000000e+00
  0.00000000e+00  0.00000000e+00  0.00000000e+00  0.00000000e+00
  0.00000000e+00  0.00000000e+00  0.00000000e+00  0.00000000e+00
  0.00000000e+00  0.00000000e+00 -7.91557428e-06 -1.53479642e-06
  0.00000000e+00  0.00000000e+00  0.00000000e+00  5.20156236e-06]","[[-0.00117001  0.03528325]
 [-0.0010197  -0.0116744 ]]",[],0.0,0.0
1787562960.1734624,1.7276800962424104,1.4955517118794084,2.1668813917695786,"[ 7.18747735e-05  2.37959230e-08  0.00000000e+00  0.00000000e+00
  0.00000000e+00 -7.91557428e-06  2.37959230e-08  5.37060835e-05
  0.00000000e+00  0.00000000e+00  0.00000000e+00 -1.53479642e-06
  0.00000000e+00  0.00000000e+00  0.00000000e+00  0.00000000e+00
  0.00000000e+00  0.00000000e+00  0.00000000e+00  0.00000000e+00
  0.00000000e+00  0.00000000e+00  0.00000000e+00  0.00000000e+00
  0.00000000e+00  0.00000000e+00  0.00000000e+00  0.00000000e+00
  0.00000000e+00  0.00000000e+00 -7.91557428e-06 -1.53479642e-06
  0.00000000e+00  0.00000000e+00  0.00000000e+00  5.20156236e-06]","[[-0.00117001  0.03528325]
 [-0.0010197  -0.0116744 ]]",[],0.0,0.0
1787562960.218372,1.7276800962424104,1.4955517118794084,2.1668813917695786,"[ 7.18747735e-05  2.37959230e-08  0.00000000e+00  0.00000000e+00
  0.00000000e+00 -7.91557428e-06  2.37959230e-08  5.37060835e-05
  0.00000000e+00  0.00000000e+00  0.00000000e+00 -1.53479642e-06
  0.00000000e+00  0.00000000e+00  0.00000000e+00  0.00000000e+00
  0.00000000e+00  0.00000000e+00  0.00000000e+00  0.00000000e+00
  0.00000000e+00  0.00000000e+00  0.00000000e+00  0.00000000e+00
  0.00000000e+00  0.00000000e+00  0.00000000e+00  0.00000000e+00
  0.00000000e+00  0.00000000e+00 -7.91557428e-06 -1.53479642e-06
  0.00000000e+00  0.00000000e+00  0.00000000e+00  5.20156236e-06]","[[-0.00117001  0.03528325]
 [-0.0010197  -0.0116744 ]]",[],0.0,0.0
1787562960.2681484,1.7276800962424104,1.4955517118794084,2.1668813917695786,"[ 7.18747735e-05  2.37959230e-08  0.00000000e+00  0.00000000e+00
  0.00000000e+00 -7.91557428e-06  2.37959230e-08  5.37060835e-05
  0.00000000e+00  0.00000000e+00  0.00000000e+00 -1.53479642e-06
  0.00000000e+00  0.00000000e+00  0.00000000e+00  0.00000000e+00
  0.00000000e+00  0.00000000e+00  0.00000000e+00  0.00000000e+00
  0.00000000e+00  0.00000000e+00  0.00000000e+00  0.00000000e+00
  0.00000000e+00  0.00000000e+00  0.00000000e+00  0.00000000e+00
  0.00000000e+00  0.00000000e+00 -7.91557428e-06 -1.53479642e-06
  0.00000000e+00  0.00000000e+00  0.00000000e+00  5.20156236e-06]","[[-0.00117001  0.03528325]
 [-0.0010197  -0.0116744 ]]",[],0.0,0.0
1787562960.3203125,1.7276800962424104,1.4955517118794084,2.1668813917695786,"[ 7.18747735e-05  2.37959230e-08  0.00000000e+00  0.00000000e+00
  0.00000000e+00 -7.91557428e-06  2.37959230e-08  5.37060835e-05
  0.00000000e+00  0.00000000e+00  0.00000000e+00 -1.53479642e-06
  0.00000000e+00  0.00000000e+00  0.00000000e+00  0.00000000e+00
  0.00000000e+00  0.00000000e+00  0.00000000e+00  0.00000000e+00
  0.00000000e+00  0.00000000e+00  0.00000000e+00  0.00000000e+00
  0.00000000e+00  0.00000000e+00  0.00000000e+00  0.00000000e+00
  0.00000000e+00  0.00000000e+00 -7.91557428e-06 -1.53479642e-06
  0.00000000e+00  0.00000000e+00  0.00000000e+00  5.20156236e-06]","[[-0.00117001  0.03528325]
 [-0.0010197  -0.0116744 ]]",[],0.0,0.0
1787562960.3907762,1.7276800962424104,1.4955517118794084,2.1668813917695786,"[ 7.18747735e-05  2.37959230e-08  0.00000000e+00  0.00000000e+00
  0.00000000e+00 -7.91557428e-06  2.37959230e-08  5.37060835e-05
  0.00000000e+00  0.00000000e+00  0.00000000e+00 -1.53479642e-06
  0.00000000e+00  0.00000000e+00  0.00000000e+00  0.00000000e+00
  0.00000000e+00  0.00000000e+00  0.00000000e+00  0.00000000e+00
  0.00000000e+00  0.00000000e+00  0.00000000e+00  0.00000000e+00
  0.00000000e+00  0.00000000e+00  0.00000000e+00  0.00000000e+00
  0.00000000e+00  0.00000000e+00 -7.91557428e-06 -1.53479642e-06
  0.00000000e+00  0.00000000e+00  0.00000000e+00  5.20156236e-06]","[[-0.00117001  0.03528325]
 [-0.0010197  -0.0116744 ]]",[],0.0,0.0
1787562960.4171941,1.7276800962424104,1.4955517118794084,2.1668813917695786,"[ 7.18747735e-05  2.37959230e-08  0.00000000e+00  0.00000000e+00
  0.00000000e+00 -7.91557428e-06  2.37959230e-08  5.37060835e-05
  0.00000000e+00  0.00000000e+00  0.00000000e+00 -1.53479642e-06
  0.00000000e+00  0.00000000e+00  0.00000000e+00  0.00000000e+00
  0.00000000e+00  0.00000000e+00  0.00000000e+00  0.00000000e+00
  0.00000000e+00  0.00000000e+00  0.00000000e+00  0.00000000e+00
  0.00000000e+00  0.00000000e+00  0.00000000e+00  0.00000000e+00
  0.00000000e+00  0.00000000e+00 -7.91557428e-06 -1.53479642e-06
  0.00000000e+00  0.00000000e+00  0.00000000e+00  5.20156236e-06]","[[-0.00117001  0.03528325]
 [-0.0010197  -0.0116744 ]]",[],0.0,0.0
1787562960.4677687,1.7276800962424104,1.4955517118794084,2.1668813917695786,"[ 7.18747735e-05  2.37959230e-08  0.00000000e+00  0.00000000e+00
  0.00000000e+00 -7.91557428e-06  2.37959230e-08  5.37060835e-05
  0.00000000e+00  0.00000000e+00  0.00000000e+00 -1.53479642e-06
  0.00000000e+00  0.00000000e+00  0.00000000e+00  0.00000000e+00
  0.00000000e+00  0.00000000e+00  0.00000000e+00  0.00000000e+00
  0.00000000e+00  0.00000000e+00  0.00000000e+00  0.00000000e+00
  0.00000000e+00  0.00000000e+00  0.00000000e+00  0.00000000e+00
  0.00000000e+00  0.00000000e+00 -7.91557428e-06 -1.53479642e-06
  0.00000000e+00  0.00000000e+00  0.00000000e+00  5.20156236e-06]","[[-0.00117001  0.03528325]
 [-0.0010197  -0.0116744 ]]",[],0.0,0.0
1787562960.5201461,1.7276800962424104,1.4955517118794084,2.1668813917695786,"[ 7.18747735e-05  2.37959230e-08  0.00000000e+00  0.00000000e+00
  0.00000000e+00 -7.91557428e-06  2.37959230e-08  5.37060835e-05
  0.00000000e+00  0.00000000e+00  0.00000000e+00 -1.53479642e-06
  0.00000000e+00  0.00000000e+00  0.00000000e+00  0.00000000e+00
  0.00000000e+00  0.00000000e+00  0.00000000e+00  0.00000000e+00
  0.00000000e+00  0.00000000e+00  0.00000000e+00  0.00000000e+00
  0.00000000e+00  0.00000000e+00  0.00000000e+00  0.00000000e+00
  0.00000000e+00  0.00000000e+00 -7.91557428e-06 -1.53479642e-06
  0.00000000e+00  0.00000000e+00  0.00000000e+00  5.20156236e-06]","[[-0.00117001  0.03528325]
 [-0.0010197  -0.0116744 ]]",[],0.0,0.0
1787562960.5669565,1.7276800962424104,1.4955517118794084,2.1668813917695786,"[ 7.18747735e-05  2.37959230e-08  0.00000000e+00  0.00000000e+00
  0.00000000e+00 -7.91557428e-06  2.37959230e-08  5.37060835e-05
  0.00000000e+00  0.00000000e+00  0.00000000e+00 -1.53479642e-06
  0.00000000e+00  0.00000000e+00  0.00000000e+00  0.00000000e+00
  0.00000000e+00  0.00000000e+00  0.00000000e+00  0.00000000e+00
  0.00000000e+00  0.00000000e+00  0.00000000e+00  0.00000000e+00
  0.00000000e+00  0.00000000e+00  0.00000000e+00  0.00000000e+00
  0.00000000e+00  0.00000000e+00 -7.91557428e-06 -1.53479642e-06
  0.00000000e+00  0.00000000e+00  0.00000000e+00  5.20156236e-06]","[[-0.00117001  0.03528325]
 [-0.0010197  -0.0116744 ]]",[],0.0,0.0
1787562960.6359174,1.7276800962424104,1.4955517118794084,2.1668813917695786,"[ 7.18747735e-05  2.37959230e-08  0.00000000e+00  0.00000000e+00
  0.00000000e+00 -7.91557428e-06  2.37959230e-08  5.37060835e-05
  0.00000000e+00  0.00000000e+00  0.00000000e+00 -1.53479642e-06
  0.00000000e+00  0.00000000e+00  0.00000000e+00  0.00000000e+00
  0.00000000e+00  0.00000000e+00  0.00000000e+00  0.00000000e+00
  0.00000000e+00  0.00000000e+00  0.00000000e+00  0.00000000e+00
  0.00000000e+00  0.00000000e+00  0.00000000e+00  0.00000000e+00
  0.00000000e+00  0.00000000e+00 -7.91557428e-06 -1.53479642e-06
  0.00000000e+00  0.00000000e+00  0.00000000e+00  5.20156236e-06]","[[-0.00117001  0.03528325]
 [-0.0010197  -0.0116744 ]]",[],0.0,0.0
1787562960.6670814,1.7276800962424104,1.4955517118794084,2.1668813917695786,"[ 7.18747735e-05  2.37959230e-08  0.00000000e+00  0.00000000e+00
  0.00000000e+00 -7.91557428e-06  2.37959230e-08  5.37060835e-05
  0.00000000e+00  0.00000000e+00  0.00000000e+00 -1.53479642e-06
  0.00000000e+00  0.00000000e+00  0.00000000e+00  0.00000000e+00
  0.00000000e+00  0.00000000e+00  0.00000000e+00  0.00000000e+00
  0.00000000e+00  0.00000000e+00  0.00000000e+00  0.00000000e+00
  0.00000000e+00  0.00000000e+00  0.00000000e+00  0.00000000e+00
  0.00000000e+00  0.00000000e+00 -7.91557428e-06 -1.53479642e-06
  0.00000000e+00  0.00000000e+00  0.00000000e+00  5.20156236e-06]","[[-0.00117001  0.03528325]
 [-0.0010197  -0.0116744 ]]",[],0.0,0.0
1787562960.717121,1.7276800962424104,1.4955517118794084,2.1668813917695786,"[ 7.18747735e-05  2.37959230e-08  0.00000000e+00  0.00000000e+00
  0.00000000e+00 -7.91557428e-06  2.37959230e-08  5.37060835e-05
  0.00000000e+00  0.00000000e+00  0.00000000e+00 -1.53479642e-06
  0.00000000e+00  0.00000000e+00  0.00000000e+00  0.00000000e+00
  0.00000000e+00  0.00000000e+00  0.00000000e+00  0.00000000e+00
  0.00000000e+00  0.00000000e+00  0.00000000e+00  0.00000000e+00
  0.00000000e+00  0.00000000e+00  0.00000000e+00  0.00000000e+00
  0.00000000e+00  0.00000000e+00 -7.91557428e-06 -1.53479642e-06
  0.00000000e+00  0.00000000e+00  0.00000000e+00  5.20156236e-06]","[[-0.00117001  0.03528325]
 [-0.0010197  -0.0116744 ]]",[],0.0,0.0
1787562960.7721527,1.7509452656225983,1.4457199948835133,2.1951188114372933,"[ 3.66726585e-05  1.22116652e-06  0.00000000e+00  0.00000000e+00
  0.00000000e+00 -4.43949174e-06  1.22116652e-06  2.69648158e-05
  0.00000000e+00  0.00000000e+00  0.00000000e+00 -1.47629210e-06
  0.00000000e+00  0.00000000e+00  0.00000000e+00  0.00000000e+00
  0.00000000e+00  0.00000000e+00  0.00000000e+00  0.00000000e+00
  0.00000000e+00  0.00000000e+00  0.00000000e+00  0.00000000e+00
  0.00000000e+00  0.00000000e+00  0.00000000e+00  0.00000000e+00
  0.00000000e+00  0.00000000e+00 -4.43949174e-06 -1.47629210e-06
  0.00000000e+00  0.00000000e+00  0.00000000e+00  4.24697008e-06]","[[-0.00065702  0.01989559]
 [-0.00050739 -0.00628184]]",[],0.0,0.0
1787562960.8475916,1.7509452656225983,1.4457199948835133,2.1951188114372933,"[ 3.66726585e-05  1.22116652e-06  0.00000000e+00  0.00000000e+00
  0.00000000e+00 -4.43949174e-06  1.22116652e-06  2.69648158e-05
  0.00000000e+00  0.00000000e+00  0.00000000e+00 -1.47629210e-06
  0.00000000e+00  0.00000000e+00  0.00000000e+00  0.00000000e+00
  0.00000000e+00  0.00000000e+00  0.00000000e+00  0.00000000e+00
  0.00000000e+00  0.00000000e+00  0.00000000e+00  0.00000000e+00
  0.00000000e+00  0.00000000e+00  0.00000000e+00  0.00000000e+00
  0.00000000e+00  0.00000000e+00 -4.43949174e-06 -1.47629210e-06
  0.00000000e+00  0.00000000e+00  0.00000000e+00  4.24697008e-06]","[[-0.00065702  0.01989559]
 [-0.00050739 -0.00628184]]",[],0.0,0.0
1787562960.8674157,1.7509452656225983,1.4457199948835133,2.1951188114372933,"[ 3.66726585e-05  1.22116652e-06  0.00000000e+00  0.00000000e+00
  0.00000000e+00 -4.43949174e-06  1.22116652e-06  2.69648158e-05
  0.00000000e+00  0.00000000e+00  0.00000000e+00 -1.47629210e-06
  0.00000000e+00  0.00000000e+00  0.00000000e+00  0.00000000e+00
  0.00000000e+00  0.00000000e+00  0.00000000e+00  0.00000000e+00
  0.00000000e+00  0.00000000e+00  0.00000000e+00  0.00000000e+00
  0.00000000e+00  0.00000000e+00  0.00000000e+00  0.00000000e+00
  0.00000000e+00  0.00000000e+00 -4.43949174e-06 -1.47629210e-06
  0.00000000e+00  0.00000000e+00  0.00000000e+00  4.24697008e-06]","[[-0.00065702  0.01989559]
 [-0.00050739 -0.00628184]]",[],0.0,0.0
1787562960.9208913,1.7509452656225983,1.4457199948835133,2.1951188114372933,"[ 3.66726585e-05  1.22116652e-06  0.00000000e+00  0.00000000e+00
  0.00000000e+00 -4.43949174e-06  1.22116652e-06  2.69648158e-05
  0.00000000e+00  0.00000000e+00  0.00000000e+00 -1.47629210e-06
  0.00000000e+00  0.00000000e+00  0.00000000e+00  0.00000000e+00
  0.00000000e+00  0.00000000e+00  0.00000000e+00  0.00000000e+00
  0.00000000e+00  0.00000000e+00  0.00000000e+00  0.00000000e+00
  0.00000000e+00  0.00000000e+00  0.00000000e+00  0.00000000e+00
  0.00000000e+00  0.00000000e+00 -4.43949174e-06 -1.47629210e-06
  0.00000000e+00  0.00000000e+00  0.00000000e+00  4.24697008e-06]","[[-0.00065702  0.01989559]
 [-0.00050739 -0.00628184]]",[],0.0,0.0
1787562960.9718626,1.7509452656225983,1.4457199948835133,2.1951188114372933,"[ 3.66726585e-05  1.22116652e-06  0.00000000e+00  0.00000000e+00
  0.00000000e+00 -4.43949174e-06  1.22116652e-06  2.69648158e-05
  0.00000000e+00  0.00000000e+00  0.00000000e+00 -1.47629210e-06
  0.00000000e+00  0.00000000e+00  0.00000000e+00  0.00000000e+00
  0.00000000e+00  0.00000000e+00  0.00000000e+00  0.00000000e+00
  0.00000000e+00  0.00000000e+00  0.00000000e+00  0.00000000e+00
  0.00000000e+00  0.00000000e+00  0.00000000e+00  0.00000000e+00
  0.00000000e+00  0.00000000e+00 -4.43949174e-06 -1.47629210e-06
  0.00000000e+00  0.00000000e+00  0.00000000e+00  4.24697008e-06]","[[-0.00065702  0.01989559]
 [-0.00050739 -0.00628184]]",[],0.0,0.0
1787562961.0189173,1.7509452656225983,1.4457199948835133,2.1951188114372933,"[ 3.66726585e-05  1.22116652e-06  0.00000000e+00  0.00000000e+00
  0.00000000e+00 -4.43949174e-06  1.22116652e-06  2.69648158e-05
  0.00000000e+00  0.00000000e+00  0.00000000e+00 -1.47629210e-06
  0.00000000e+00  0.00000000e+00  0.00000000e+00  0.00000000e+00
  0.00000000e+00  0.00000000e+00  0.00000000e+00  0.00000000e+00
  0.00000000e+00  0.00000000e+00  0.00000000e+00  0.00000000e+00
  0.00000000e+00  0.00000000e+00  0.00000000e+00  0.00000000e+00
  0.00000000e+00  0.00000000e+00 -4.43949174e-06 -1.47629210e-06
  0.00000000e+00  0.00000000e+00  0.00000000e+00  4.24697008e-06]","[[-0.00065702  0.01989559]
 [-0.00050739 -0.00628184]]",[],0.0,0.0
1787562961.066907,1.7509452656225983,1.4457199948835133,2.1951188114372933,"[ 3.66726585e-05  1.22116652e-06  0.00000000e+00  0.00000000e+00
  0.00000000e+00 -4.43949174e-06  1.22116652e-06  2.69648158e-05
  0.00000000e+00  0.00000000e+00  0.00000000e+00 -1.47629210e-06
  0.00000000e+00  0.00000000e+00  0.00000000e+00  0.00000000e+00
  0.00000000e+00  0.00000000e+00  0.00000000e+00  0.00000000e+00
  0.00000000e+00  0.00000000e+00  0.00000000e+00  0.00000000e+00
  0.00000000e+00  0.00000000e+00  0.00000000e+00  0.00000000e+00
  0.00000000e+00  0.00000000e+00 -4.43949174e-06 -1.47629210e-06
  0.00000000e+00  0.00000000e+00  0.00000000e+00  4.24697008e-06]","[[-0.00065702  0.01989559]
 [-0.00050739 -0.00628184]]",[],0.0,0.0
1787562961.130066,1.7509452656225983,1.4457199948835133,2.1951188114372933,"[ 3.66726585e-05  1.22116652e-06  0.00000000e+00  0.00000000e+00
  0.00000000e+00 -4.43949174e-06  1.22116652e-06  2.69648158e-05
  0.00000000e+00  0.00000000e+00  0.00000000e+00 -1.47629210e-06
  0.00000000e+00  0.00000000e+00  0.00000000e+00  0.00000000e+00
  0.00000000e+00  0.00000000e+00  0.00000000e+00  0.00000000e+00
  0.00000000e+00  0.00000000e+00  0.00000000e+00  0.00000000e+00
  0.00000000e+00  0.00000000e+00  0.00000000e+00  0.00000000e+00
  0.00000000e+00  0.00000000e+00 -4.43949174e-06 -1.47629210e-06
  0.00000000e+00  0.00000000e+00  0.00000000e+00  4.24697008e-06]","[[-0.00065702  0.01989559]
 [-0.00050739 -0.00628184]]",[],0.0,0.0
1787562961.1842487,1.7509452656225983,1.4457199948835133,2.1951188114372933,"[ 3.66726585e-05  1.22116652e-06  0.00000000e+00  0.00000000e+00
  0.00000000e+00 -4.43949174e-06  1.22116652e-06  2.69648158e-05
  0.00000000e+00  0.00000000e+00  0.00000000e+00 -1.47629210e-06
  0.00000000e+00  0.00000000e+00  0.00000000e+00  0.00000000e+00
  0.00000000e+00  0.00000000e+00  0.00000000e+00  0.00000000e+00
  0.00000000e+00  0.00000000e+00  0.00000000e+00  0.00000000e+00
  0.00000000e+00  0.00000000e+00  0.00000000e+00  0.00000000e+00
  0.00000000e+00  0.00000000e+00 -4.43949174e-06 -1.47629210e-06
  0.00000000e+00  0.00000000e+00  0.00000000e+00  4.24697008e-06]","[[-0.00065702  0.01989559]
 [-0.00050739 -0.00628184]]",[],0.0,0.0
1787562961.218179,1.7509452656225983,1.4457199948835133,2.1951188114372933,"[ 3.66726585e-05  1.22116652e-06  0.00000000e+00  0.00000000e+00
  0.00000000e+00 -4.43949174e-06  1.22116652e-06  2.69648158e-05
  0.00000000e+00  0.00000000e+00  0.00000000e+00 -1.47629210e-06
  0.00000000e+00  0.00000000e+00  0.00000000e+00  0.00000000e+00
  0.00000000e+00  0.00000000e+00  0.00000000e+00  0.00000000e+00
  0.00000000e+00  0.00000000e+00  0.00000000e+00  0.00000000e+00
  0.00000000e+00  0.00000000e+00  0.00000000e+00  0.00000000e+00
  0.00000000e+00  0.00000000e+00 -4.43949174e-06 -1.47629210e-06
  0.00000000e+00  0.00000000e+00  0.00000000e+00  4.24697008e-06]","[[-0.00065702  0.01989559]
 [-0.00050739 -0.00628184]]",[],0.0,0.0
1787562961.2757359,1.7509452656225983,1.4457199948835133,2.1951188114372933,"[ 3.66726585e-05  1.22116652e-06  0.00000000e+00  0.00000000e+00
  0.00000000e+00 -4.43949174e-06  1.22116652e-06  2.69648158e-05
  0.00000000e+00  0.00000000e+00  0.00000000e+00 -1.47629210e-06
  0.00000000e+00  0.00000000e+00  0.00000000e+00  0.00000000e+00
  0.00000000e+00  0.00000000e+00  0.00000000e+00  0.00000000e+00
  0.00000000e+00  0.00000000e+00  0.00000000e+00  0.00000000e+00
  0.00000000e+00  0.00000000e+00  0.00000000e+00  0.00000000e+00
  0.00000000e+00  0.00000000e+00 -4.43949174e-06 -1.47629210e-06
  0.00000000e+00  0.00000000e+00  0.00000000e+00  4.24697008e-06]","[[-0.00065702  0.01989559]
 [-0.00050739 -0.00628184]]",[],0.0,0.0
1787562961.3226082,1.7509452656225983,1.4457199948835133,2.1951188114372933,"[ 3.66726585e-05  1.22116652e-06  0.00000000e+00  0.00000000e+00
  0.00000000e+00 -4.43949174e-06  1.22116652e-06  2.69648158e-05
  0.00000000e+00  0.00000000e+00  0.00000000e+00 -1.47629210e-06
  0.00000000e+00  0.00000000e+00  0.00000000e+00  0.00000000e+00
  0.00000000e+00  0.00000000e+00  0.00000000e+00  0.00000000e+00
  0.00000000e+00  0.00000000e+00  0.00000000e+00  0.00000000e+00
  0.00000000e+00  0.00000000e+00  0.00000000e+00  0.00000000e+00
  0.00000000e+00  0.00000000e+00 -4.43949174e-06 -1.47629210e-06
  0.00000000e+00  0.00000000e+00  0.00000000e+00  4.24697008e-06]","[[-0.00065702  0.01989559]
 [-0.00050739 -0.00628184]]",[],0.0,0.0
1787562961.3673751,1.7509452656225983,1.4457199948835133,2.1951188114372933,"[ 3.66726585e-05  1.22116652e-06  0.00000000e+00  0.00000000e+00
  0.00000000e+00 -4.43949174e-06  1.22116652e-06  2.69648158e-05
  0.00000000e+00  0.00000000e+00  0.00000000e+00 -1.47629210e-06
  0.00000000e+00  0.00000000e+00  0.00000000e+00  0.00000000e+00
  0.00000000e+00  0.00000000e+00  0.00000000e+00  0.00000000e+00
  0.00000000e+00  0.00000000e+00  0.00000000e+00  0.00000000e+00
  0.00000000e+00  0.00000000e+00  0.00000000e+00  0.00000000e+00
  0.00000000e+00  0.00000000e+00 -4.43949174e-06 -1.47629210e-06
  0.00000000e+00  0.00000000e+00  0.00000000e+00  4.24697008e-06]","[[-0.00065702  0.01989559]
 [-0.00050739 -0.00628184]]",[],0.0,0.0
1787562961.4168692,1.7774722010102544,1.426680877878755,2.215120619129232,"[ 2.50451677e-05  1.19718128e-06  0.00000000e+00  0.00000000e+00
  0.00000000e+00 -3.23851905e-06  1.19718128e-06  1.83641090e-05
  0.00000000e+00  0.00000000e+00  0.00000000e+00 -1.51886472e-06
  0.00000000e+00  0.00000000e+00  0.00000000e+00  0.00000000e+00
  0.00000000e+00  0.00000000e+00  0.00000000e+00  0.00000000e+00
  0.00000000e+00  0.00000000e+00  0.00000000e+00  0.00000000e+00
  0.00000000e+00  0.00000000e+00  0.00000000e+00  0.00000000e+00
  0.00000000e+00  0.00000000e+00 -3.23851905e-06 -1.51886472e-06
  0.00000000e+00  0.00000000e+00  0.00000000e+00  4.24904182e-06]","[[-0.00044869  0.01388871]
 [-0.00035632 -0.00316076]]",[],0.0,0.0
1787562961.474238,1.7774722010102544,1.426680877878755,2.215120619129232,"[ 2.50451677e-05  1.19718128e-06  0.00000000e+00  0.00000000e+00
  0.00000000e+00 -3.23851905e-06  1.19718128e-06  1.83641090e-05
  0.00000000e+00  0.00000000e+00  0.00000000e+00 -1.51886472e-06
  0.00000000e+00  0.00000000e+00  0.00000000e+00  0.00000000e+00
  0.00000000e+00  0.00000000e+00  0.00000000e+00  0.00000000e+00
  0.00000000e+00  0.00000000e+00  0.00000000e+00  0.00000000e+00
  0.00000000e+00  0.00000000e+00  0.00000000e+00  0.00000000e+00
  0.00000000e+00  0.00000000e+00 -3.23851905e-06 -1.51886472e-06
  0.00000000e+00  0.00000000e+00  0.00000000e+00  4.24904182e-06]","[[-0.00044869  0.01388871]
 [-0.00035632 -0.00316076]]",[],0.0,0.0
1787562961.5177228,1.7774722010102544,1.426680877878755,2.215120619129232,"[ 2.50451677e-05  1.19718128e-06  0.00000000e+00  0.00000000e+00
  0.00000000e+00 -3.23851905e-06  1.19718128e-06  1.83641090e-05
  0.00000000e+00  0.00000000e+00  0.00000000e+00 -1.51886472e-06
  0.00000000e+00  0.00000000e+00  0.00000000e+00  0.00000000e+00
  0.00000000e+00  0.00000000e+00  0.00000000e+00  0.00000000e+00
  0.00000000e+00  0.00000000e+00  0.00000000e+00  0.00000000e+00
  0.00000000e+00  0.00000000e+00  0.00000000e+00  0.00000000e+00
  0.00000000e+00  0.00000000e+00 -3.23851905e-06 -1.51886472e-06
  0.00000000e+00  0.00000000e+00  0.00000000e+00  4.24904182e-06]","[[-0.00044869  0.01388871]
 [-0.00035632 -0.00316076]]",[],0.0,0.0
1787562961.569016,1.7774722010102544,1.426680877878755,2.215120619129232,"[ 2.50451677e-05  1.19718128e-06  0.00000000e+00  0.00000000e+00
  0.00000000e+00 -3.23851905e-06  1.19718128e-06  1.83641090e-05
  0.00000000e+00  0.00000000e+00  0.00000000e+00 -1.51886472e-06
  0.00000000e+00  0.00000000e+00  0.00000000e+00  0.00000000e+00
  0.00000000e+00  0.00000000e+00  0.00000000e+00  0.00000000e+00
  0.00000000e+00  0.00000000e+00  0.00000000e+00  0.00000000e+00
  0.00000000e+00  0.00000000e+00  0.00000000e+00  0.00000000e+00
  0.00000000e+00  0.00000000e+00 -3.23851905e-06 -1.51886472e-06
  0.00000000e+00  0.00000000e+00  0.00000000e+00  4.24904182e-06]","[[-0.00044869  0.01388871]
 [-0.00035632 -0.00316076]]",[],0.0,0.0
1787562961.6202066,1.7774722010102544,1.426680877878755,2.215120619129232,"[ 2.50451677e-05  1.19718128e-06  0.00000000e+00  0.00000000e+00
  0.00000000e+00 -3.23851905e-06  1.19718128e-06  1.83641090e-05
  0.00000000e+00  0.00000000e+00  0.00000000e+00 -1.51886472e-06
  0.00000000e+00  0.00000000e+00  0.00000000e+00  0.00000000e+00
  0.00000000e+00  0.00000000e+00  0.00000000e+00  0.00000000e+00
  0.00000000e+00  0.00000000e+00  0.00000000e+00  0.00000000e+00
  0.00000000e+00  0.00000000e+00  0.00000000e+00  0.00000000e+00
  0.00000000e+00  0.00000000e+00 -3.23851905e-06 -1.51886472e-06
  0.00000000e+00  0.00000000e+00  0.00000000e+00  4.24904182e-06]","[[-0.00044869  0.01388871]
 [-0.00035632 -0.00316076]]",[],0.0,0.0
1787562961.6675847,1.7774722010102544,1.426680877878755,2.215120619129232,"[ 2.50451677e-05  1.19718128e-06  0.00000000e+00  0.00000000e+00
  0.00000000e+00 -3.23851905e-06  1.19718128e-06  1.83641090e-05
  0.00000000e+00  0.00000000e+00  0.00000000e+00 -1.51886472e-06
  0.00000000e+00  0.00000000e+00  0.00000000e+00  0.00000000e+00
  0.00000000e+00  0.00000000e+00  0.00000000e+00  0.00000000e+00
  0.00000000e+00  0.00000000e+00  0.00000000e+00  0.00000000e+00
  0.00000000e+00  0.00000000e+00  0.00000000e+00  0.00000000e+00
  0.00000000e+00  0.00000000e+00 -3.23851905e-06 -1.51886472e-06
  0.00000000e+00  0.00000000e+00  0.00000000e+00  4.24904182e-06]","[[-0.00044869  0.01388871]
 [-0.00035632 -0.00316076]]",[],0.0,0.0
1787562961.7230687,1.7774722010102544,1.426680877878755,2.215120619129232,"[ 2.50451677e-05  1.19718128e-06  0.00000000e+00  0.00000000e+00
  0.00000000e+00 -3.23851905e-06  1.19718128e-06  1.83641090e-05
  0.00000000e+00  0.00000000e+00  0.00000000e+00 -1.51886472e-06
  0.00000000e+00  0.00000000e+00  0.00000000e+00  0.00000000e+00
  0.00000000e+00  0.00000000e+00  0.00000000e+00  0.00000000e+00
  0.00000000e+00  0.00000000e+00  0.00000000e+00  0.00000000e+00
  0.00000000e+00  0.00000000e+00  0.00000000e+00  0.00000000e+00
  0.00000000e+00  0.00000000e+00 -3.23851905e-06 -1.51886472e-06
  0.00000000e+00  0.00000000e+00  0.00000000e+00  4.24904182e-06]","[[-0.00044869  0.01388871]
 [-0.00035632 -0.00316076]]",[],0.0,0.0
1787562961.767581,1.7774722010102544,1.426680877878755,2.215120619129232,"[ 2.50451677e-05  1.19718128e-06  0.00000000e+00  0.00000000e+00
  0.00000000e+00 -3.23851905e-06  1.19718128e-06  1.83641090e-05
  0.00000000e+00  0.00000000e+00  0.00000000e+00 -1.51886472e-06
  0.00000000e+00  0.00000000e+00  0.00000000e+00  0.00000000e+00
  0.00000000e+00  0.00000000e+00  0.00000000e+00  0.00000000e+00
  0.00000000e+00  0.00000000e+00  0.00000000e+00  0.00000000e+00
  0.00000000e+00  0.00000000e+00  0.00000000e+00  0.00000000e+00
  0.00000000e+00  0.00000000e+00 -3.23851905e-06 -1.51886472e-06
  0.00000000e+00  0.00000000e+00  0.00000000e+00  4.24904182e-06]","[[-0.00044869  0.01388871]
 [-0.00035632 -0.00316076]]",[],0.0,0.0
1787562961.817707,1.7774722010102544,1.426680877878755,2.215120619129232,"[ 2.50451677e-05  1.19718128e-06  0.00000000e+00  0.00000000e+00
  0.00000000e+00 -3.23851905e-06  1.19718128e-06  1.83641090e-05
  0.00000000e+00  0.00000000e+00  0.00000000e+00 -1.51886472e-06
  0.00000000e+00  0.00000000e+00  0.00000000e+00  0.00000000e+00
  0.00000000e+00  0.00000000e+00  0.00000000e+00  0.00000000e+00
  0.00000000e+00  0.00000000e+00  0.00000000e+00  0.00000000e+00
  0.00000000e+00  0.00000000e+00  0.00000000e+00  0.00000000e+00
  0.00000000e+00  0.00000000e+00 -3.23851905e-06 -1.51886472e-06
  0.00000000e+00  0.00000000e+00  0.00000000e+00  4.24904182e-06]","[[-0.00044869  0.01388871]
 [-0.00035632 -0.00316076]]",[],0.0,0.0
1787562961.8683872,1.7774722010102544,1.426680877878755,2.215120619129232,"[ 2.50451677e-05  1.19718128e-06  0.00000000e+00  0.00000000e+00
  0.00000000e+00 -3.23851905e-06  1.19718128e-06  1.83641090e-05
  0.00000000e+00  0.00000000e+00  0.00000000e+00 -1.51886472e-06
  0.00000000e+00  0.00000000e+00  0.00000000e+00  0.00000000e+00
  0.00000000e+00  0.00000000e+00  0.00000000e+00  0.00000000e+00
  0.00000000e+00  0.00000000e+00  0.00000000e+00  0.00000000e+00
  0.00000000e+00  0.00000000e+00  0.00000000e+00  0.00000000e+00
  0.00000000e+00  0.00000000e+00 -3.23851905e-06 -1.51886472e-06
  0.00000000e+00  0.00000000e+00  0.00000000e+00  4.24904182e-06]","[[-0.00044869  0.01388871]
 [-0.00035632 -0.00316076]]",[],0.0,0.0
1787562961.9172645,1.7774722010102544,1.426680877878755,2.215120619129232,"[ 2.50451677e-05  1.19718128e-06  0.00000000e+00  0.00000000e+00
  0.00000000e+00 -3.23851905e-06  1.19718128e-06  1.83641090e-05
  0.00000000e+00  0.00000000e+00  0.00000000e+00 -1.51886472e-06
  0.00000000e+00  0.00000000e+00  0.00000000e+00  0.00000000e+00
  0.00000000e+00  0.00000000e+00  0.00000000e+00  0.00000000e+00
  0.00000000e+00  0.00000000e+00  0.00000000e+00  0.00000000e+00
  0.00000000e+00  0.00000000e+00  0.00000000e+00  0.00000000e+00
  0.00000000e+00  0.00000000e+00 -3.23851905e-06 -1.51886472e-06
  0.00000000e+00  0.00000000e+00  0.00000000e+00  4.24904182e-06]","[[-0.00044869  0.01388871]
 [-0.00035632 -0.00316076]]",[],0.0,0.0
1787562961.9670508,1.7774722010102544,1.426680877878755,2.215120619129232,"[ 2.50451677e-05  1.19718128e-06  0.00000000e+00  0.00000000e+00
  0.00000000e+00 -3.23851905e-06  1.19718128e-06  1.83641090e-05
  0.00000000e+00  0.00000000e+00  0.00000000e+00 -1.51886472e-06
  0.00000000e+00  0.00000000e+00  0.00000000e+00  0.00000000e+00
  0.00000000e+00  0.00000000e+00  0.00000000e+00  0.00000000e+00
  0.00000000e+00  0.00000000e+00  0.00000000e+00  0.00000000e+00
  0.00000000e+00  0.00000000e+00  0.00000000e+00  0.00000000e+00
  0.00000000e+00  0.00000000e+00 -3.23851905e-06 -1.51886472e-06
  0.00000000e+00  0.00000000e+00  0.00000000e+00  4.24904182e-06]","[[-0.00044869  0.01388871]
 [-0.00035632 -0.00316076]]",[],0.0,0.0
1787562962.027039,1.7774722010102544,1.426680877878755,2.215120619129232,"[ 2.50451677e-05  1.19718128e-06  0.00000000e+00  0.00000000e+00
  0.00000000e+00 -3.23851905e-06  1.19718128e-06  1.83641090e-05
  0.00000000e+00  0.00000000e+00  0.00000000e+00 -1.51886472e-06
  0.00000000e+00  0.00000000e+00  0.00000000e+00  0.00000000e+00
  0.00000000e+00  0.00000000e+00  0.00000000e+00  0.00000000e+00
  0.00000000e+00  0.00000000e+00  0.00000000e+00  0.00000000e+00
  0.00000000e+00  0.00000000e+00  0.00000000e+00  0.00000000e+00
  0.00000000e+00  0.00000000e+00 -3.23851905e-06 -1.51886472e-06
  0.00000000e+00  0.00000000e+00  0.00000000e+00  4.24904182e-06]","[[-0.00044869  0.01388871]
 [-0.00035632 -0.00316076]]",[],0.0,0.0
1787562962.0697336,1.7774722010102544,1.426680877878755,2.215120619129232,"[ 2.50451677e-05  1.19718128e-06  0.00000000e+00  0.00000000e+00
  0.00000000e+00 -3.23851905e-06  1.19718128e-06  1.83641090e-05
  0.00000000e+00  0.00000000e+00  0.00000000e+00 -1.51886472e-06
  0.00000000e+00  0.00000000e+00  0.00000000e+00  0.00000000e+00
  0.00000000e+00  0.00000000e+00  0.00000000e+00  0.00000000e+00
  0.00000000e+00  0.00000000e+00  0.00000000e+00  0.00000000e+00
  0.00000000e+00  0.00000000e+00  0.00000000e+00  0.00000000e+00
  0.00000000e+00  0.00000000e+00 -3.23851905e-06 -1.51886472e-06
  0.00000000e+00  0.00000000e+00  0.00000000e+00  4.24904182e-06]","[[-0.00044869  0.01388871]
 [-0.00035632 -0.00316076]]",[],0.0,0.0
1787562962.1186907,1.7774722010102544,1.426680877878755,2.215120619129232,"[ 2.50451677e-05  1.19718128e-06  0.00000000e+00  0.00000000e+00
  0.00000000e+00 -3.23851905e-06  1.19718128e-06  1.83641090e-05
  0.00000000e+00  0.00000000e+00  0.00000000e+00 -1.51886472e-06
  0.00000000e+00  0.00000000e+00  0.00000000e+00  0.00000000e+00
  0.00000000e+00  0.00000000e+00  0.00000000e+00  0.00000000e+00
  0.00000000e+00  0.00000000e+00  0.00000000e+00  0.00000000e+00
  0.00000000e+00  0.00000000e+00  0.00000000e+00  0.00000000e+00
  0.00000000e+00  0.00000000e+00 -3.23851905e-06 -1.51886472e-06
  0.00000000e+00  0.00000000e+00  0.00000000e+00  4.24904182e-06]","[[-0.00044869  0.01388871]
 [-0.00035632 -0.00316076]]",[],0.0,0.0
1787562962.1739953,1.8006479645494677,1.4103869281746928,2.256627096657742,"[ 1.89814855e-05  8.71557814e-07  0.00000000e+00  0.00000000e+00
  0.00000000e+00 -2.25159862e-06  8.71557814e-07  1.36517180e-05
  0.00000000e+00  0.00000000e+00  0.00000000e+00 -9.99009555e-07
  0.00000000e+00  0.00000000e+00  0.00000000e+00  0.00000000e+00
  0.00000000e+00  0.00000000e+00  0.00000000e+00  0.00000000e+00
  0.00000000e+00  0.00000000e+00  0.00000000e+00  0.00000000e+00
  0.00000000e+00  0.00000000e+00  0.00000000e+00  0.00000000e+00
  0.00000000e+00  0.00000000e+00 -2.25159862e-06 -9.99009555e-07
  0.00000000e+00  0.00000000e+00  0.00000000e+00  4.08591047e-06]","[[-0.00033621  0.01027311]
 [-0.00026663 -0.00252689]]",[],0.0,0.0
1787562962.2169113,1.8006479645494677,1.4103869281746928,2.256627096657742,"[ 1.89814855e-05  8.71557814e-07  0.00000000e+00  0.00000000e+00
  0.00000000e+00 -2.25159862e-06  8.71557814e-07  1.36517180e-05
  0.00000000e+00  0.00000000e+00  0.00000000e+00 -9.99009555e-07
  0.00000000e+00  0.00000000e+00  0.00000000e+00  0.00000000e+00
  0.00000000e+00  0.00000000e+00  0.00000000e+00  0.00000000e+00
  0.00000000e+00  0.00000000e+00  0.00000000e+00  0.00000000e+00
  0.00000000e+00  0.00000000e+00  0.00000000e+00  0.00000000e+00
  0.00000000e+00  0.00000000e+00 -2.25159862e-06 -9.99009555e-07
  0.00000000e+00  0.00000000e+00  0.00000000e+00  4.08591047e-06]","[[-0.00033621  0.01027311]
 [-0.00026663 -0.00252689]]",[],0.0,0.0
1787562962.2767515,1.8006479645494677,1.4103869281746928,2.256627096657742,"[ 1.89814855e-05  8.71557814e-07  0.00000000e+00  0.00000000e+00
  0.00000000e+00 -2.25159862e-06  8.71557814e-07  1.36517180e-05
  0.00000000e+00  0.00000000e+00  0.00000000e+00 -9.99009555e-07
  0.00000000e+00  0.00000000e+00  0.00000000e+00  0.00000000e+00
  0.00000000e+00  0.00000000e+00  0.00000000e+00  0.00000000e+00
  0.00000000e+00  0.00000000e+00  0.00000000e+00  0.00000000e+00
  0.00000000e+00  0.00000000e+00  0.00000000e+00  0.00000000e+00
  0.00000000e+00  0.00000000e+00 -2.25159862e-06 -9.99009555e-07
  0.00000000e+00  0.00000000e+00  0.00000000e+00  4.08591047e-06]","[[-0.00033621  0.01027311]
 [-0.00026663 -0.00252689]]",[],0.0,0.0
1787562962.3277693,1.8006479645494677,1.4103869281746928,2.256627096657742,"[ 1.89814855e-05  8.71557814e-07  0.00000000e+00  0.00000000e+00
  0.00000000e+00 -2.25159862e-06  8.71557814e-07  1.36517180e-05
  0.00000000e+00  0.00000000e+00  0.00000000e+00 -9.99009555e-07
  0.00000000e+00  0.00000000e+00  0.00000000e+00  0.00000000e+00
  0.00000000e+00  0.00000000e+00  0.00000000e+00  0.00000000e+00
  0.00000000e+00  0.00000000e+00  0.00000000e+00  0.00000000e+00
  0.00000000e+00  0.00000000e+00  0.00000000e+00  0.00000000e+00
  0.00000000e+00  0.00000000e+00 -2.25159862e-06 -9.99009555e-07
  0.00000000e+00  0.00000000e+00  0.00000000e+00  4.08591047e-06]","[[-0.00033621  0.01027311]
 [-0.00026663 -0.00252689]]",[],0.0,0.0
1787562962.3677957,1.8006479645494677,1.4103869281746928,2.256627096657742,"[ 1.89814855e-05  8.71557814e-07  0.00000000e+00  0.00000000e+00
  0.00000000e+00 -2.25159862e-06  8.71557814e-07  1.36517180e-05
  0.00000000e+00  0.00000000e+00  0.00000000e+00 -9.99009555e-07
  0.00000000e+00  0.00000000e+00  0.00000000e+00  0.00000000e+00
  0.00000000e+00  0.00000000e+00  0.00000000e+00  0.00000000e+00
  0.00000000e+00  0.00000000e+00  0.00000000e+00  0.00000000e+00
  0.00000000e+00  0.00000000e+00  0.00000000e+00  0.00000000e+00
  0.00000000e+00  0.00000000e+00 -2.25159862e-06 -9.99009555e-07
  0.00000000e+00  0.00000000e+00  0.00000000e+00  4.08591047e-06]","[[-0.00033621  0.01027311]
 [-0.00026663 -0.00252689]]",[],0.0,0.0
1787562962.4249313,1.8006479645494677,1.4103869281746928,2.256627096657742,"[ 1.89814855e-05  8.71557814e-07  0.00000000e+00  0.00000000e+00
  0.00000000e+00 -2.25159862e-06  8.71557814e-07  1.36517180e-05
  0.00000000e+00  0.00000000e+00  0.00000000e+00 -9.99009555e-07
  0.00000000e+00  0.00000000e+00  0.00000000e+00  0.00000000e+00
  0.00000000e+00  0.00000000e+00  0.00000000e+00  0.00000000e+00
  0.00000000e+00  0.00000000e+00  0.00000000e+00  0.00000000e+00
  0.00000000e+00  0.00000000e+00  0.00000000e+00  0.00000000e+00
  0.00000000e+00  0.00000000e+00 -2.25159862e-06 -9.99009555e-07
  0.00000000e+00  0.00000000e+00  0.00000000e+00  4.08591047e-06]","[[-0.00033621  0.01027311]
 [-0.00026663 -0.00252689]]",[],0.0,0.0
1787562962.4751782,1.8006479645494677,1.4103869281746928,2.256627096657742,"[ 1.89814855e-05  8.71557814e-07  0.00000000e+00  0.00000000e+00
  0.00000000e+00 -2.25159862e-06  8.71557814e-07  1.36517180e-05
  0.00000000e+00  0.00000000e+00  0.00000000e+00 -9.99009555e-07
  0.00000000e+00  0.00000000e+00  0.00000000e+00  0.00000000e+00
  0.00000000e+00  0.00000000e+00  0.00000000e+00  0.00000000e+00
  0.00000000e+00  0.00000000e+00  0.00000000e+00  0.00000000e+00
  0.00000000e+00  0.00000000e+00  0.00000000e+00  0.00000000e+00
  0.00000000e+00  0.00000000e+00 -2.25159862e-06 -9.99009555e-07
  0.00000000e+00  0.00000000e+00  0.00000000e+00  4.08591047e-06]","[[-0.00033621  0.01027311]
 [-0.00026663 -0.00252689]]",[],0.0,0.0
1787562962.5195901,1.8006479645494677,1.4103869281746928,2.256627096657742,"[ 1.89814855e-05  8.71557814e-07  0.00000000e+00  0.00000000e+00
  0.00000000e+00 -2.25159862e-06  8.71557814e-07  1.36517180e-05
  0.00000000e+00  0.00000000e+00  0.00000000e+00 -9.99009555e-07
  0.00000000e+00  0.00000000e+00  0.00000000e+00  0.00000000e+00
  0.00000000e+00  0.00000000e+00  0.00000000e+00  0.00000000e+00
  0.00000000e+00  0.00000000e+00  0.00000000e+00  0.00000000e+00
  0.00000000e+00  0.00000000e+00  0.00000000e+00  0.00000000e+00
  0.00000000e+00  0.00000000e+00 -2.25159862e-06 -9.99009555e-07
  0.00000000e+00  0.00000000e+00  0.00000000e+00  4.08591047e-06]","[[-0.00033621  0.01027311]
 [-0.00026663 -0.00252689]]",[],0.0,0.0
1787562962.5675685,1.8006479645494677,1.4103869281746928,2.256627096657742,"[ 1.89814855e-05  8.71557814e-07  0.00000000e+00  0.00000000e+00
  0.00000000e+00 -2.25159862e-06  8.71557814e-07  1.36517180e-05
  0.00000000e+00  0.00000000e+00  0.00000000e+00 -9.99009555e-07
  0.00000000e+00  0.00000000e+00  0.00000000e+00  0.00000000e+00
  0.00000000e+00  0.00000000e+00  0.00000000e+00  0.00000000e+00
  0.00000000e+00  0.00000000e+00  0.00000000e+00  0.00000000e+00
  0.00000000e+00  0.00000000e+00  0.00000000e+00  0.00000000e+00
  0.00000000e+00  0.00000000e+00 -2.25159862e-06 -9.99009555e-07
  0.00000000e+00  0.00000000e+00  0.00000000e+00  4.08591047e-06]","[[-0.00033621  0.01027311]
 [-0.00026663 -0.00252689]]",[],0.0,0.0
1787562962.6186037,1.8006479645494677,1.4103869281746928,2.256627096657742,"[ 1.89814855e-05  8.71557814e-07  0.00000000e+00  0.00000000e+00
  0.00000000e+00 -2.25159862e-06  8.71557814e-07  1.36517180e-05
  0.00000000e+00  0.00000000e+00  0.00000000e+00 -9.99009555e-07
  0.00000000e+00  0.00000000e+00  0.00000000e+00  0.00000000e+00
  0.00000000e+00  0.00000000e+00  0.00000000e+00  0.00000000e+00
  0.00000000e+00  0.00000000e+00  0.00000000e+00  0.00000000e+00
  0.00000000e+00  0.00000000e+00  0.00000000e+00  0.00000000e+00
  0.00000000e+00  0.00000000e+00 -2.25159862e-06 -9.99009555e-07
  0.00000000e+00  0.00000000e+00  0.00000000e+00  4.08591047e-06]","[[-0.00033621  0.01027311]
 [-0.00026663 -0.00252689]]",[],0.0,0.0
1787562962.671562,1.8006479645494677,1.4103869281746928,2.256627096657742,"[ 1.89814855e-05  8.71557814e-07  0.00000000e+00  0.00000000e+00
  0.00000000e+00 -2.25159862e-06  8.71557814e-07  1.36517180e-05
  0.00000000e+00  0.00000000e+00  0.00000000e+00 -9.99009555e-07
  0.00000000e+00  0.00000000e+00  0.00000000e+00  0.00000000e+00
  0.00000000e+00  0.00000000e+00  0.00000000e+00  0.00000000e+00
  0.00000000e+00  0.00000000e+00  0.00000000e+00  0.00000000e+00
  0.00000000e+00  0.00000000e+00  0.00000000e+00  0.00000000e+00
  0.00000000e+00  0.00000000e+00 -2.25159862e-06 -9.99009555e-07
  0.00000000e+00  0.00000000e+00  0.00000000e+00  4.08591047e-06]","[[-0.00033621  0.01027311]
 [-0.00026663 -0.00252689]]",[],0.0,0.0
1787562962.7174141,1.8006479645494677,1.4103869281746928,2.256627096657742,"[ 1.89814855e-05  8.71557814e-07  0.00000000e+00  0.00000000e+00
  0.00000000e+00 -2.25159862e-06  8.71557814e-07  1.36517180e-05
  0.00000000e+00  0.00000000e+00  0.00000000e+00 -9.99009555e-07
  0.00000000e+00  0.00000000e+00  0.00000000e+00  0.00000000e+00
  0.00000000e+00  0.00000000e+00  0.00000000e+00  0.00000000e+00
  0.00000000e+00  0.00000000e+00  0.00000000e+00  0.00000000e+00
  0.00000000e+00  0.00000000e+00  0.00000000e+00  0.00000000e+00
  0.00000000e+00  0.00000000e+00 -2.25159862e-06 -9.99009555e-07
  0.00000000e+00  0.00000000e+00  0.00000000e+00  4.08591047e-06]","[[-0.00033621  0.01027311]
 [-0.00026663 -0.00252689]]",[],0.0,0.0
1787562962.7680256,1.8006479645494677,1.4103869281746928,2.256627096657742,"[ 1.89814855e-05  8.71557814e-07  0.00000000e+00  0.00000000e+00
  0.00000000e+00 -2.25159862e-06  8.71557814e-07  1.36517180e-05
  0.00000000e+00  0.00000000e+00  0.00000000e+00 -9.99009555e-07
  0.00000000e+00  0.00000000e+00  0.00000000e+00  0.00000000e+00
  0.00000000e+00  0.00000000e+00  0.00000000e+00  0.00000000e+00
  0.00000000e+00  0.00000000e+00  0.00000000e+00  0.00000000e+00
  0.00000000e+00  0.00000000e+00  0.00000000e+00  0.00000000e+00
  0.00000000e+00  0.00000000e+00 -2.25159862e-06 -9.99009555e-07
  0.00000000e+00  0.00000000e+00  0.00000000e+00  4.08591047e-06]","[[-0.00033621  0.01027311]
 [-0.00026663 -0.00252689]]",[],0.0,0.0
1787562962.818346,1.8006479645494677,1.4103869281746928,2.256627096657742,"[ 1.89814855e-05  8.71557814e-07  0.00000000e+00  0.00000000e+00
  0.00000000e+00 -2.25159862e-06  8.71557814e-07  1.36517180e-05
  0.00000000e+00  0.00000000e+00  0.00000000e+00 -9.99009555e-07
  0.00000000e+00  0.00000000e+00  0.00000000e+00  0.00000000e+00
  0.00000000e+00  0.00000000e+00  0.00000000e+00  0.00000000e+00
  0.00000000e+00  0.00000000e+00  0.00000000e+00  0.00000000e+00
  0.00000000e+00  0.00000000e+00  0.00000000e+00  0.00000000e+00
  0.00000000e+00  0.00000000e+00 -2.25159862e-06 -9.99009555e-07
  0.00000000e+00  0.00000000e+00  0.00000000e+00  4.08591047e-06]","[[-0.00033621  0.01027311]
 [-0.00026663 -0.00252689]]",[],0.0,0.0
1787562962.8758051,1.8244027867956119,1.3995934969674468,2.30160949485297,"[ 1.55308089e-05  7.47731110e-07  0.00000000e+00  0.00000000e+00
  0.00000000e+00 -1.68370520e-06  7.47731110e-07  1.12264946e-05
  0.00000000e+00  0.00000000e+00  0.00000000e+00 -6.13498796e-07
  0.00000000e+00  0.00000000e+00  0.00000000e+00  0.00000000e+00
  0.00000000e+00  0.00000000e+00  0.00000000e+00  0.00000000e+00
  0.00000000e+00  0.00000000e+00  0.00000000e+00  0.00000000e+00
  0.00000000e+00  0.00000000e+00  0.00000000e+00  0.00000000e+00
  0.00000000e+00  0.00000000e+00 -1.68370520e-06 -6.13498796e-07
  0.00000000e+00  0.00000000e+00  0.00000000e+00  4.15445087e-06]","[[-0.00027198  0.0122896 ]
 [-0.00022215 -0.00489011]]",[],0.0,0.0
1787562963.3651829,1.8244027867956119,1.3995934969674468,2.30160949485297,"[ 1.55308089e-05  7.47731110e-07  0.00000000e+00  0.00000000e+00
  0.00000000e+00 -1.68370520e-06  7.47731110e-07  1.12264946e-05
  0.00000000e+00  0.00000000e+00  0.00000000e+00 -6.13498796e-07
  0.00000000e+00  0.00000000e+00  0.00000000e+00  0.00000000e+00
  0.00000000e+00  0.00000000e+00  0.00000000e+00  0.00000000e+00
  0.00000000e+00  0.00000000e+00  0.00000000e+00  0.00000000e+00
  0.00000000e+00  0.00000000e+00  0.00000000e+00  0.00000000e+00
  0.00000000e+00  0.00000000e+00 -1.68370520e-06 -6.13498796e-07
  0.00000000e+00  0.00000000e+00  0.00000000e+00  4.15445087e-06]","[[-0.00027198  0.0122896 ]
 [-0.00022215 -0.00489011]]",[],0.0,0.0
1787562963.3793442,1.8244027867956119,1.3995934969674468,2.30160949485297,"[ 1.55308089e-05  7.47731110e-07  0.00000000e+00  0.00000000e+00
  0.00000000e+00 -1.68370520e-06  7.47731110e-07  1.12264946e-05
  0.00000000e+00  0.00000000e+00  0.00000000e+00 -6.13498796e-07
  0.00000000e+00  0.00000000e+00  0.00000000e+00  0.00000000e+00
  0.00000000e+00  0.00000000e+00  0.00000000e+00  0.00000000e+00
  0.00000000e+00  0.00000000e+00  0.00000000e+00  0.00000000e+00
  0.00000000e+00  0.00000000e+00  0.00000000e+00  0.00000000e+00
  0.00000000e+00  0.00000000e+00 -1.68370520e-06 -6.13498796e-07
  0.00000000e+00  0.00000000e+00  0.00000000e+00  4.15445087e-06]","[[-0.00027198  0.0122896 ]
 [-0.00022215 -0.00489011]]",[],0.0,0.0
1787562963.4308777,1.8379372310297568,1.385973685485784,2.3309485424447036,"[ 1.28574704e-05  5.74456977e-07  0.00000000e+00  0.00000000e+00
  0.00000000e+00 -1.37804607e-06  5.74456977e-07  9.19890864e-06
  0.00000000e+00  0.00000000e+00  0.00000000e+00 -5.31195043e-07
  0.00000000e+00  0.00000000e+00  0.00000000e+00  0.00000000e+00
  0.00000000e+00  0.00000000e+00  0.00000000e+00  0.00000000e+00
  0.00000000e+00  0.00000000e+00  0.00000000e+00  0.00000000e+00
  0.00000000e+00  0.00000000e+00  0.00000000e+00  0.00000000e+00
  0.00000000e+00  0.00000000e+00 -1.37804607e-06 -5.31195043e-07
  0.00000000e+00  0.00000000e+00  0.00000000e+00  3.49867141e-06]","[[ 5.96113866e-06  5.93978240e-03]
 [-2.28607211e-04  1.20688510e-03]]",[],0.0,0.0
1787562963.4979937,1.8379372310297568,1.385973685485784,2.3309485424447036,"[ 1.28574704e-05  5.74456977e-07  0.00000000e+00  0.00000000e+00
  0.00000000e+00 -1.37804607e-06  5.74456977e-07  9.19890864e-06
  0.00000000e+00  0.00000000e+00  0.00000000e+00 -5.31195043e-07
  0.00000000e+00  0.00000000e+00  0.00000000e+00  0.00000000e+00
  0.00000000e+00  0.00000000e+00  0.00000000e+00  0.00000000e+00
  0.00000000e+00  0.00000000e+00  0.00000000e+00  0.00000000e+00
  0.00000000e+00  0.00000000e+00  0.00000000e+00  0.00000000e+00
  0.00000000e+00  0.00000000e+00 -1.37804607e-06 -5.31195043e-07
  0.00000000e+00  0.00000000e+00  0.00000000e+00  3.49867141e-06]","[[ 5.96113866e-06  5.93978240e-03]
 [-2.28607211e-04  1.20688510e-03]]",[],0.0,0.0
1787562964.0228581,1.8379372310297568,1.385973685485784,2.3309485424447036,"[ 1.28574704e-05  5.74456977e-07  0.00000000e+00  0.00000000e+00
  0.00000000e+00 -1.37804607e-06  5.74456977e-07  9.19890864e-06
  0.00000000e+00  0.00000000e+00  0.00000000e+00 -5.31195043e-07
  0.00000000e+00  0.00000000e+00  0.00000000e+00  0.00000000e+00
  0.00000000e+00  0.00000000e+00  0.00000000e+00  0.00000000e+00
  0.00000000e+00  0.00000000e+00  0.00000000e+00  0.00000000e+00
  0.00000000e+00  0.00000000e+00  0.00000000e+00  0.00000000e+00
  0.00000000e+00  0.00000000e+00 -1.37804607e-06 -5.31195043e-07
  0.00000000e+00  0.00000000e+00  0.00000000e+00  3.49867141e-06]","[[ 5.96113866e-06  5.93978240e-03]
 [-2.28607211e-04  1.20688510e-03]]",[],0.0,0.0
1787562964.6098468,1.8462960138272204,1.3733865709607553,2.3592084830613995,"[ 1.09370458e-05  5.00026544e-07  0.00000000e+00  0.00000000e+00
  0.00000000e+00 -1.04141015e-06  5.00026544e-07  7.93431724e-06
  0.00000000e+00  0.00000000e+00  0.00000000e+00 -4.12747159e-07
  0.00000000e+00  0.00000000e+00  0.00000000e+00  0.00000000e+00
  0.00000000e+00  0.00000000e+00  0.00000000e+00  0.00000000e+00
  0.00000000e+00  0.00000000e+00  0.00000000e+00  0.00000000e+00
  0.00000000e+00  0.00000000e+00  0.00000000e+00  0.00000000e+00
  0.00000000e+00  0.00000000e+00 -1.04141015e-06 -4.12747159e-07
  0.00000000e+00  0.00000000e+00  0.00000000e+00  3.61768494e-06]","[[ 5.38084024e-06  4.82860118e-03]
 [-1.97118269e-04  9.71281382e-04]]",[],0.0,0.0
1787562964.6188385,1.8462960138272204,1.3733865709607553,2.3592084830613995,"[ 1.09370458e-05  5.00026544e-07  0.00000000e+00  0.00000000e+00
  0.00000000e+00 -1.04141015e-06  5.00026544e-07  7.93431724e-06
  0.00000000e+00  0.00000000e+00  0.00000000e+00 -4.12747159e-07
  0.00000000e+00  0.00000000e+00  0.00000000e+00  0.00000000e+00
  0.00000000e+00  0.00000000e+00  0.00000000e+00  0.00000000e+00
  0.00000000e+00  0.00000000e+00  0.00000000e+00  0.00000000e+00
  0.00000000e+00  0.00000000e+00  0.00000000e+00  0.00000000e+00
  0.00000000e+00  0.00000000e+00 -1.04141015e-06 -4.12747159e-07
  0.00000000e+00  0.00000000e+00  0.00000000e+00  3.61768494e-06]","[[ 5.38084024e-06  4.82860118e-03]
 [-1.97118269e-04  9.71281382e-04]]",[],0.0,0.0
1787562965.2590182,1.8567675091460647,1.3674839394438756,2.37840894436035,"[ 9.36071123e-06  3.61060065e-07  0.00000000e+00  0.00000000e+00
  0.00000000e+00 -9.49204139e-07  3.61060065e-07  6.86421344e-06
  0.00000000e+00  0.00000000e+00  0.00000000e+00 -4.59225786e-07
  0.00000000e+00  0.00000000e+00  0.00000000e+00  0.00000000e+00
  0.00000000e+00  0.00000000e+00  0.00000000e+00  0.00000000e+00
  0.00000000e+00  0.00000000e+00  0.00000000e+00  0.00000000e+00
  0.00000000e+00  0.00000000e+00  0.00000000e+00  0.00000000e+00
  0.00000000e+00  0.00000000e+00 -9.49204139e-07 -4.59225786e-07
  0.00000000e+00  0.00000000e+00  0.00000000e+00  3.44516623e-06]","[[ 6.57551459e-06  4.22111765e-03]
 [-1.70623480e-04  9.90951354e-04]]",[],0.0,0.0
1787562965.2930915,1.8567675091460647,1.3674839394438756,2.37840894436035,"[ 9.36071123e-06  3.61060065e-07  0.00000000e+00  0.00000000e+00
  0.00000000e+00 -9.49204139e-07  3.61060065e-07  6.86421344e-06
  0.00000000e+00  0.00000000e+00  0.00000000e+00 -4.59225786e-07
  0.00000000e+00  0.00000000e+00  0.00000000e+00  0.00000000e+00
  0.00000000e+00  0.00000000e+00  0.00000000e+00  0.00000000e+00
  0.00000000e+00  0.00000000e+00  0.00000000e+00  0.00000000e+00
  0.00000000e+00  0.00000000e+00  0.00000000e+00  0.00000000e+00
  0.00000000e+00  0.00000000e+00 -9.49204139e-07 -4.59225786e-07
  0.00000000e+00  0.00000000e+00  0.00000000e+00  3.44516623e-06]","[[ 6.57551459e-06  4.22111765e-03]
 [-1.70623480e-04  9.90951354e-04]]",[],0.0,0.0
1787562965.3190284,1.8675958044566325,1.3597407168475903,2.3837684603037737,"[ 8.28594190e-06  3.00699607e-07  0.00000000e+00  0.00000000e+00
  0.00000000e+00 -7.96949382e-07  3.00699607e-07  6.09663514e-06
  0.00000000e+00  0.00000000e+00  0.00000000e+00 -3.48773867e-07
  0.00000000e+00  0.00000000e+00  0.00000000e+00  0.00000000e+00
  0.00000000e+00  0.00000000e+00  0.00000000e+00  0.00000000e+00
  0.00000000e+00  0.00000000e+00  0.00000000e+00  0.00000000e+00
  0.00000000e+00  0.00000000e+00  0.00000000e+00  0.00000000e+00
  0.00000000e+00  0.00000000e+00 -7.96949382e-07 -3.48773867e-07
  0.00000000e+00  0.00000000e+00  0.00000000e+00  3.44892865e-06]","[[ 6.64830442e-06  3.66176522e-03]
 [-1.51546517e-04  7.79466181e-04]]",[],0.0,0.0
1787562965.3717117,1.8675958044566325,1.3597407168475903,2.3837684603037737,"[ 8.28594190e-06  3.00699607e-07  0.00000000e+00  0.00000000e+00
  0.00000000e+00 -7.96949382e-07  3.00699607e-07  6.09663514e-06
  0.00000000e+00  0.00000000e+00  0.00000000e+00 -3.48773867e-07
  0.00000000e+00  0.00000000e+00  0.00000000e+00  0.00000000e+00
  0.00000000e+00  0.00000000e+00  0.00000000e+00  0.00000000e+00
  0.00000000e+00  0.00000000e+00  0.00000000e+00  0.00000000e+00
  0.00000000e+00  0.00000000e+00  0.00000000e+00  0.00000000e+00
  0.00000000e+00  0.00000000e+00 -7.96949382e-07 -3.48773867e-07
  0.00000000e+00  0.00000000e+00  0.00000000e+00  3.44892865e-06]","[[ 6.64830442e-06  3.66176522e-03]
 [-1.51546517e-04  7.79466181e-04]]",[],0.0,0.0
1787562965.419939,1.8675958044566325,1.3597407168475903,2.3837684603037737,"[ 8.28594190e-06  3.00699607e-07  0.00000000e+00  0.00000000e+00
  0.00000000e+00 -7.96949382e-07  3.00699607e-07  6.09663514e-06
  0.00000000e+00  0.00000000e+00  0.00000000e+00 -3.48773867e-07
  0.00000000e+00  0.00000000e+00  0.00000000e+00  0.00000000e+00
  0.00000000e+00  0.00000000e+00  0.00000000e+00  0.00000000e+00
  0.00000000e+00  0.00000000e+00  0.00000000e+00  0.00000000e+00
  0.00000000e+00  0.00000000e+00  0.00000000e+00  0.00000000e+00
  0.00000000e+00  0.00000000e+00 -7.96949382e-07 -3.48773867e-07
  0.00000000e+00  0.00000000e+00  0.00000000e+00  3.44892865e-06]","[[ 6.64830442e-06  3.66176522e-03]
 [-1.51546517e-04  7.79466181e-04]]",[],0.0,0.0
1787562966.1063254,1.8675958044566325,1.3597407168475903,2.3837684603037737,"[ 8.28594190e-06  3.00699607e-07  0.00000000e+00  0.00000000e+00
  0.00000000e+00 -7.96949382e-07  3.00699607e-07  6.09663514e-06
  0.00000000e+00  0.00000000e+00  0.00000000e+00 -3.48773867e-07
  0.00000000e+00  0.00000000e+00  0.00000000e+00  0.00000000e+00
  0.00000000e+00  0.00000000e+00  0.00000000e+00  0.00000000e+00
  0.00000000e+00  0.00000000e+00  0.00000000e+00  0.00000000e+00
  0.00000000e+00  0.00000000e+00  0.00000000e+00  0.00000000e+00
  0.00000000e+00  0.00000000e+00 -7.96949382e-07 -3.48773867e-07
  0.00000000e+00  0.00000000e+00  0.00000000e+00  3.44892865e-06]","[[ 6.64830442e-06  3.66176522e-03]
 [-1.51546517e-04  7.79466181e-04]]",[],0.0,0.0
1787562966.12006,1.8675958044566325,1.3597407168475903,2.3837684603037737,"[ 8.28594190e-06  3.00699607e-07  0.00000000e+00  0.00000000e+00
  0.00000000e+00 -7.96949382e-07  3.00699607e-07  6.09663514e-06
  0.00000000e+00  0.00000000e+00  0.00000000e+00 -3.48773867e-07
  0.00000000e+00  0.00000000e+00  0.00000000e+00  0.00000000e+00
  0.00000000e+00  0.00000000e+00  0.00000000e+00  0.00000000e+00
  0.00000000e+00  0.00000000e+00  0.00000000e+00  0.00000000e+00
  0.00000000e+00  0.00000000e+00  0.00000000e+00  0.00000000e+00
  0.00000000e+00  0.00000000e+00 -7.96949382e-07 -3.48773867e-07
  0.00000000e+00  0.00000000e+00  0.00000000e+00  3.44892865e-06]","[[ 6.64830442e-06  3.66176522e-03]
 [-1.51546517e-04  7.79466181e-04]]",[],0.0,0.0
1787562966.1691031,1.8740987964599034,1.35260396204375,2.418779559553159,"[ 7.45442011e-06  1.83996331e-07  0.00000000e+00  0.00000000e+00
  0.00000000e+00 -6.80460806e-07  1.83996331e-07  5.48695150e-06
  0.00000000e+00  0.00000000e+00  0.00000000e+00 -2.82774430e-07
  0.00000000e+00  0.00000000e+00  0.00000000e+00  0.00000000e+00
  0.00000000e+00  0.00000000e+00  0.00000000e+00  0.00000000e+00
  0.00000000e+00  0.00000000e+00  0.00000000e+00  0.00000000e+00
  0.00000000e+00  0.00000000e+00  0.00000000e+00  0.00000000e+00
  0.00000000e+00  0.00000000e+00 -6.80460806e-07 -2.82774430e-07
  0.00000000e+00  0.00000000e+00  0.00000000e+00  3.58177266e-06]","[[ 8.46593127e-06  3.22902069e-03]
 [-1.36514595e-04  6.28077599e-04]]",[],0.0,0.0
1787562966.2170758,1.8740987964599034,1.35260396204375,2.418779559553159,"[ 7.45442011e-06  1.83996331e-07  0.00000000e+00  0.00000000e+00
  0.00000000e+00 -6.80460806e-07  1.83996331e-07  5.48695150e-06
  0.00000000e+00  0.00000000e+00  0.00000000e+00 -2.82774430e-07
  0.00000000e+00  0.00000000e+00  0.00000000e+00  0.00000000e+00
  0.00000000e+00  0.00000000e+00  0.00000000e+00  0.00000000e+00
  0.00000000e+00  0.00000000e+00  0.00000000e+00  0.00000000e+00
  0.00000000e+00  0.00000000e+00  0.00000000e+00  0.00000000e+00
  0.00000000e+00  0.00000000e+00 -6.80460806e-07 -2.82774430e-07
  0.00000000e+00  0.00000000e+00  0.00000000e+00  3.58177266e-06]","[[ 8.46593127e-06  3.22902069e-03]
 [-1.36514595e-04  6.28077599e-04]]",[],0.0,0.0
1787562966.2671697,1.8740987964599034,1.35260396204375,2.418779559553159,"[ 7.45442011e-06  1.83996331e-07  0.00000000e+00  0.00000000e+00
  0.00000000e+00 -6.80460806e-07  1.83996331e-07  5.48695150e-06
  0.00000000e+00  0.00000000e+00  0.00000000e+00 -2.82774430e-07
  0.00000000e+00  0.00000000e+00  0.00000000e+00  0.00000000e+00
  0.00000000e+00  0.00000000e+00  0.00000000e+00  0.00000000e+00
  0.00000000e+00  0.00000000e+00  0.00000000e+00  0.00000000e+00
  0.00000000e+00  0.00000000e+00  0.00000000e+00  0.00000000e+00
  0.00000000e+00  0.00000000e+00 -6.80460806e-07 -2.82774430e-07
  0.00000000e+00  0.00000000e+00  0.00000000e+00  3.58177266e-06]","[[ 8.46593127e-06  3.22902069e-03]
 [-1.36514595e-04  6.28077599e-04]]",[],0.0,0.0
1787562966.3215718,1.8740987964599034,1.35260396204375,2.418779559553159,"[ 7.45442011e-06  1.83996331e-07  0.00000000e+00  0.00000000e+00
  0.00000000e+00 -6.80460806e-07  1.83996331e-07  5.48695150e-06
  0.00000000e+00  0.00000000e+00  0.00000000e+00 -2.82774430e-07
  0.00000000e+00  0.00000000e+00  0.00000000e+00  0.00000000e+00
  0.00000000e+00  0.00000000e+00  0.00000000e+00  0.00000000e+00
  0.00000000e+00  0.00000000e+00  0.00000000e+00  0.00000000e+00
  0.00000000e+00  0.00000000e+00  0.00000000e+00  0.00000000e+00
  0.00000000e+00  0.00000000e+00 -6.80460806e-07 -2.82774430e-07
  0.00000000e+00  0.00000000e+00  0.00000000e+00  3.58177266e-06]","[[ 8.46593127e-06  3.22902069e-03]
 [-1.36514595e-04  6.28077599e-04]]",[],0.0,0.0
1787562966.3724344,1.8740987964599034,1.35260396204375,2.418779559553159,"[ 7.45442011e-06  1.83996331e-07  0.00000000e+00  0.00000000e+00
  0.00000000e+00 -6.80460806e-07  1.83996331e-07  5.48695150e-06
  0.00000000e+00  0.00000000e+00  0.00000000e+00 -2.82774430e-07
  0.00000000e+00  0.00000000e+00  0.00000000e+00  0.00000000e+00
  0.00000000e+00  0.00000000e+00  0.00000000e+00  0.00000000e+00
  0.00000000e+00  0.00000000e+00  0.00000000e+00  0.00000000e+00
  0.00000000e+00  0.00000000e+00  0.00000000e+00  0.00000000e+00
  0.00000000e+00  0.00000000e+00 -6.80460806e-07 -2.82774430e-07
  0.00000000e+00  0.00000000e+00  0.00000000e+00  3.58177266e-06]","[[ 8.46593127e-06  3.22902069e-03]
 [-1.36514595e-04  6.28077599e-04]]",[],0.0,0.0
1787562966.4205635,1.8740987964599034,1.35260396204375,2.418779559553159,"[ 7.45442011e-06  1.83996331e-07  0.00000000e+00  0.00000000e+00
  0.00000000e+00 -6.80460806e-07  1.83996331e-07  5.48695150e-06
  0.00000000e+00  0.00000000e+00  0.00000000e+00 -2.82774430e-07
  0.00000000e+00  0.00000000e+00  0.00000000e+00  0.00000000e+00
  0.00000000e+00  0.00000000e+00  0.00000000e+00  0.00000000e+00
  0.00000000e+00  0.00000000e+00  0.00000000e+00  0.00000000e+00
  0.00000000e+00  0.00000000e+00  0.00000000e+00  0.00000000e+00
  0.00000000e+00  0.00000000e+00 -6.80460806e-07 -2.82774430e-07
  0.00000000e+00  0.00000000e+00  0.00000000e+00  3.58177266e-06]","[[ 8.46593127e-06  3.22902069e-03]
 [-1.36514595e-04  6.28077599e-04]]",[],0.0,0.0
1787562966.468072,1.8740987964599034,1.35260396204375,2.418779559553159,"[ 7.45442011e-06  1.83996331e-07  0.00000000e+00  0.00000000e+00
  0.00000000e+00 -6.80460806e-07  1.83996331e-07  5.48695150e-06
  0.00000000e+00  0.00000000e+00  0.00000000e+00 -2.82774430e-07
  0.00000000e+00  0.00000000e+00  0.00000000e+00  0.00000000e+00
  0.00000000e+00  0.00000000e+00  0.00000000e+00  0.00000000e+00
  0.00000000e+00  0.00000000e+00  0.00000000e+00  0.00000000e+00
  0.00000000e+00  0.00000000e+00  0.00000000e+00  0.00000000e+00
  0.00000000e+00  0.00000000e+00 -6.80460806e-07 -2.82774430e-07
  0.00000000e+00  0.00000000e+00  0.00000000e+00  3.58177266e-06]","[[ 8.46593127e-06  3.22902069e-03]
 [-1.36514595e-04  6.28077599e-04]]",[],0.0,0.0
1787562966.5175285,1.8740987964599034,1.35260396204375,2.418779559553159,"[ 7.45442011e-06  1.83996331e-07  0.00000000e+00  0.00000000e+00
  0.00000000e+00 -6.80460806e-07  1.83996331e-07  5.48695150e-06
  0.00000000e+00  0.00000000e+00  0.00000000e+00 -2.82774430e-07
  0.00000000e+00  0.00000000e+00  0.00000000e+00  0.00000000e+00
  0.00000000e+00  0.00000000e+00  0.00000000e+00  0.00000000e+00
  0.00000000e+00  0.00000000e+00  0.00000000e+00  0.00000000e+00
  0.00000000e+00  0.00000000e+00  0.00000000e+00  0.00000000e+00
  0.00000000e+00  0.00000000e+00 -6.80460806e-07 -2.82774430e-07
  0.00000000e+00  0.00000000e+00  0.00000000e+00  3.58177266e-06]","[[ 8.46593127e-06  3.22902069e-03]
 [-1.36514595e-04  6.28077599e-04]]",[],0.0,0.0
1787562966.5723476,1.8740987964599034,1.35260396204375,2.418779559553159,"[ 7.45442011e-06  1.83996331e-07  0.00000000e+00  0.00000000e+00
  0.00000000e+00 -6.80460806e-07  1.83996331e-07  5.48695150e-06
  0.00000000e+00  0.00000000e+00  0.00000000e+00 -2.82774430e-07
  0.00000000e+00  0.00000000e+00  0.00000000e+00  0.00000000e+00
  0.00000000e+00  0.00000000e+00  0.00000000e+00  0.00000000e+00
  0.00000000e+00  0.00000000e+00  0.00000000e+00  0.00000000e+00
  0.00000000e+00  0.00000000e+00  0.00000000e+00  0.00000000e+00
  0.00000000e+00  0.00000000e+00 -6.80460806e-07 -2.82774430e-07
  0.00000000e+00  0.00000000e+00  0.00000000e+00  3.58177266e-06]","[[ 8.46593127e-06  3.22902069e-03]
 [-1.36514595e-04  6.28077599e-04]]",[],0.0,0.0
1787562966.6170108,1.8740987964599034,1.35260396204375,2.418779559553159,"[ 7.45442011e-06  1.83996331e-07  0.00000000e+00  0.00000000e+00
  0.00000000e+00 -6.80460806e-07  1.83996331e-07  5.48695150e-06
  0.00000000e+00  0.00000000e+00  0.00000000e+00 -2.82774430e-07
  0.00000000e+00  0.00000000e+00  0.00000000e+00  0.00000000e+00
  0.00000000e+00  0.00000000e+00  0.00000000e+00  0.00000000e+00
  0.00000000e+00  0.00000000e+00  0.00000000e+00  0.00000000e+00
  0.00000000e+00  0.00000000e+00  0.00000000e+00  0.00000000e+00
  0.00000000e+00  0.00000000e+00 -6.80460806e-07 -2.82774430e-07
  0.00000000e+00  0.00000000e+00  0.00000000e+00  3.58177266e-06]","[[ 8.46593127e-06  3.22902069e-03]
 [-1.36514595e-04  6.28077599e-04]]",[],0.0,0.0
1787562966.674305,1.8740987964599034,1.35260396204375,2.418779559553159,"[ 7.45442011e-06  1.83996331e-07  0.00000000e+00  0.00000000e+00
  0.00000000e+00 -6.80460806e-07  1.83996331e-07  5.48695150e-06
  0.00000000e+00  0.00000000e+00  0.00000000e+00 -2.82774430e-07
  0.00000000e+00  0.00000000e+00  0.00000000e+00  0.00000000e+00
  0.00000000e+00  0.00000000e+00  0.00000000e+00  0.00000000e+00
  0.00000000e+00  0.00000000e+00  0.00000000e+00  0.00000000e+00
  0.00000000e+00  0.00000000e+00  0.00000000e+00  0.00000000e+00
  0.00000000e+00  0.00000000e+00 -6.80460806e-07 -2.82774430e-07
  0.00000000e+00  0.00000000e+00  0.00000000e+00  3.58177266e-06]","[[ 8.46593127e-06  3.22902069e-03]
 [-1.36514595e-04  6.28077599e-04]]",[],0.0,0.0
1787562966.7362237,1.8740987964599034,1.35260396204375,2.418779559553159,"[ 7.45442011e-06  1.83996331e-07  0.00000000e+00  0.00000000e+00
  0.00000000e+00 -6.80460806e-07  1.83996331e-07  5.48695150e-06
  0.00000000e+00  0.00000000e+00  0.00000000e+00 -2.82774430e-07
  0.00000000e+00  0.00000000e+00  0.00000000e+00  0.00000000e+00
  0.00000000e+00  0.00000000e+00  0.00000000e+00  0.00000000e+00
  0.00000000e+00  0.00000000e+00  0.00000000e+00  0.00000000e+00
  0.00000000e+00  0.00000000e+00  0.00000000e+00  0.00000000e+00
  0.00000000e+00  0.00000000e+00 -6.80460806e-07 -2.82774430e-07
  0.00000000e+00  0.00000000e+00  0.00000000e+00  3.58177266e-06]","[[ 8.46593127e-06  3.22902069e-03]
 [-1.36514595e-04  6.28077599e-04]]",[],0.0,0.0
1787562966.7857466,1.8740987964599034,1.35260396204375,2.418779559553159,"[ 7.45442011e-06  1.83996331e-07  0.00000000e+00  0.00000000e+00
  0.00000000e+00 -6.80460806e-07  1.83996331e-07  5.48695150e-06
  0.00000000e+00  0.00000000e+00  0.00000000e+00 -2.82774430e-07
  0.00000000e+00  0.00000000e+00  0.00000000e+00  0.00000000e+00
  0.00000000e+00  0.00000000e+00  0.00000000e+00  0.00000000e+00
  0.00000000e+00  0.00000000e+00  0.00000000e+00  0.00000000e+00
  0.00000000e+00  0.00000000e+00  0.00000000e+00  0.00000000e+00
  0.00000000e+00  0.00000000e+00 -6.80460806e-07 -2.82774430e-07
  0.00000000e+00  0.00000000e+00  0.00000000e+00  3.58177266e-06]","[[ 8.46593127e-06  3.22902069e-03]
 [-1.36514595e-04  6.28077599e-04]]",[],0.0,0.0
1787562966.8180554,1.8740987964599034,1.35260396204375,2.418779559553159,"[ 7.45442011e-06  1.83996331e-07  0.00000000e+00  0.00000000e+00
  0.00000000e+00 -6.80460806e-07  1.83996331e-07  5.48695150e-06
  0.00000000e+00  0.00000000e+00  0.00000000e+00 -2.82774430e-07
  0.00000000e+00  0.00000000e+00  0.00000000e+00  0.00000000e+00
  0.00000000e+00  0.00000000e+00  0.00000000e+00  0.00000000e+00
  0.00000000e+00  0.00000000e+00  0.00000000e+00  0.00000000e+00
  0.00000000e+00  0.00000000e+00  0.00000000e+00  0.00000000e+00
  0.00000000e+00  0.00000000e+00 -6.80460806e-07 -2.82774430e-07
  0.00000000e+00  0.00000000e+00  0.00000000e+00  3.58177266e-06]","[[ 8.46593127e-06  3.22902069e-03]
 [-1.36514595e-04  6.28077599e-04]]",[],0.0,0.0
1787562966.868852,1.8740987964599034,1.35260396204375,2.418779559553159,"[ 7.45442011e-06  1.83996331e-07  0.00000000e+00  0.00000000e+00
  0.00000000e+00 -6.80460806e-07  1.83996331e-07  5.48695150e-06
  0.00000000e+00  0.00000000e+00  0.00000000e+00 -2.82774430e-07
  0.00000000e+00  0.00000000e+00  0.00000000e+00  0.00000000e+00
  0.00000000e+00  0.00000000e+00  0.00000000e+00  0.00000000e+00
  0.00000000e+00  0.00000000e+00  0.00000000e+00  0.00000000e+00
  0.00000000e+00  0.00000000e+00  0.00000000e+00  0.00000000e+00
  0.00000000e+00  0.00000000e+00 -6.80460806e-07 -2.82774430e-07
  0.00000000e+00  0.00000000e+00  0.00000000e+00  3.58177266e-06]","[[ 8.46593127e-06  3.22902069e-03]
 [-1.36514595e-04  6.28077599e-04]]",[],0.0,0.0
1787562966.9178069,1.8808498931008935,1.3453869161278227,2.430426023281438,"[ 6.81458065e-06  1.11451766e-07  0.00000000e+00  0.00000000e+00
  0.00000000e+00 -6.45959757e-07  1.11451766e-07  5.07240108e-06
  0.00000000e+00  0.00000000e+00  0.00000000e+00 -2.45944195e-07
  0.00000000e+00  0.00000000e+00  0.00000000e+00  0.00000000e+00
  0.00000000e+00  0.00000000e+00  0.00000000e+00  0.00000000e+00
  0.00000000e+00  0.00000000e+00  0.00000000e+00  0.00000000e+00
  0.00000000e+00  0.00000000e+00  0.00000000e+00  0.00000000e+00
  0.00000000e+00  0.00000000e+00 -6.45959757e-07 -2.45944195e-07
  0.00000000e+00  0.00000000e+00  0.00000000e+00  3.79836185e-06]","[[ 1.50202342e-04  2.75115331e-03]
 [-5.55559869e-05  2.79204978e-03]]",[],0.0,0.0
1787562966.9691799,1.8808498931008935,1.3453869161278227,2.430426023281438,"[ 6.81458065e-06  1.11451766e-07  0.00000000e+00  0.00000000e+00
  0.00000000e+00 -6.45959757e-07  1.11451766e-07  5.07240108e-06
  0.00000000e+00  0.00000000e+00  0.00000000e+00 -2.45944195e-07
  0.00000000e+00  0.00000000e+00  0.00000000e+00  0.00000000e+00
  0.00000000e+00  0.00000000e+00  0.00000000e+00  0.00000000e+00
  0.00000000e+00  0.00000000e+00  0.00000000e+00  0.00000000e+00
  0.00000000e+00  0.00000000e+00  0.00000000e+00  0.00000000e+00
  0.00000000e+00  0.00000000e+00 -6.45959757e-07 -2.45944195e-07
  0.00000000e+00  0.00000000e+00  0.00000000e+00  3.79836185e-06]","[[ 1.50202342e-04  2.75115331e-03]
 [-5.55559869e-05  2.79204978e-03]]",[],0.0,0.0
1787562967.0212598,1.8808498931008935,1.3453869161278227,2.430426023281438,"[ 6.81458065e-06  1.11451766e-07  0.00000000e+00  0.00000000e+00
  0.00000000e+00 -6.45959757e-07  1.11451766e-07  5.07240108e-06
  0.00000000e+00  0.00000000e+00  0.00000000e+00 -2.45944195e-07
  0.00000000e+00  0.00000000e+00  0.00000000e+00  0.00000000e+00
  0.00000000e+00  0.00000000e+00  0.00000000e+00  0.00000000e+00
  0.00000000e+00  0.00000000e+00  0.00000000e+00  0.00000000e+00
  0.00000000e+00  0.00000000e+00  0.00000000e+00  0.00000000e+00
  0.00000000e+00  0.00000000e+00 -6.45959757e-07 -2.45944195e-07
  0.00000000e+00  0.00000000e+00  0.00000000e+00  3.79836185e-06]","[[ 1.50202342e-04  2.75115331e-03]
 [-5.55559869e-05  2.79204978e-03]]",[],0.0,0.0
1787562967.0763896,1.8808498931008935,1.3453869161278227,2.430426023281438,"[ 6.81458065e-06  1.11451766e-07  0.00000000e+00  0.00000000e+00
  0.00000000e+00 -6.45959757e-07  1.11451766e-07  5.07240108e-06
  0.00000000e+00  0.00000000e+00  0.00000000e+00 -2.45944195e-07
  0.00000000e+00  0.00000000e+00  0.00000000e+00  0.00000000e+00
  0.00000000e+00  0.00000000e+00  0.00000000e+00  0.00000000e+00
  0.00000000e+00  0.00000000e+00  0.00000000e+00  0.00000000e+00
  0.00000000e+00  0.00000000e+00  0.00000000e+00  0.00000000e+00
  0.00000000e+00  0.00000000e+00 -6.45959757e-07 -2.45944195e-07
  0.00000000e+00  0.00000000e+00  0.00000000e+00  3.79836185e-06]","[[ 1.50202342e-04  2.75115331e-03]
 [-5.55559869e-05  2.79204978e-03]]",[],0.0,0.0
1787562967.1281712,1.8808498931008935,1.3453869161278227,2.430426023281438,"[ 6.81458065e-06  1.11451766e-07  0.00000000e+00  0.00000000e+00
  0.00000000e+00 -6.45959757e-07  1.11451766e-07  5.07240108e-06
  0.00000000e+00  0.00000000e+00  0.00000000e+00 -2.45944195e-07
  0.00000000e+00  0.00000000e+00  0.00000000e+00  0.00000000e+00
  0.00000000e+00  0.00000000e+00  0.00000000e+00  0.00000000e+00
  0.00000000e+00  0.00000000e+00  0.00000000e+00  0.00000000e+00
  0.00000000e+00  0.00000000e+00  0.00000000e+00  0.00000000e+00
  0.00000000e+00  0.00000000e+00 -6.45959757e-07 -2.45944195e-07
  0.00000000e+00  0.00000000e+00  0.00000000e+00  3.79836185e-06]","[[ 1.50202342e-04  2.75115331e-03]
 [-5.55559869e-05  2.79204978e-03]]",[],0.0,0.0
1787562967.1710205,1.8808498931008935,1.3453869161278227,2.430426023281438,"[ 6.81458065e-06  1.11451766e-07  0.00000000e+00  0.00000000e+00
  0.00000000e+00 -6.45959757e-07  1.11451766e-07  5.07240108e-06
  0.00000000e+00  0.00000000e+00  0.00000000e+00 -2.45944195e-07
  0.00000000e+00  0.00000000e+00  0.00000000e+00  0.00000000e+00
  0.00000000e+00  0.00000000e+00  0.00000000e+00  0.00000000e+00
  0.00000000e+00  0.00000000e+00  0.00000000e+00  0.00000000e+00
  0.00000000e+00  0.00000000e+00  0.00000000e+00  0.00000000e+00
  0.00000000e+00  0.00000000e+00 -6.45959757e-07 -2.45944195e-07
  0.00000000e+00  0.00000000e+00  0.00000000e+00  3.79836185e-06]","[[ 1.50202342e-04  2.75115331e-03]
 [-5.55559869e-05  2.79204978e-03]]",[],0.0,0.0
1787562967.2176034,1.8808498931008935,1.3453869161278227,2.430426023281438,"[ 6.81458065e-06  1.11451766e-07  0.00000000e+00  0.00000000e+00
  0.00000000e+00 -6.45959757e-07  1.11451766e-07  5.07240108e-06
  0.00000000e+00  0.00000000e+00  0.00000000e+00 -2.45944195e-07
  0.00000000e+00  0.00000000e+00  0.00000000e+00  0.00000000e+00
  0.00000000e+00  0.00000000e+00  0.00000000e+00  0.00000000e+00
  0.00000000e+00  0.00000000e+00  0.00000000e+00  0.00000000e+00
  0.00000000e+00  0.00000000e+00  0.00000000e+00  0.00000000e+00
  0.00000000e+00  0.00000000e+00 -6.45959757e-07 -2.45944195e-07
  0.00000000e+00  0.00000000e+00  0.00000000e+00  3.79836185e-06]","[[ 1.50202342e-04  2.75115331e-03]
 [-5.55559869e-05  2.79204978e-03]]",[],0.0,0.0
1787562967.2700474,1.8808498931008935,1.3453869161278227,2.430426023281438,"[ 6.81458065e-06  1.11451766e-07  0.00000000e+00  0.00000000e+00
  0.00000000e+00 -6.45959757e-07  1.11451766e-07  5.07240108e-06
  0.00000000e+00  0.00000000e+00  0.00000000e+00 -2.45944195e-07
  0.00000000e+00  0.00000000e+00  0.00000000e+00  0.00000000e+00
  0.00000000e+00  0.00000000e+00  0.00000000e+00  0.00000000e+00
  0.00000000e+00  0.00000000e+00  0.00000000e+00  0.00000000e+00
  0.00000000e+00  0.00000000e+00  0.00000000e+00  0.00000000e+00
  0.00000000e+00  0.00000000e+00 -6.45959757e-07 -2.45944195e-07
  0.00000000e+00  0.00000000e+00  0.00000000e+00  3.79836185e-06]","[[ 1.50202342e-04  2.75115331e-03]
 [-5.55559869e-05  2.79204978e-03]]",[],0.0,0.0
1787562967.3178568,1.8808498931008935,1.3453869161278227,2.430426023281438,"[ 6.81458065e-06  1.11451766e-07  0.00000000e+00  0.00000000e+00
  0.00000000e+00 -6.45959757e-07  1.11451766e-07  5.07240108e-06
  0.00000000e+00  0.00000000e+00  0.00000000e+00 -2.45944195e-07
  0.00000000e+00  0.00000000e+00  0.00000000e+00  0.00000000e+00
  0.00000000e+00  0.00000000e+00  0.00000000e+00  0.00000000e+00
  0.00000000e+00  0.00000000e+00  0.00000000e+00  0.00000000e+00
  0.00000000e+00  0.00000000e+00  0.00000000e+00  0.00000000e+00
  0.00000000e+00  0.00000000e+00 -6.45959757e-07 -2.45944195e-07
  0.00000000e+00  0.00000000e+00  0.00000000e+00  3.79836185e-06]","[[ 1.50202342e-04  2.75115331e-03]
 [-5.55559869e-05  2.79204978e-03]]",[],0.0,0.0
1787562967.3702583,1.8808498931008935,1.3453869161278227,2.430426023281438,"[ 6.81458065e-06  1.11451766e-07  0.00000000e+00  0.00000000e+00
  0.00000000e+00 -6.45959757e-07  1.11451766e-07  5.07240108e-06
  0.00000000e+00  0.00000000e+00  0.00000000e+00 -2.45944195e-07
  0.00000000e+00  0.00000000e+00  0.00000000e+00  0.00000000e+00
  0.00000000e+00  0.00000000e+00  0.00000000e+00  0.00000000e+00
  0.00000000e+00  0.00000000e+00  0.00000000e+00  0.00000000e+00
  0.00000000e+00  0.00000000e+00  0.00000000e+00  0.00000000e+00
  0.00000000e+00  0.00000000e+00 -6.45959757e-07 -2.45944195e-07
  0.00000000e+00  0.00000000e+00  0.00000000e+00  3.79836185e-06]","[[ 1.50202342e-04  2.75115331e-03]
 [-5.55559869e-05  2.79204978e-03]]",[],0.0,0.0
1787562967.4228973,1.8808498931008935,1.3453869161278227,2.430426023281438,"[ 6.81458065e-06  1.11451766e-07  0.00000000e+00  0.00000000e+00
  0.00000000e+00 -6.45959757e-07  1.11451766e-07  5.07240108e-06
  0.00000000e+00  0.00000000e+00  0.00000000e+00 -2.45944195e-07
  0.00000000e+00  0.00000000e+00  0.00000000e+00  0.00000000e+00
  0.00000000e+00  0.00000000e+00  0.00000000e+00  0.00000000e+00
  0.00000000e+00  0.00000000e+00  0.00000000e+00  0.00000000e+00
  0.00000000e+00  0.00000000e+00  0.00000000e+00  0.00000000e+00
  0.00000000e+00  0.00000000e+00 -6.45959757e-07 -2.45944195e-07
  0.00000000e+00  0.00000000e+00  0.00000000e+00  3.79836185e-06]","[[ 1.50202342e-04  2.75115331e-03]
 [-5.55559869e-05  2.79204978e-03]]",[],0.0,0.0
1787562967.4758203,1.8808498931008935,1.3453869161278227,2.430426023281438,"[ 6.81458065e-06  1.11451766e-07  0.00000000e+00  0.00000000e+00
  0.00000000e+00 -6.45959757e-07  1.11451766e-07  5.07240108e-06
  0.00000000e+00  0.00000000e+00  0.00000000e+00 -2.45944195e-07
  0.00000000e+00  0.00000000e+00  0.00000000e+00  0.00000000e+00
  0.00000000e+00  0.00000000e+00  0.00000000e+00  0.00000000e+00
  0.00000000e+00  0.00000000e+00  0.00000000e+00  0.00000000e+00
  0.00000000e+00  0.00000000e+00  0.00000000e+00  0.00000000e+00
  0.00000000e+00  0.00000000e+00 -6.45959757e-07 -2.45944195e-07
  0.00000000e+00  0.00000000e+00  0.00000000e+00  3.79836185e-06]","[[ 1.50202342e-04  2.75115331e-03]
 [-5.55559869e-05  2.79204978e-03]]",[],0.0,0.0
1787562967.5315394,1.8808498931008935,1.3453869161278227,2.430426023281438,"[ 6.81458065e-06  1.11451766e-07  0.00000000e+00  0.00000000e+00
  0.00000000e+00 -6.45959757e-07  1.11451766e-07  5.07240108e-06
  0.00000000e+00  0.00000000e+00  0.00000000e+00 -2.45944195e-07
  0.00000000e+00  0.00000000e+00  0.00000000e+00  0.00000000e+00
  0.00000000e+00  0.00000000e+00  0.00000000e+00  0.00000000e+00
  0.00000000e+00  0.00000000e+00  0.00000000e+00  0.00000000e+00
  0.00000000e+00  0.00000000e+00  0.00000000e+00  0.00000000e+00
  0.00000000e+00  0.00000000e+00 -6.45959757e-07 -2.45944195e-07
  0.00000000e+00  0.00000000e+00  0.00000000e+00  3.79836185e-06]","[[ 1.50202342e-04  2.75115331e-03]
 [-5.55559869e-05  2.79204978e-03]]",[],0.0,0.0
1787562967.5696027,1.8808498931008935,1.3453869161278227,2.430426023281438,"[ 6.81458065e-06  1.11451766e-07  0.00000000e+00  0.00000000e+00
  0.00000000e+00 -6.45959757e-07  1.11451766e-07  5.07240108e-06
  0.00000000e+00  0.00000000e+00  0.00000000e+00 -2.45944195e-07
  0.00000000e+00  0.00000000e+00  0.00000000e+00  0.00000000e+00
  0.00000000e+00  0.00000000e+00  0.00000000e+00  0.00000000e+00
  0.00000000e+00  0.00000000e+00  0.00000000e+00  0.00000000e+00
  0.00000000e+00  0.00000000e+00  0.00000000e+00  0.00000000e+00
  0.00000000e+00  0.00000000e+00 -6.45959757e-07 -2.45944195e-07
  0.00000000e+00  0.00000000e+00  0.00000000e+00  3.79836185e-06]","[[ 1.50202342e-04  2.75115331e-03]
 [-5.55559869e-05  2.79204978e-03]]",[],0.0,0.0
1787562967.617913,1.8808498931008935,1.3453869161278227,2.430426023281438,"[ 6.81458065e-06  1.11451766e-07  0.00000000e+00  0.00000000e+00
  0.00000000e+00 -6.45959757e-07  1.11451766e-07  5.07240108e-06
  0.00000000e+00  0.00000000e+00  0.00000000e+00 -2.45944195e-07
  0.00000000e+00  0.00000000e+00  0.00000000e+00  0.00000000e+00
  0.00000000e+00  0.00000000e+00  0.00000000e+00  0.00000000e+00
  0.00000000e+00  0.00000000e+00  0.00000000e+00  0.00000000e+00
  0.00000000e+00  0.00000000e+00  0.00000000e+00  0.00000000e+00
  0.00000000e+00  0.00000000e+00 -6.45959757e-07 -2.45944195e-07
  0.00000000e+00  0.00000000e+00  0.00000000e+00  3.79836185e-06]","[[ 1.50202342e-04  2.75115331e-03]
 [-5.55559869e-05  2.79204978e-03]]",[],0.0,0.0
1787562967.6672463,1.8854157114959782,1.3374601063286422,2.43385410944427,"[ 6.29198275e-06  6.94031787e-08  0.00000000e+00  0.00000000e+00
  0.00000000e+00 -5.07683416e-07  6.94031787e-08  4.68216894e-06
  0.00000000e+00  0.00000000e+00  0.00000000e+00 -2.43044193e-07
  0.00000000e+00  0.00000000e+00  0.00000000e+00  0.00000000e+00
  0.00000000e+00  0.00000000e+00  0.00000000e+00  0.00000000e+00
  0.00000000e+00  0.00000000e+00  0.00000000e+00  0.00000000e+00
  0.00000000e+00  0.00000000e+00  0.00000000e+00  0.00000000e+00
  0.00000000e+00  0.00000000e+00 -5.07683416e-07 -2.43044193e-07
  0.00000000e+00  0.00000000e+00  0.00000000e+00  3.67549727e-06]","[[ 1.38989680e-04  2.37635045e-03]
 [-5.21359901e-05  2.58816169e-03]]",[],0.0,0.0
1787562967.7307513,1.8854157114959782,1.3374601063286422,2.43385410944427,"[ 6.29198275e-06  6.94031787e-08  0.00000000e+00  0.00000000e+00
  0.00000000e+00 -5.07683416e-07  6.94031787e-08  4.68216894e-06
  0.00000000e+00  0.00000000e+00  0.00000000e+00 -2.43044193e-07
  0.00000000e+00  0.00000000e+00  0.00000000e+00  0.00000000e+00
  0.00000000e+00  0.00000000e+00  0.00000000e+00  0.00000000e+00
  0.00000000e+00  0.00000000e+00  0.00000000e+00  0.00000000e+00
  0.00000000e+00  0.00000000e+00  0.00000000e+00  0.00000000e+00
  0.00000000e+00  0.00000000e+00 -5.07683416e-07 -2.43044193e-07
  0.00000000e+00  0.00000000e+00  0.00000000e+00  3.67549727e-06]","[[ 1.38989680e-04  2.37635045e-03]
 [-5.21359901e-05  2.58816169e-03]]",[],0.0,0.0
1787562967.767368,1.8854157114959782,1.3374601063286422,2.43385410944427,"[ 6.29198275e-06  6.94031787e-08  0.00000000e+00  0.00000000e+00
  0.00000000e+00 -5.07683416e-07  6.94031787e-08  4.68216894e-06
  0.00000000e+00  0.00000000e+00  0.00000000e+00 -2.43044193e-07
  0.00000000e+00  0.00000000e+00  0.00000000e+00  0.00000000e+00
  0.00000000e+00  0.00000000e+00  0.00000000e+00  0.00000000e+00
  0.00000000e+00  0.00000000e+00  0.00000000e+00  0.00000000e+00
  0.00000000e+00  0.00000000e+00  0.00000000e+00  0.00000000e+00
  0.00000000e+00  0.00000000e+00 -5.07683416e-07 -2.43044193e-07
  0.00000000e+00  0.00000000e+00  0.00000000e+00  3.67549727e-06]","[[ 1.38989680e-04  2.37635045e-03]
 [-5.21359901e-05  2.58816169e-03]]",[],0.0,0.0
1787562967.818125,1.8854157114959782,1.3374601063286422,2.43385410944427,"[ 6.29198275e-06  6.94031787e-08  0.00000000e+00  0.00000000e+00
  0.00000000e+00 -5.07683416e-07  6.94031787e-08  4.68216894e-06
  0.00000000e+00  0.00000000e+00  0.00000000e+00 -2.43044193e-07
  0.00000000e+00  0.00000000e+00  0.00000000e+00  0.00000000e+00
  0.00000000e+00  0.00000000e+00  0.00000000e+00  0.00000000e+00
  0.00000000e+00  0.00000000e+00  0.00000000e+00  0.00000000e+00
  0.00000000e+00  0.00000000e+00  0.00000000e+00  0.00000000e+00
  0.00000000e+00  0.00000000e+00 -5.07683416e-07 -2.43044193e-07
  0.00000000e+00  0.00000000e+00  0.00000000e+00  3.67549727e-06]","[[ 1.38989680e-04  2.37635045e-03]
 [-5.21359901e-05  2.58816169e-03]]",[],0.0,0.0
1787562967.870746,1.8854157114959782,1.3374601063286422,2.43385410944427,"[ 6.29198275e-06  6.94031787e-08  0.00000000e+00  0.00000000e+00
  0.00000000e+00 -5.07683416e-07  6.94031787e-08  4.68216894e-06
  0.00000000e+00  0.00000000e+00  0.00000000e+00 -2.43044193e-07
  0.00000000e+00  0.00000000e+00  0.00000000e+00  0.00000000e+00
  0.00000000e+00  0.00000000e+00  0.00000000e+00  0.00000000e+00
  0.00000000e+00  0.00000000e+00  0.00000000e+00  0.00000000e+00
  0.00000000e+00  0.00000000e+00  0.00000000e+00  0.00000000e+00
  0.00000000e+00  0.00000000e+00 -5.07683416e-07 -2.43044193e-07
  0.00000000e+00  0.00000000e+00  0.00000000e+00  3.67549727e-06]","[[ 1.38989680e-04  2.37635045e-03]
 [-5.21359901e-05  2.58816169e-03]]",[],0.0,0.0
1787562967.9299119,1.8854157114959782,1.3374601063286422,2.43385410944427,"[ 6.29198275e-06  6.94031787e-08  0.00000000e+00  0.00000000e+00
  0.00000000e+00 -5.07683416e-07  6.94031787e-08  4.68216894e-06
  0.00000000e+00  0.00000000e+00  0.00000000e+00 -2.43044193e-07
  0.00000000e+00  0.00000000e+00  0.00000000e+00  0.00000000e+00
  0.00000000e+00  0.00000000e+00  0.00000000e+00  0.00000000e+00
  0.00000000e+00  0.00000000e+00  0.00000000e+00  0.00000000e+00
  0.00000000e+00  0.00000000e+00  0.00000000e+00  0.00000000e+00
  0.00000000e+00  0.00000000e+00 -5.07683416e-07 -2.43044193e-07
  0.00000000e+00  0.00000000e+00  0.00000000e+00  3.67549727e-06]","[[ 1.38989680e-04  2.37635045e-03]
 [-5.21359901e-05  2.58816169e-03]]",[],0.0,0.0
1787562967.9716878,1.8854157114959782,1.3374601063286422,2.43385410944427,"[ 6.29198275e-06  6.94031787e-08  0.00000000e+00  0.00000000e+00
  0.00000000e+00 -5.07683416e-07  6.94031787e-08  4.68216894e-06
  0.00000000e+00  0.00000000e+00  0.00000000e+00 -2.43044193e-07
  0.00000000e+00  0.00000000e+00  0.00000000e+00  0.00000000e+00
  0.00000000e+00  0.00000000e+00  0.00000000e+00  0.00000000e+00
  0.00000000e+00  0.00000000e+00  0.00000000e+00  0.00000000e+00
  0.00000000e+00  0.00000000e+00  0.00000000e+00  0.00000000e+00
  0.00000000e+00  0.00000000e+00 -5.07683416e-07 -2.43044193e-07
  0.00000000e+00  0.00000000e+00  0.00000000e+00  3.67549727e-06]","[[ 1.38989680e-04  2.37635045e-03]
 [-5.21359901e-05  2.58816169e-03]]",[],0.0,0.0
1787562968.0187075,1.8854157114959782,1.3374601063286422,2.43385410944427,"[ 6.29198275e-06  6.94031787e-08  0.00000000e+00  0.00000000e+00
  0.00000000e+00 -5.07683416e-07  6.94031787e-08  4.68216894e-06
  0.00000000e+00  0.00000000e+00  0.00000000e+00 -2.43044193e-07
  0.00000000e+00  0.00000000e+00  0.00000000e+00  0.00000000e+00
  0.00000000e+00  0.00000000e+00  0.00000000e+00  0.00000000e+00
  0.00000000e+00  0.00000000e+00  0.00000000e+00  0.00000000e+00
  0.00000000e+00  0.00000000e+00  0.00000000e+00  0.00000000e+00
  0.00000000e+00  0.00000000e+00 -5.07683416e-07 -2.43044193e-07
  0.00000000e+00  0.00000000e+00  0.00000000e+00  3.67549727e-06]","[[ 1.38989680e-04  2.37635045e-03]
 [-5.21359901e-05  2.58816169e-03]]",[],0.0,0.0
1787562968.068385,1.8854157114959782,1.3374601063286422,2.43385410944427,"[ 6.29198275e-06  6.94031787e-08  0.00000000e+00  0.00000000e+00
  0.00000000e+00 -5.07683416e-07  6.94031787e-08  4.68216894e-06
  0.00000000e+00  0.00000000e+00  0.00000000e+00 -2.43044193e-07
  0.00000000e+00  0.00000000e+00  0.00000000e+00  0.00000000e+00
  0.00000000e+00  0.00000000e+00  0.00000000e+00  0.00000000e+00
  0.00000000e+00  0.00000000e+00  0.00000000e+00  0.00000000e+00
  0.00000000e+00  0.00000000e+00  0.00000000e+00  0.00000000e+00
  0.00000000e+00  0.00000000e+00 -5.07683416e-07 -2.43044193e-07
  0.00000000e+00  0.00000000e+00  0.00000000e+00  3.67549727e-06]","[[ 1.38989680e-04  2.37635045e-03]
 [-5.21359901e-05  2.58816169e-03]]",[],0.0,0.0
1787562968.1177354,1.8854157114959782,1.3374601063286422,2.43385410944427,"[ 6.29198275e-06  6.94031787e-08  0.00000000e+00  0.00000000e+00
  0.00000000e+00 -5.07683416e-07  6.94031787e-08  4.68216894e-06
  0.00000000e+00  0.00000000e+00  0.00000000e+00 -2.43044193e-07
  0.00000000e+00  0.00000000e+00  0.00000000e+00  0.00000000e+00
  0.00000000e+00  0.00000000e+00  0.00000000e+00  0.00000000e+00
  0.00000000e+00  0.00000000e+00  0.00000000e+00  0.00000000e+00
  0.00000000e+00  0.00000000e+00  0.00000000e+00  0.00000000e+00
  0.00000000e+00  0.00000000e+00 -5.07683416e-07 -2.43044193e-07
  0.00000000e+00  0.00000000e+00  0.00000000e+00  3.67549727e-06]","[[ 1.38989680e-04  2.37635045e-03]
 [-5.21359901e-05  2.58816169e-03]]",[],0.0,0.0
1787562968.18589,1.8854157114959782,1.3374601063286422,2.43385410944427,"[ 6.29198275e-06  6.94031787e-08  0.00000000e+00  0.00000000e+00
  0.00000000e+00 -5.07683416e-07  6.94031787e-08  4.68216894e-06
  0.00000000e+00  0.00000000e+00  0.00000000e+00 -2.43044193e-07
  0.00000000e+00  0.00000000e+00  0.00000000e+00  0.00000000e+00
  0.00000000e+00  0.00000000e+00  0.00000000e+00  0.00000000e+00
  0.00000000e+00  0.00000000e+00  0.00000000e+00  0.00000000e+00
  0.00000000e+00  0.00000000e+00  0.00000000e+00  0.00000000e+00
  0.00000000e+00  0.00000000e+00 -5.07683416e-07 -2.43044193e-07
  0.00000000e+00  0.00000000e+00  0.00000000e+00  3.67549727e-06]","[[ 1.38989680e-04  2.37635045e-03]
 [-5.21359901e-05  2.58816169e-03]]",[],0.0,0.0
1787562968.234038,1.8854157114959782,1.3374601063286422,2.43385410944427,"[ 6.29198275e-06  6.94031787e-08  0.00000000e+00  0.00000000e+00
  0.00000000e+00 -5.07683416e-07  6.94031787e-08  4.68216894e-06
  0.00000000e+00  0.00000000e+00  0.00000000e+00 -2.43044193e-07
  0.00000000e+00  0.00000000e+00  0.00000000e+00  0.00000000e+00
  0.00000000e+00  0.00000000e+00  0.00000000e+00  0.00000000e+00
  0.00000000e+00  0.00000000e+00  0.00000000e+00  0.00000000e+00
  0.00000000e+00  0.00000000e+00  0.00000000e+00  0.00000000e+00
  0.00000000e+00  0.00000000e+00 -5.07683416e-07 -2.43044193e-07
  0.00000000e+00  0.00000000e+00  0.00000000e+00  3.67549727e-06]","[[ 1.38989680e-04  2.37635045e-03]
 [-5.21359901e-05  2.58816169e-03]]",[],0.0,0.0
1787562968.2695966,1.8854157114959782,1.3374601063286422,2.43385410944427,"[ 6.29198275e-06  6.94031787e-08  0.00000000e+00  0.00000000e+00
  0.00000000e+00 -5.07683416e-07  6.94031787e-08  4.68216894e-06
  0.00000000e+00  0.00000000e+00  0.00000000e+00 -2.43044193e-07
  0.00000000e+00  0.00000000e+00  0.00000000e+00  0.00000000e+00
  0.00000000e+00  0.00000000e+00  0.00000000e+00  0.00000000e+00
  0.00000000e+00  0.00000000e+00  0.00000000e+00  0.00000000e+00
  0.00000000e+00  0.00000000e+00  0.00000000e+00  0.00000000e+00
  0.00000000e+00  0.00000000e+00 -5.07683416e-07 -2.43044193e-07
  0.00000000e+00  0.00000000e+00  0.00000000e+00  3.67549727e-06]","[[ 1.38989680e-04  2.37635045e-03]
 [-5.21359901e-05  2.58816169e-03]]",[],0.0,0.0
1787562968.3200195,1.8854157114959782,1.3374601063286422,2.43385410944427,"[ 6.29198275e-06  6.94031787e-08  0.00000000e+00  0.00000000e+00
  0.00000000e+00 -5.07683416e-07  6.94031787e-08  4.68216894e-06
  0.00000000e+00  0.00000000e+00  0.00000000e+00 -2.43044193e-07
  0.00000000e+00  0.00000000e+00  0.00000000e+00  0.00000000e+00
  0.00000000e+00  0.00000000e+00  0.00000000e+00  0.00000000e+00
  0.00000000e+00  0.00000000e+00  0.00000000e+00  0.00000000e+00
  0.00000000e+00  0.00000000e+00  0.00000000e+00  0.00000000e+00
  0.00000000e+00  0.00000000e+00 -5.07683416e-07 -2.43044193e-07
  0.00000000e+00  0.00000000e+00  0.00000000e+00  3.67549727e-06]","[[ 1.38989680e-04  2.37635045e-03]
 [-5.21359901e-05  2.58816169e-03]]",[],0.0,0.0
1787562968.3674307,1.8854157114959782,1.3374601063286422,2.43385410944427,"[ 6.29198275e-06  6.94031787e-08  0.00000000e+00  0.00000000e+00
  0.00000000e+00 -5.07683416e-07  6.94031787e-08  4.68216894e-06
  0.00000000e+00  0.00000000e+00  0.00000000e+00 -2.43044193e-07
  0.00000000e+00  0.00000000e+00  0.00000000e+00  0.00000000e+00
  0.00000000e+00  0.00000000e+00  0.00000000e+00  0.00000000e+00
  0.00000000e+00  0.00000000e+00  0.00000000e+00  0.00000000e+00
  0.00000000e+00  0.00000000e+00  0.00000000e+00  0.00000000e+00
  0.00000000e+00  0.00000000e+00 -5.07683416e-07 -2.43044193e-07
  0.00000000e+00  0.00000000e+00  0.00000000e+00  3.67549727e-06]","[[ 1.38989680e-04  2.37635045e-03]
 [-5.21359901e-05  2.58816169e-03]]",[],0.0,0.0
1787562968.426309,1.8854157114959782,1.3374601063286422,2.43385410944427,"[ 6.29198275e-06  6.94031787e-08  0.00000000e+00  0.00000000e+00
  0.00000000e+00 -5.07683416e-07  6.94031787e-08  4.68216894e-06
  0.00000000e+00  0.00000000e+00  0.00000000e+00 -2.43044193e-07
  0.00000000e+00  0.00000000e+00  0.00000000e+00  0.00000000e+00
  0.00000000e+00  0.00000000e+00  0.00000000e+00  0.00000000e+00
  0.00000000e+00  0.00000000e+00  0.00000000e+00  0.00000000e+00
  0.00000000e+00  0.00000000e+00  0.00000000e+00  0.00000000e+00
  0.00000000e+00  0.00000000e+00 -5.07683416e-07 -2.43044193e-07
  0.00000000e+00  0.00000000e+00  0.00000000e+00  3.67549727e-06]","[[ 1.38989680e-04  2.37635045e-03]
 [-5.21359901e-05  2.58816169e-03]]",[],0.0,0.0
1787562968.467418,1.8854157114959782,1.3374601063286422,2.43385410944427,"[ 6.29198275e-06  6.94031787e-08  0.00000000e+00  0.00000000e+00
  0.00000000e+00 -5.07683416e-07  6.94031787e-08  4.68216894e-06
  0.00000000e+00  0.00000000e+00  0.00000000e+00 -2.43044193e-07
  0.00000000e+00  0.00000000e+00  0.00000000e+00  0.00000000e+00
  0.00000000e+00  0.00000000e+00  0.00000000e+00  0.00000000e+00
  0.00000000e+00  0.00000000e+00  0.00000000e+00  0.00000000e+00
  0.00000000e+00  0.00000000e+00  0.00000000e+00  0.00000000e+00
  0.00000000e+00  0.00000000e+00 -5.07683416e-07 -2.43044193e-07
  0.00000000e+00  0.00000000e+00  0.00000000e+00  3.67549727e-06]","[[ 1.38989680e-04  2.37635045e-03]
 [-5.21359901e-05  2.58816169e-03]]",[],0.0,0.0
1787562968.5194178,1.8912084187643396,1.33369346497448,2.4368693435120505,"[ 5.83326607e-06 -1.66699716e-09  0.00000000e+00  0.00000000e+00
  0.00000000e+00 -4.85887141e-07 -1.66699716e-09  4.38108056e-06
  0.00000000e+00  0.00000000e+00  0.00000000e+00 -2.21673781e-07
  0.00000000e+00  0.00000000e+00  0.00000000e+00  0.00000000e+00
  0.00000000e+00  0.00000000e+00  0.00000000e+00  0.00000000e+00
  0.00000000e+00  0.00000000e+00  0.00000000e+00  0.00000000e+00
  0.00000000e+00  0.00000000e+00  0.00000000e+00  0.00000000e+00
  0.00000000e+00  0.00000000e+00 -4.85887141e-07 -2.21673781e-07
  0.00000000e+00  0.00000000e+00  0.00000000e+00  3.59539829e-06]","[[ 1.06581610e-05  2.43995708e-03]
 [-1.09239422e-04  4.55885613e-04]]",[],0.0,0.0
1787562968.5670745,1.8912084187643396,1.33369346497448,2.4368693435120505,"[ 5.83326607e-06 -1.66699716e-09  0.00000000e+00  0.00000000e+00
  0.00000000e+00 -4.85887141e-07 -1.66699716e-09  4.38108056e-06
  0.00000000e+00  0.00000000e+00  0.00000000e+00 -2.21673781e-07
  0.00000000e+00  0.00000000e+00  0.00000000e+00  0.00000000e+00
  0.00000000e+00  0.00000000e+00  0.00000000e+00  0.00000000e+00
  0.00000000e+00  0.00000000e+00  0.00000000e+00  0.00000000e+00
  0.00000000e+00  0.00000000e+00  0.00000000e+00  0.00000000e+00
  0.00000000e+00  0.00000000e+00 -4.85887141e-07 -2.21673781e-07
  0.00000000e+00  0.00000000e+00  0.00000000e+00  3.59539829e-06]","[[ 1.06581610e-05  2.43995708e-03]
 [-1.09239422e-04  4.55885613e-04]]",[],0.0,0.0
1787562968.6211886,1.8912084187643396,1.33369346497448,2.4368693435120505,"[ 5.83326607e-06 -1.66699716e-09  0.00000000e+00  0.00000000e+00
  0.00000000e+00 -4.85887141e-07 -1.66699716e-09  4.38108056e-06
  0.00000000e+00  0.00000000e+00  0.00000000e+00 -2.21673781e-07
  0.00000000e+00  0.00000000e+00  0.00000000e+00  0.00000000e+00
  0.00000000e+00  0.00000000e+00  0.00000000e+00  0.00000000e+00
  0.00000000e+00  0.00000000e+00  0.00000000e+00  0.00000000e+00
  0.00000000e+00  0.00000000e+00  0.00000000e+00  0.00000000e+00
  0.00000000e+00  0.00000000e+00 -4.85887141e-07 -2.21673781e-07
  0.00000000e+00  0.00000000e+00  0.00000000e+00  3.59539829e-06]","[[ 1.06581610e-05  2.43995708e-03]
 [-1.09239422e-04  4.55885613e-04]]",[],0.0,0.0
1787562968.6777053,1.8912084187643396,1.33369346497448,2.4368693435120505,"[ 5.83326607e-06 -1.66699716e-09  0.00000000e+00  0.00000000e+00
  0.00000000e+00 -4.85887141e-07 -1.66699716e-09  4.38108056e-06
  0.00000000e+00  0.00000000e+00  0.00000000e+00 -2.21673781e-07
  0.00000000e+00  0.00000000e+00  0.00000000e+00  0.00000000e+00
  0.00000000e+00  0.00000000e+00  0.00000000e+00  0.00000000e+00
  0.00000000e+00  0.00000000e+00  0.00000000e+00  0.00000000e+00
  0.00000000e+00  0.00000000e+00  0.00000000e+00  0.00000000e+00
  0.00000000e+00  0.00000000e+00 -4.85887141e-07 -2.21673781e-07
  0.00000000e+00  0.00000000e+00  0.00000000e+00  3.59539829e-06]","[[ 1.06581610e-05  2.43995708e-03]
 [-1.09239422e-04  4.55885613e-04]]",[],0.0,0.0
1787562968.7181635,1.8912084187643396,1.33369346497448,2.4368693435120505,"[ 5.83326607e-06 -1.66699716e-09  0.00000000e+00  0.00000000e+00
  0.00000000e+00 -4.85887141e-07 -1.66699716e-09  4.38108056e-06
  0.00000000e+00  0.00000000e+00  0.00000000e+00 -2.21673781e-07
  0.00000000e+00  0.00000000e+00  0.00000000e+00  0.00000000e+00
  0.00000000e+00  0.00000000e+00  0.00000000e+00  0.00000000e+00
  0.00000000e+00  0.00000000e+00  0.00000000e+00  0.00000000e+00
  0.00000000e+00  0.00000000e+00  0.00000000e+00  0.00000000e+00
  0.00000000e+00  0.00000000e+00 -4.85887141e-07 -2.21673781e-07
  0.00000000e+00  0.00000000e+00  0.00000000e+00  3.59539829e-06]","[[ 1.06581610e-05  2.43995708e-03]
 [-1.09239422e-04  4.55885613e-04]]",[],0.0,0.0
1787562968.7678638,1.8912084187643396,1.33369346497448,2.4368693435120505,"[ 5.83326607e-06 -1.66699716e-09  0.00000000e+00  0.00000000e+00
  0.00000000e+00 -4.85887141e-07 -1.66699716e-09  4.38108056e-06
  0.00000000e+00  0.00000000e+00  0.00000000e+00 -2.21673781e-07
  0.00000000e+00  0.00000000e+00  0.00000000e+00  0.00000000e+00
  0.00000000e+00  0.00000000e+00  0.00000000e+00  0.00000000e+00
  0.00000000e+00  0.00000000e+00  0.00000000e+00  0.00000000e+00
  0.00000000e+00  0.00000000e+00  0.00000000e+00  0.00000000e+00
  0.00000000e+00  0.00000000e+00 -4.85887141e-07 -2.21673781e-07
  0.00000000e+00  0.00000000e+00  0.00000000e+00  3.59539829e-06]","[[ 1.06581610e-05  2.43995708e-03]
 [-1.09239422e-04  4.55885613e-04]]",[],0.0,0.0
1787562968.8208263,1.8912084187643396,1.33369346497448,2.4368693435120505,"[ 5.83326607e-06 -1.66699716e-09  0.00000000e+00  0.00000000e+00
  0.00000000e+00 -4.85887141e-07 -1.66699716e-09  4.38108056e-06
  0.00000000e+00  0.00000000e+00  0.00000000e+00 -2.21673781e-07
  0.00000000e+00  0.00000000e+00  0.00000000e+00  0.00000000e+00
  0.00000000e+00  0.00000000e+00  0.00000000e+00  0.00000000e+00
  0.00000000e+00  0.00000000e+00  0.00000000e+00  0.00000000e+00
  0.00000000e+00  0.00000000e+00  0.00000000e+00  0.00000000e+00
  0.00000000e+00  0.00000000e+00 -4.85887141e-07 -2.21673781e-07
  0.00000000e+00  0.00000000e+00  0.00000000e+00  3.59539829e-06]","[[ 1.06581610e-05  2.43995708e-03]
 [-1.09239422e-04  4.55885613e-04]]",[],0.0,0.0
1787562968.9012778,1.8912084187643396,1.33369346497448,2.4368693435120505,"[ 5.83326607e-06 -1.66699716e-09  0.00000000e+00  0.00000000e+00
  0.00000000e+00 -4.85887141e-07 -1.66699716e-09  4.38108056e-06
  0.00000000e+00  0.00000000e+00  0.00000000e+00 -2.21673781e-07
  0.00000000e+00  0.00000000e+00  0.00000000e+00  0.00000000e+00
  0.00000000e+00  0.00000000e+00  0.00000000e+00  0.00000000e+00
  0.00000000e+00  0.00000000e+00  0.00000000e+00  0.00000000e+00
  0.00000000e+00  0.00000000e+00  0.00000000e+00  0.00000000e+00
  0.00000000e+00  0.00000000e+00 -4.85887141e-07 -2.21673781e-07
  0.00000000e+00  0.00000000e+00  0.00000000e+00  3.59539829e-06]","[[ 1.06581610e-05  2.43995708e-03]
 [-1.09239422e-04  4.55885613e-04]]",[],0.0,0.0
1787562968.9290946,1.8912084187643396,1.33369346497448,2.4368693435120505,"[ 5.83326607e-06 -1.66699716e-09  0.00000000e+00  0.00000000e+00
  0.00000000e+00 -4.85887141e-07 -1.66699716e-09  4.38108056e-06
  0.00000000e+00  0.00000000e+00  0.00000000e+00 -2.21673781e-07
  0.00000000e+00  0.00000000e+00  0.00000000e+00  0.00000000e+00
  0.00000000e+00  0.00000000e+00  0.00000000e+00  0.00000000e+00
  0.00000000e+00  0.00000000e+00  0.00000000e+00  0.00000000e+00
  0.00000000e+00  0.00000000e+00  0.00000000e+00  0.00000000e+00
  0.00000000e+00  0.00000000e+00 -4.85887141e-07 -2.21673781e-07
  0.00000000e+00  0.00000000e+00  0.00000000e+00  3.59539829e-06]","[[ 1.06581610e-05  2.43995708e-03]
 [-1.09239422e-04  4.55885613e-04]]",[],0.0,0.0
1787562968.9671214,1.8912084187643396,1.33369346497448,2.4368693435120505,"[ 5.83326607e-06 -1.66699716e-09  0.00000000e+00  0.00000000e+00
  0.00000000e+00 -4.85887141e-07 -1.66699716e-09  4.38108056e-06
  0.00000000e+00  0.00000000e+00  0.00000000e+00 -2.21673781e-07
  0.00000000e+00  0.00000000e+00  0.00000000e+00  0.00000000e+00
  0.00000000e+00  0.00000000e+00  0.00000000e+00  0.00000000e+00
  0.00000000e+00  0.00000000e+00  0.00000000e+00  0.00000000e+00
  0.00000000e+00  0.00000000e+00  0.00000000e+00  0.00000000e+00
  0.00000000e+00  0.00000000e+00 -4.85887141e-07 -2.21673781e-07
  0.00000000e+00  0.00000000e+00  0.00000000e+00  3.59539829e-06]","[[ 1.06581610e-05  2.43995708e-03]
 [-1.09239422e-04  4.55885613e-04]]",[],0.0,0.0
1787562969.0178082,1.8912084187643396,1.33369346497448,2.4368693435120505,"[ 5.83326607e-06 -1.66699716e-09  0.00000000e+00  0.00000000e+00
  0.00000000e+00 -4.85887141e-07 -1.66699716e-09  4.38108056e-06
  0.00000000e+00  0.00000000e+00  0.00000000e+00 -2.21673781e-07
  0.00000000e+00  0.00000000e+00  0.00000000e+00  0.00000000e+00
  0.00000000e+00  0.00000000e+00  0.00000000e+00  0.00000000e+00
  0.00000000e+00  0.00000000e+00  0.00000000e+00  0.00000000e+00
  0.00000000e+00  0.00000000e+00  0.00000000e+00  0.00000000e+00
  0.00000000e+00  0.00000000e+00 -4.85887141e-07 -2.21673781e-07
  0.00000000e+00  0.00000000e+00  0.00000000e+00  3.59539829e-06]","[[ 1.06581610e-05  2.43995708e-03]
 [-1.09239422e-04  4.55885613e-04]]",[],0.0,0.0
1787562969.0781147,1.8912084187643396,1.33369346497448,2.4368693435120505,"[ 5.83326607e-06 -1.66699716e-09  0.00000000e+00  0.00000000e+00
  0.00000000e+00 -4.85887141e-07 -1.66699716e-09  4.38108056e-06
  0.00000000e+00  0.00000000e+00  0.00000000e+00 -2.21673781e-07
  0.00000000e+00  0.00000000e+00  0.00000000e+00  0.00000000e+00
  0.00000000e+00  0.00000000e+00  0.00000000e+00  0.00000000e+00
  0.00000000e+00  0.00000000e+00  0.00000000e+00  0.00000000e+00
  0.00000000e+00  0.00000000e+00  0.00000000e+00  0.00000000e+00
  0.00000000e+00  0.00000000e+00 -4.85887141e-07 -2.21673781e-07
  0.00000000e+00  0.00000000e+00  0.00000000e+00  3.59539829e-06]","[[ 1.06581610e-05  2.43995708e-03]
 [-1.09239422e-04  4.55885613e-04]]",[],0.0,0.0
1787562969.1181333,1.8912084187643396,1.33369346497448,2.4368693435120505,"[ 5.83326607e-06 -1.66699716e-09  0.00000000e+00  0.00000000e+00
  0.00000000e+00 -4.85887141e-07 -1.66699716e-09  4.38108056e-06
  0.00000000e+00  0.00000000e+00  0.00000000e+00 -2.21673781e-07
  0.00000000e+00  0.00000000e+00  0.00000000e+00  0.00000000e+00
  0.00000000e+00  0.00000000e+00  0.00000000e+00  0.00000000e+00
  0.00000000e+00  0.00000000e+00  0.00000000e+00  0.00000000e+00
  0.00000000e+00  0.00000000e+00  0.00000000e+00  0.00000000e+00
  0.00000000e+00  0.00000000e+00 -4.85887141e-07 -2.21673781e-07
  0.00000000e+00  0.00000000e+00  0.00000000e+00  3.59539829e-06]","[[ 1.06581610e-05  2.43995708e-03]
 [-1.09239422e-04  4.55885613e-04]]",[],0.0,0.0
1787562969.1722713,1.8965554942719411,1.3287823139491621,2.439140382719753,"[ 5.42091757e-06 -2.28767476e-08  0.00000000e+00  0.00000000e+00
  0.00000000e+00 -4.99227052e-07 -2.28767476e-08  4.08019722e-06
  0.00000000e+00  0.00000000e+00  0.00000000e+00 -1.98468838e-07
  0.00000000e+00  0.00000000e+00  0.00000000e+00  0.00000000e+00
  0.00000000e+00  0.00000000e+00  0.00000000e+00  0.00000000e+00
  0.00000000e+00  0.00000000e+00  0.00000000e+00  0.00000000e+00
  0.00000000e+00  0.00000000e+00  0.00000000e+00  0.00000000e+00
  0.00000000e+00  0.00000000e+00 -4.99227052e-07 -1.98468838e-07
  0.00000000e+00  0.00000000e+00  0.00000000e+00  3.33890728e-06]","[[ 1.20586346e-04  2.10987675e-03]
 [-4.74448605e-05  2.20307219e-03]]",[],0.0,0.0
1787562969.2183108,1.8965554942719411,1.3287823139491621,2.439140382719753,"[ 5.42091757e-06 -2.28767476e-08  0.00000000e+00  0.00000000e+00
  0.00000000e+00 -4.99227052e-07 -2.28767476e-08  4.08019722e-06
  0.00000000e+00  0.00000000e+00  0.00000000e+00 -1.98468838e-07
  0.00000000e+00  0.00000000e+00  0.00000000e+00  0.00000000e+00
  0.00000000e+00  0.00000000e+00  0.00000000e+00  0.00000000e+00
  0.00000000e+00  0.00000000e+00  0.00000000e+00  0.00000000e+00
  0.00000000e+00  0.00000000e+00  0.00000000e+00  0.00000000e+00
  0.00000000e+00  0.00000000e+00 -4.99227052e-07 -1.98468838e-07
  0.00000000e+00  0.00000000e+00  0.00000000e+00  3.33890728e-06]","[[ 1.20586346e-04  2.10987675e-03]
 [-4.74448605e-05  2.20307219e-03]]",[],0.0,0.0
1787562969.2733696,1.8965554942719411,1.3287823139491621,2.439140382719753,"[ 5.42091757e-06 -2.28767476e-08  0.00000000e+00  0.00000000e+00
  0.00000000e+00 -4.99227052e-07 -2.28767476e-08  4.08019722e-06
  0.00000000e+00  0.00000000e+00  0.00000000e+00 -1.98468838e-07
  0.00000000e+00  0.00000000e+00  0.00000000e+00  0.00000000e+00
  0.00000000e+00  0.00000000e+00  0.00000000e+00  0.00000000e+00
  0.00000000e+00  0.00000000e+00  0.00000000e+00  0.00000000e+00
  0.00000000e+00  0.00000000e+00  0.00000000e+00  0.00000000e+00
  0.00000000e+00  0.00000000e+00 -4.99227052e-07 -1.98468838e-07
  0.00000000e+00  0.00000000e+00  0.00000000e+00  3.33890728e-06]","[[ 1.20586346e-04  2.10987675e-03]
 [-4.74448605e-05  2.20307219e-03]]",[],0.0,0.0
1787562969.3327527,1.8965554942719411,1.3287823139491621,2.439140382719753,"[ 5.42091757e-06 -2.28767476e-08  0.00000000e+00  0.00000000e+00
  0.00000000e+00 -4.99227052e-07 -2.28767476e-08  4.08019722e-06
  0.00000000e+00  0.00000000e+00  0.00000000e+00 -1.98468838e-07
  0.00000000e+00  0.00000000e+00  0.00000000e+00  0.00000000e+00
  0.00000000e+00  0.00000000e+00  0.00000000e+00  0.00000000e+00
  0.00000000e+00  0.00000000e+00  0.00000000e+00  0.00000000e+00
  0.00000000e+00  0.00000000e+00  0.00000000e+00  0.00000000e+00
  0.00000000e+00  0.00000000e+00 -4.99227052e-07 -1.98468838e-07
  0.00000000e+00  0.00000000e+00  0.00000000e+00  3.33890728e-06]","[[ 1.20586346e-04  2.10987675e-03]
 [-4.74448605e-05  2.20307219e-03]]",[],0.0,0.0
1787562969.3675537,1.8965554942719411,1.3287823139491621,2.439140382719753,"[ 5.42091757e-06 -2.28767476e-08  0.00000000e+00  0.00000000e+00
  0.00000000e+00 -4.99227052e-07 -2.28767476e-08  4.08019722e-06
  0.00000000e+00  0.00000000e+00  0.00000000e+00 -1.98468838e-07
  0.00000000e+00  0.00000000e+00  0.00000000e+00  0.00000000e+00
  0.00000000e+00  0.00000000e+00  0.00000000e+00  0.00000000e+00
  0.00000000e+00  0.00000000e+00  0.00000000e+00  0.00000000e+00
  0.00000000e+00  0.00000000e+00  0.00000000e+00  0.00000000e+00
  0.00000000e+00  0.00000000e+00 -4.99227052e-07 -1.98468838e-07
  0.00000000e+00  0.00000000e+00  0.00000000e+00  3.33890728e-06]","[[ 1.20586346e-04  2.10987675e-03]
 [-4.74448605e-05  2.20307219e-03]]",[],0.0,0.0
1787562969.422092,1.8965554942719411,1.3287823139491621,2.439140382719753,"[ 5.42091757e-06 -2.28767476e-08  0.00000000e+00  0.00000000e+00
  0.00000000e+00 -4.99227052e-07 -2.28767476e-08  4.08019722e-06
  0.00000000e+00  0.00000000e+00  0.00000000e+00 -1.98468838e-07
  0.00000000e+00  0.00000000e+00  0.00000000e+00  0.00000000e+00
  0.00000000e+00  0.00000000e+00  0.00000000e+00  0.00000000e+00
  0.00000000e+00  0.00000000e+00  0.00000000e+00  0.00000000e+00
  0.00000000e+00  0.00000000e+00  0.00000000e+00  0.00000000e+00
  0.00000000e+00  0.00000000e+00 -4.99227052e-07 -1.98468838e-07
  0.00000000e+00  0.00000000e+00  0.00000000e+00  3.33890728e-06]","[[ 1.20586346e-04  2.10987675e-03]
 [-4.74448605e-05  2.20307219e-03]]",[],0.0,0.0
1787562969.4677312,1.8965554942719411,1.3287823139491621,2.439140382719753,"[ 5.42091757e-06 -2.28767476e-08  0.00000000e+00  0.00000000e+00
  0.00000000e+00 -4.99227052e-07 -2.28767476e-08  4.08019722e-06
  0.00000000e+00  0.00000000e+00  0.00000000e+00 -1.98468838e-07
  0.00000000e+00  0.00000000e+00  0.00000000e+00  0.00000000e+00
  0.00000000e+00  0.00000000e+00  0.00000000e+00  0.00000000e+00
  0.00000000e+00  0.00000000e+00  0.00000000e+00  0.00000000e+00
  0.00000000e+00  0.00000000e+00  0.00000000e+00  0.00000000e+00
  0.00000000e+00  0.00000000e+00 -4.99227052e-07 -1.98468838e-07
  0.00000000e+00  0.00000000e+00  0.00000000e+00  3.33890728e-06]","[[ 1.20586346e-04  2.10987675e-03]
 [-4.74448605e-05  2.20307219e-03]]",[],0.0,0.0
1787562969.5281477,1.8965554942719411,1.3287823139491621,2.439140382719753,"[ 5.42091757e-06 -2.28767476e-08  0.00000000e+00  0.00000000e+00
  0.00000000e+00 -4.99227052e-07 -2.28767476e-08  4.08019722e-06
  0.00000000e+00  0.00000000e+00  0.00000000e+00 -1.98468838e-07
  0.00000000e+00  0.00000000e+00  0.00000000e+00  0.00000000e+00
  0.00000000e+00  0.00000000e+00  0.00000000e+00  0.00000000e+00
  0.00000000e+00  0.00000000e+00  0.00000000e+00  0.00000000e+00
  0.00000000e+00  0.00000000e+00  0.00000000e+00  0.00000000e+00
  0.00000000e+00  0.00000000e+00 -4.99227052e-07 -1.98468838e-07
  0.00000000e+00  0.00000000e+00  0.00000000e+00  3.33890728e-06]","[[ 1.20586346e-04  2.10987675e-03]
 [-4.74448605e-05  2.20307219e-03]]",[],0.0,0.0
1787562969.5675433,1.8965554942719411,1.3287823139491621,2.439140382719753,"[ 5.42091757e-06 -2.28767476e-08  0.00000000e+00  0.00000000e+00
  0.00000000e+00 -4.99227052e-07 -2.28767476e-08  4.08019722e-06
  0.00000000e+00  0.00000000e+00  0.00000000e+00 -1.98468838e-07
  0.00000000e+00  0.00000000e+00  0.00000000e+00  0.00000000e+00
  0.00000000e+00  0.00000000e+00  0.00000000e+00  0.00000000e+00
  0.00000000e+00  0.00000000e+00  0.00000000e+00  0.00000000e+00
  0.00000000e+00  0.00000000e+00  0.00000000e+00  0.00000000e+00
  0.00000000e+00  0.00000000e+00 -4.99227052e-07 -1.98468838e-07
  0.00000000e+00  0.00000000e+00  0.00000000e+00  3.33890728e-06]","[[ 1.20586346e-04  2.10987675e-03]
 [-4.74448605e-05  2.20307219e-03]]",[],0.0,0.0
1787562969.6173346,1.8965554942719411,1.3287823139491621,2.439140382719753,"[ 5.42091757e-06 -2.28767476e-08  0.00000000e+00  0.00000000e+00
  0.00000000e+00 -4.99227052e-07 -2.28767476e-08  4.08019722e-06
  0.00000000e+00  0.00000000e+00  0.00000000e+00 -1.98468838e-07
  0.00000000e+00  0.00000000e+00  0.00000000e+00  0.00000000e+00
  0.00000000e+00  0.00000000e+00  0.00000000e+00  0.00000000e+00
  0.00000000e+00  0.00000000e+00  0.00000000e+00  0.00000000e+00
  0.00000000e+00  0.00000000e+00  0.00000000e+00  0.00000000e+00
  0.00000000e+00  0.00000000e+00 -4.99227052e-07 -1.98468838e-07
  0.00000000e+00  0.00000000e+00  0.00000000e+00  3.33890728e-06]","[[ 1.20586346e-04  2.10987675e-03]
 [-4.74448605e-05  2.20307219e-03]]",[],0.0,0.0
1787562969.669972,1.8965554942719411,1.3287823139491621,2.439140382719753,"[ 5.42091757e-06 -2.28767476e-08  0.00000000e+00  0.00000000e+00
  0.00000000e+00 -4.99227052e-07 -2.28767476e-08  4.08019722e-06
  0.00000000e+00  0.00000000e+00  0.00000000e+00 -1.98468838e-07
  0.00000000e+00  0.00000000e+00  0.00000000e+00  0.00000000e+00
  0.00000000e+00  0.00000000e+00  0.00000000e+00  0.00000000e+00
  0.00000000e+00  0.00000000e+00  0.00000000e+00  0.00000000e+00
  0.00000000e+00  0.00000000e+00  0.00000000e+00  0.00000000e+00
  0.00000000e+00  0.00000000e+00 -4.99227052e-07 -1.98468838e-07
  0.00000000e+00  0.00000000e+00  0.00000000e+00  3.33890728e-06]","[[ 1.20586346e-04  2.10987675e-03]
 [-4.74448605e-05  2.20307219e-03]]",[],0.0,0.0
1787562969.7317843,1.8965554942719411,1.3287823139491621,2.439140382719753,"[ 5.42091757e-06 -2.28767476e-08  0.00000000e+00  0.00000000e+00
  0.00000000e+00 -4.99227052e-07 -2.28767476e-08  4.08019722e-06
  0.00000000e+00  0.00000000e+00  0.00000000e+00 -1.98468838e-07
  0.00000000e+00  0.00000000e+00  0.00000000e+00  0.00000000e+00
  0.00000000e+00  0.00000000e+00  0.00000000e+00  0.00000000e+00
  0.00000000e+00  0.00000000e+00  0.00000000e+00  0.00000000e+00
  0.00000000e+00  0.00000000e+00  0.00000000e+00  0.00000000e+00
  0.00000000e+00  0.00000000e+00 -4.99227052e-07 -1.98468838e-07
  0.00000000e+00  0.00000000e+00  0.00000000e+00  3.33890728e-06]","[[ 1.20586346e-04  2.10987675e-03]
 [-4.74448605e-05  2.20307219e-03]]",[],0.0,0.0
1787562969.781732,1.8965554942719411,1.3287823139491621,2.439140382719753,"[ 5.42091757e-06 -2.28767476e-08  0.00000000e+00  0.00000000e+00
  0.00000000e+00 -4.99227052e-07 -2.28767476e-08  4.08019722e-06
  0.00000000e+00  0.00000000e+00  0.00000000e+00 -1.98468838e-07
  0.00000000e+00  0.00000000e+00  0.00000000e+00  0.00000000e+00
  0.00000000e+00  0.00000000e+00  0.00000000e+00  0.00000000e+00
  0.00000000e+00  0.00000000e+00  0.00000000e+00  0.00000000e+00
  0.00000000e+00  0.00000000e+00  0.00000000e+00  0.00000000e+00
  0.00000000e+00  0.00000000e+00 -4.99227052e-07 -1.98468838e-07
  0.00000000e+00  0.00000000e+00  0.00000000e+00  3.33890728e-06]","[[ 1.20586346e-04  2.10987675e-03]
 [-4.74448605e-05  2.20307219e-03]]",[],0.0,0.0
1787562969.8207047,1.8965554942719411,1.3287823139491621,2.439140382719753,"[ 5.42091757e-06 -2.28767476e-08  0.00000000e+00  0.00000000e+00
  0.00000000e+00 -4.99227052e-07 -2.28767476e-08  4.08019722e-06
  0.00000000e+00  0.00000000e+00  0.00000000e+00 -1.98468838e-07
  0.00000000e+00  0.00000000e+00  0.00000000e+00  0.00000000e+00
  0.00000000e+00  0.00000000e+00  0.00000000e+00  0.00000000e+00
  0.00000000e+00  0.00000000e+00  0.00000000e+00  0.00000000e+00
  0.00000000e+00  0.00000000e+00  0.00000000e+00  0.00000000e+00
  0.00000000e+00  0.00000000e+00 -4.99227052e-07 -1.98468838e-07
  0.00000000e+00  0.00000000e+00  0.00000000e+00  3.33890728e-06]","[[ 1.20586346e-04  2.10987675e-03]
 [-4.74448605e-05  2.20307219e-03]]",[],0.0,0.0
1787562969.8675594,1.8965554942719411,1.3287823139491621,2.439140382719753,"[ 5.42091757e-06 -2.28767476e-08  0.00000000e+00  0.00000000e+00
  0.00000000e+00 -4.99227052e-07 -2.28767476e-08  4.08019722e-06
  0.00000000e+00  0.00000000e+00  0.00000000e+00 -1.98468838e-07
  0.00000000e+00  0.00000000e+00  0.00000000e+00  0.00000000e+00
  0.00000000e+00  0.00000000e+00  0.00000000e+00  0.00000000e+00
  0.00000000e+00  0.00000000e+00  0.00000000e+00  0.00000000e+00
  0.00000000e+00  0.00000000e+00  0.00000000e+00  0.00000000e+00
  0.00000000e+00  0.00000000e+00 -4.99227052e-07 -1.98468838e-07
  0.00000000e+00  0.00000000e+00  0.00000000e+00  3.33890728e-06]","[[ 1.20586346e-04  2.10987675e-03]
 [-4.74448605e-05  2.20307219e-03]]",[],0.0,0.0
1787562969.918969,1.902747608626657,1.3254836723015564,2.4248757399884235,"[ 5.11063677e-06 -6.87420835e-08  0.00000000e+00  0.00000000e+00
  0.00000000e+00 -4.50468181e-07 -6.87420835e-08  3.87434536e-06
  0.00000000e+00  0.00000000e+00  0.00000000e+00 -1.72427139e-07
  0.00000000e+00  0.00000000e+00  0.00000000e+00  0.00000000e+00
  0.00000000e+00  0.00000000e+00  0.00000000e+00  0.00000000e+00
  0.00000000e+00  0.00000000e+00  0.00000000e+00  0.00000000e+00
  0.00000000e+00  0.00000000e+00  0.00000000e+00  0.00000000e+00
  0.00000000e+00  0.00000000e+00 -4.50468181e-07 -1.72427139e-07
  0.00000000e+00  0.00000000e+00  0.00000000e+00  3.71769487e-06]","[[ 1.12418529e-05  2.17476373e-03]
 [-9.67170858e-05  3.47076711e-04]]",[],0.0,0.0
1787562969.9672549,1.902747608626657,1.3254836723015564,2.4248757399884235,"[ 5.11063677e-06 -6.87420835e-08  0.00000000e+00  0.00000000e+00
  0.00000000e+00 -4.50468181e-07 -6.87420835e-08  3.87434536e-06
  0.00000000e+00  0.00000000e+00  0.00000000e+00 -1.72427139e-07
  0.00000000e+00  0.00000000e+00  0.00000000e+00  0.00000000e+00
  0.00000000e+00  0.00000000e+00  0.00000000e+00  0.00000000e+00
  0.00000000e+00  0.00000000e+00  0.00000000e+00  0.00000000e+00
  0.00000000e+00  0.00000000e+00  0.00000000e+00  0.00000000e+00
  0.00000000e+00  0.00000000e+00 -4.50468181e-07 -1.72427139e-07
  0.00000000e+00  0.00000000e+00  0.00000000e+00  3.71769487e-06]","[[ 1.12418529e-05  2.17476373e-03]
 [-9.67170858e-05  3.47076711e-04]]",[],0.0,0.0
1787562970.017223,1.902747608626657,1.3254836723015564,2.4248757399884235,"[ 5.11063677e-06 -6.87420835e-08  0.00000000e+00  0.00000000e+00
  0.00000000e+00 -4.50468181e-07 -6.87420835e-08  3.87434536e-06
  0.00000000e+00  0.00000000e+00  0.00000000e+00 -1.72427139e-07
  0.00000000e+00  0.00000000e+00  0.00000000e+00  0.00000000e+00
  0.00000000e+00  0.00000000e+00  0.00000000e+00  0.00000000e+00
  0.00000000e+00  0.00000000e+00  0.00000000e+00  0.00000000e+00
  0.00000000e+00  0.00000000e+00  0.00000000e+00  0.00000000e+00
  0.00000000e+00  0.00000000e+00 -4.50468181e-07 -1.72427139e-07
  0.00000000e+00  0.00000000e+00  0.00000000e+00  3.71769487e-06]","[[ 1.12418529e-05  2.17476373e-03]
 [-9.67170858e-05  3.47076711e-04]]",[],0.0,0.0
1787562970.0675538,1.902747608626657,1.3254836723015564,2.4248757399884235,"[ 5.11063677e-06 -6.87420835e-08  0.00000000e+00  0.00000000e+00
  0.00000000e+00 -4.50468181e-07 -6.87420835e-08  3.87434536e-06
  0.00000000e+00  0.00000000e+00  0.00000000e+00 -1.72427139e-07
  0.00000000e+00  0.00000000e+00  0.00000000e+00  0.00000000e+00
  0.00000000e+00  0.00000000e+00  0.00000000e+00  0.00000000e+00
  0.00000000e+00  0.00000000e+00  0.00000000e+00  0.00000000e+00
  0.00000000e+00  0.00000000e+00  0.00000000e+00  0.00000000e+00
  0.00000000e+00  0.00000000e+00 -4.50468181e-07 -1.72427139e-07
  0.00000000e+00  0.00000000e+00  0.00000000e+00  3.71769487e-06]","[[ 1.12418529e-05  2.17476373e-03]
 [-9.67170858e-05  3.47076711e-04]]",[],0.0,0.0
1787562970.119821,1.902747608626657,1.3254836723015564,2.4248757399884235,"[ 5.11063677e-06 -6.87420835e-08  0.00000000e+00  0.00000000e+00
  0.00000000e+00 -4.50468181e-07 -6.87420835e-08  3.87434536e-06
  0.00000000e+00  0.00000000e+00  0.00000000e+00 -1.72427139e-07
  0.00000000e+00  0.00000000e+00  0.00000000e+00  0.00000000e+00
  0.00000000e+00  0.00000000e+00  0.00000000e+00  0.00000000e+00
  0.00000000e+00  0.00000000e+00  0.00000000e+00  0.00000000e+00
  0.00000000e+00  0.00000000e+00  0.00000000e+00  0.00000000e+00
  0.00000000e+00  0.00000000e+00 -4.50468181e-07 -1.72427139e-07
  0.00000000e+00  0.00000000e+00  0.00000000e+00  3.71769487e-06]","[[ 1.12418529e-05  2.17476373e-03]
 [-9.67170858e-05  3.47076711e-04]]",[],0.0,0.0
1787562970.1685789,1.902747608626657,1.3254836723015564,2.4248757399884235,"[ 5.11063677e-06 -6.87420835e-08  0.00000000e+00  0.00000000e+00
  0.00000000e+00 -4.50468181e-07 -6.87420835e-08  3.87434536e-06
  0.00000000e+00  0.00000000e+00  0.00000000e+00 -1.72427139e-07
  0.00000000e+00  0.00000000e+00  0.00000000e+00  0.00000000e+00
  0.00000000e+00  0.00000000e+00  0.00000000e+00  0.00000000e+00
  0.00000000e+00  0.00000000e+00  0.00000000e+00  0.00000000e+00
  0.00000000e+00  0.00000000e+00  0.00000000e+00  0.00000000e+00
  0.00000000e+00  0.00000000e+00 -4.50468181e-07 -1.72427139e-07
  0.00000000e+00  0.00000000e+00  0.00000000e+00  3.71769487e-06]","[[ 1.12418529e-05  2.17476373e-03]
 [-9.67170858e-05  3.47076711e-04]]",[],0.0,0.0
1787562970.2194753,1.902747608626657,1.3254836723015564,2.4248757399884235,"[ 5.11063677e-06 -6.87420835e-08  0.00000000e+00  0.00000000e+00
  0.00000000e+00 -4.50468181e-07 -6.87420835e-08  3.87434536e-06
  0.00000000e+00  0.00000000e+00  0.00000000e+00 -1.72427139e-07
  0.00000000e+00  0.00000000e+00  0.00000000e+00  0.00000000e+00
  0.00000000e+00  0.00000000e+00  0.00000000e+00  0.00000000e+00
  0.00000000e+00  0.00000000e+00  0.00000000e+00  0.00000000e+00
  0.00000000e+00  0.00000000e+00  0.00000000e+00  0.00000000e+00
  0.00000000e+00  0.00000000e+00 -4.50468181e-07 -1.72427139e-07
  0.00000000e+00  0.00000000e+00  0.00000000e+00  3.71769487e-06]","[[ 1.12418529e-05  2.17476373e-03]
 [-9.67170858e-05  3.47076711e-04]]",[],0.0,0.0
1787562970.2740357,1.902747608626657,1.3254836723015564,2.4248757399884235,"[ 5.11063677e-06 -6.87420835e-08  0.00000000e+00  0.00000000e+00
  0.00000000e+00 -4.50468181e-07 -6.87420835e-08  3.87434536e-06
  0.00000000e+00  0.00000000e+00  0.00000000e+00 -1.72427139e-07
  0.00000000e+00  0.00000000e+00  0.00000000e+00  0.00000000e+00
  0.00000000e+00  0.00000000e+00  0.00000000e+00  0.00000000e+00
  0.00000000e+00  0.00000000e+00  0.00000000e+00  0.00000000e+00
  0.00000000e+00  0.00000000e+00  0.00000000e+00  0.00000000e+00
  0.00000000e+00  0.00000000e+00 -4.50468181e-07 -1.72427139e-07
  0.00000000e+00  0.00000000e+00  0.00000000e+00  3.71769487e-06]","[[ 1.12418529e-05  2.17476373e-03]
 [-9.67170858e-05  3.47076711e-04]]",[],0.0,0.0
1787562970.3271732,1.902747608626657,1.3254836723015564,2.4248757399884235,"[ 5.11063677e-06 -6.87420835e-08  0.00000000e+00  0.00000000e+00
  0.00000000e+00 -4.50468181e-07 -6.87420835e-08  3.87434536e-06
  0.00000000e+00  0.00000000e+00  0.00000000e+00 -1.72427139e-07
  0.00000000e+00  0.00000000e+00  0.00000000e+00  0.00000000e+00
  0.00000000e+00  0.00000000e+00  0.00000000e+00  0.00000000e+00
  0.00000000e+00  0.00000000e+00  0.00000000e+00  0.00000000e+00
  0.00000000e+00  0.00000000e+00  0.00000000e+00  0.00000000e+00
  0.00000000e+00  0.00000000e+00 -4.50468181e-07 -1.72427139e-07
  0.00000000e+00  0.00000000e+00  0.00000000e+00  3.71769487e-06]","[[ 1.12418529e-05  2.17476373e-03]
 [-9.67170858e-05  3.47076711e-04]]",[],0.0,0.0
1787562970.3672788,1.902747608626657,1.3254836723015564,2.4248757399884235,"[ 5.11063677e-06 -6.87420835e-08  0.00000000e+00  0.00000000e+00
  0.00000000e+00 -4.50468181e-07 -6.87420835e-08  3.87434536e-06
  0.00000000e+00  0.00000000e+00  0.00000000e+00 -1.72427139e-07
  0.00000000e+00  0.00000000e+00  0.00000000e+00  0.00000000e+00
  0.00000000e+00  0.00000000e+00  0.00000000e+00  0.00000000e+00
  0.00000000e+00  0.00000000e+00  0.00000000e+00  0.00000000e+00
  0.00000000e+00  0.00000000e+00  0.00000000e+00  0.00000000e+00
  0.00000000e+00  0.00000000e+00 -4.50468181e-07 -1.72427139e-07
  0.00000000e+00  0.00000000e+00  0.00000000e+00  3.71769487e-06]","[[ 1.12418529e-05  2.17476373e-03]
 [-9.67170858e-05  3.47076711e-04]]",[],0.0,0.0
1787562970.422364,1.902747608626657,1.3254836723015564,2.4248757399884235,"[ 5.11063677e-06 -6.87420835e-08  0.00000000e+00  0.00000000e+00
  0.00000000e+00 -4.50468181e-07 -6.87420835e-08  3.87434536e-06
  0.00000000e+00  0.00000000e+00  0.00000000e+00 -1.72427139e-07
  0.00000000e+00  0.00000000e+00  0.00000000e+00  0.00000000e+00
  0.00000000e+00  0.00000000e+00  0.00000000e+00  0.00000000e+00
  0.00000000e+00  0.00000000e+00  0.00000000e+00  0.00000000e+00
  0.00000000e+00  0.00000000e+00  0.00000000e+00  0.00000000e+00
  0.00000000e+00  0.00000000e+00 -4.50468181e-07 -1.72427139e-07
  0.00000000e+00  0.00000000e+00  0.00000000e+00  3.71769487e-06]","[[ 1.12418529e-05  2.17476373e-03]
 [-9.67170858e-05  3.47076711e-04]]",[],0.0,0.0
1787562970.4695468,1.902747608626657,1.3254836723015564,2.4248757399884235,"[ 5.11063677e-06 -6.87420835e-08  0.00000000e+00  0.00000000e+00
  0.00000000e+00 -4.50468181e-07 -6.87420835e-08  3.87434536e-06
  0.00000000e+00  0.00000000e+00  0.00000000e+00 -1.72427139e-07
  0.00000000e+00  0.00000000e+00  0.00000000e+00  0.00000000e+00
  0.00000000e+00  0.00000000e+00  0.00000000e+00  0.00000000e+00
  0.00000000e+00  0.00000000e+00  0.00000000e+00  0.00000000e+00
  0.00000000e+00  0.00000000e+00  0.00000000e+00  0.00000000e+00
  0.00000000e+00  0.00000000e+00 -4.50468181e-07 -1.72427139e-07
  0.00000000e+00  0.00000000e+00  0.00000000e+00  3.71769487e-06]","[[ 1.12418529e-05  2.17476373e-03]
 [-9.67170858e-05  3.47076711e-04]]",[],0.0,0.0
1787562970.5181453,1.902747608626657,1.3254836723015564,2.4248757399884235,"[ 5.11063677e-06 -6.87420835e-08  0.00000000e+00  0.00000000e+00
  0.00000000e+00 -4.50468181e-07 -6.87420835e-08  3.87434536e-06
  0.00000000e+00  0.00000000e+00  0.00000000e+00 -1.72427139e-07
  0.00000000e+00  0.00000000e+00  0.00000000e+00  0.00000000e+00
  0.00000000e+00  0.00000000e+00  0.00000000e+00  0.00000000e+00
  0.00000000e+00  0.00000000e+00  0.00000000e+00  0.00000000e+00
  0.00000000e+00  0.00000000e+00  0.00000000e+00  0.00000000e+00
  0.00000000e+00  0.00000000e+00 -4.50468181e-07 -1.72427139e-07
  0.00000000e+00  0.00000000e+00  0.00000000e+00  3.71769487e-06]","[[ 1.12418529e-05  2.17476373e-03]
 [-9.67170858e-05  3.47076711e-04]]",[],0.0,0.0
1787562970.5725875,1.902747608626657,1.3254836723015564,2.4248757399884235,"[ 5.11063677e-06 -6.87420835e-08  0.00000000e+00  0.00000000e+00
  0.00000000e+00 -4.50468181e-07 -6.87420835e-08  3.87434536e-06
  0.00000000e+00  0.00000000e+00  0.00000000e+00 -1.72427139e-07
  0.00000000e+00  0.00000000e+00  0.00000000e+00  0.00000000e+00
  0.00000000e+00  0.00000000e+00  0.00000000e+00  0.00000000e+00
  0.00000000e+00  0.00000000e+00  0.00000000e+00  0.00000000e+00
  0.00000000e+00  0.00000000e+00  0.00000000e+00  0.00000000e+00
  0.00000000e+00  0.00000000e+00 -4.50468181e-07 -1.72427139e-07
  0.00000000e+00  0.00000000e+00  0.00000000e+00  3.71769487e-06]","[[ 1.12418529e-05  2.17476373e-03]
 [-9.67170858e-05  3.47076711e-04]]",[],0.0,0.0
1787562970.6249683,1.902747608626657,1.3254836723015564,2.4248757399884235,"[ 5.11063677e-06 -6.87420835e-08  0.00000000e+00  0.00000000e+00
  0.00000000e+00 -4.50468181e-07 -6.87420835e-08  3.87434536e-06
  0.00000000e+00  0.00000000e+00  0.00000000e+00 -1.72427139e-07
  0.00000000e+00  0.00000000e+00  0.00000000e+00  0.00000000e+00
  0.00000000e+00  0.00000000e+00  0.00000000e+00  0.00000000e+00
  0.00000000e+00  0.00000000e+00  0.00000000e+00  0.00000000e+00
  0.00000000e+00  0.00000000e+00  0.00000000e+00  0.00000000e+00
  0.00000000e+00  0.00000000e+00 -4.50468181e-07 -1.72427139e-07
  0.00000000e+00  0.00000000e+00  0.00000000e+00  3.71769487e-06]","[[ 1.12418529e-05  2.17476373e-03]
 [-9.67170858e-05  3.47076711e-04]]",[],0.0,0.0
1787562970.681816,1.902747608626657,1.3254836723015564,2.4248757399884235,"[ 5.11063677e-06 -6.87420835e-08  0.00000000e+00  0.00000000e+00
  0.00000000e+00 -4.50468181e-07 -6.87420835e-08  3.87434536e-06
  0.00000000e+00  0.00000000e+00  0.00000000e+00 -1.72427139e-07
  0.00000000e+00  0.00000000e+00  0.00000000e+00  0.00000000e+00
  0.00000000e+00  0.00000000e+00  0.00000000e+00  0.00000000e+00
  0.00000000e+00  0.00000000e+00  0.00000000e+00  0.00000000e+00
  0.00000000e+00  0.00000000e+00  0.00000000e+00  0.00000000e+00
  0.00000000e+00  0.00000000e+00 -4.50468181e-07 -1.72427139e-07
  0.00000000e+00  0.00000000e+00  0.00000000e+00  3.71769487e-06]","[[ 1.12418529e-05  2.17476373e-03]
 [-9.67170858e-05  3.47076711e-04]]",[],0.0,0.0
1787562971.3008423,1.9081313175527665,1.3225294952075157,2.429313785030754,"[ 4.86087966e-06 -1.30700035e-07  0.00000000e+00  0.00000000e+00
  0.00000000e+00 -4.87045325e-07 -1.30700035e-07  3.68076295e-06
  0.00000000e+00  0.00000000e+00  0.00000000e+00 -1.39169778e-07
  0.00000000e+00  0.00000000e+00  0.00000000e+00  0.00000000e+00
  0.00000000e+00  0.00000000e+00  0.00000000e+00  0.00000000e+00
  0.00000000e+00  0.00000000e+00  0.00000000e+00  0.00000000e+00
