time,x,y,yaw,cov_prop,K_gain,innovation,v_ekf,omega_ekf
1787560205.9017892,1.878545699000259,1.5249498435000968,2.240017447020322,"[ 6.05351542e-05 -3.84084711e-06  0.00000000e+00  0.00000000e+00
  0.00000000e+00 -7.45208646e-06 -3.84084711e-06  4.55817144e-05
  0.00000000e+00  0.00000000e+00  0.00000000e+00 -9.36421468e-07
  0.00000000e+00  0.00000000e+00  0.00000000e+00  0.00000000e+00
  0.00000000e+00  0.00000000e+00  0.00000000e+00  0.00000000e+00
  0.00000000e+00  0.00000000e+00  0.00000000e+00  0.00000000e+00
  0.00000000e+00  0.00000000e+00  0.00000000e+00  0.00000000e+00
  0.00000000e+00  0.00000000e+00 -7.45208646e-06 -9.36421468e-07
  0.00000000e+00  0.00000000e+00  0.00000000e+00  4.91126048e-06]","[[-0.00086801  0.03419676]
 [-0.00083137 -0.01226308]]",[],0.0,0.0
1787560205.9501781,1.878545699000259,1.5249498435000968,2.240017447020322,"[ 6.05351542e-05 -3.84084711e-06  0.00000000e+00  0.00000000e+00
  0.00000000e+00 -7.45208646e-06 -3.84084711e-06  4.55817144e-05
  0.00000000e+00  0.00000000e+00  0.00000000e+00 -9.36421468e-07
  0.00000000e+00  0.00000000e+00  0.00000000e+00  0.00000000e+00
  0.00000000e+00  0.00000000e+00  0.00000000e+00  0.00000000e+00
  0.00000000e+00  0.00000000e+00  0.00000000e+00  0.00000000e+00
  0.00000000e+00  0.00000000e+00  0.00000000e+00  0.00000000e+00
  0.00000000e+00  0.00000000e+00 -7.45208646e-06 -9.36421468e-07
  0.00000000e+00  0.00000000e+00  0.00000000e+00  4.91126048e-06]","[[-0.00086801  0.03419676]
 [-0.00083137 -0.01226308]]",[],0.0,0.0
1787560205.9994485,1.878545699000259,1.5249498435000968,2.240017447020322,"[ 6.05351542e-05 -3.84084711e-06  0.00000000e+00  0.00000000e+00
  0.00000000e+00 -7.45208646e-06 -3.84084711e-06  4.55817144e-05
  0.00000000e+00  0.00000000e+00  0.00000000e+00 -9.36421468e-07
  0.00000000e+00  0.00000000e+00  0.00000000e+00  0.00000000e+00
  0.00000000e+00  0.00000000e+00  0.00000000e+00  0.00000000e+00
  0.00000000e+00  0.00000000e+00  0.00000000e+00  0.00000000e+00
  0.00000000e+00  0.00000000e+00  0.00000000e+00  0.00000000e+00
  0.00000000e+00  0.00000000e+00 -7.45208646e-06 -9.36421468e-07
  0.00000000e+00  0.00000000e+00  0.00000000e+00  4.91126048e-06]","[[-0.00086801  0.03419676]
 [-0.00083137 -0.01226308]]",[],0.0,0.0
1787560206.049113,1.878545699000259,1.5249498435000968,2.240017447020322,"[ 6.05351542e-05 -3.84084711e-06  0.00000000e+00  0.00000000e+00
  0.00000000e+00 -7.45208646e-06 -3.84084711e-06  4.55817144e-05
  0.00000000e+00  0.00000000e+00  0.00000000e+00 -9.36421468e-07
  0.00000000e+00  0.00000000e+00  0.00000000e+00  0.00000000e+00
  0.00000000e+00  0.00000000e+00  0.00000000e+00  0.00000000e+00
  0.00000000e+00  0.00000000e+00  0.00000000e+00  0.00000000e+00
  0.00000000e+00  0.00000000e+00  0.00000000e+00  0.00000000e+00
  0.00000000e+00  0.00000000e+00 -7.45208646e-06 -9.36421468e-07
  0.00000000e+00  0.00000000e+00  0.00000000e+00  4.91126048e-06]","[[-0.00086801  0.03419676]
 [-0.00083137 -0.01226308]]",[],0.0,0.0
1787560206.1028807,1.878545699000259,1.5249498435000968,2.240017447020322,"[ 6.05351542e-05 -3.84084711e-06  0.00000000e+00  0.00000000e+00
  0.00000000e+00 -7.45208646e-06 -3.84084711e-06  4.55817144e-05
  0.00000000e+00  0.00000000e+00  0.00000000e+00 -9.36421468e-07
  0.00000000e+00  0.00000000e+00  0.00000000e+00  0.00000000e+00
  0.00000000e+00  0.00000000e+00  0.00000000e+00  0.00000000e+00
  0.00000000e+00  0.00000000e+00  0.00000000e+00  0.00000000e+00
  0.00000000e+00  0.00000000e+00  0.00000000e+00  0.00000000e+00
  0.00000000e+00  0.00000000e+00 -7.45208646e-06 -9.36421468e-07
  0.00000000e+00  0.00000000e+00  0.00000000e+00  4.91126048e-06]","[[-0.00086801  0.03419676]
 [-0.00083137 -0.01226308]]",[],0.0,0.0
1787560206.1519172,1.878545699000259,1.5249498435000968,2.240017447020322,"[ 6.05351542e-05 -3.84084711e-06  0.00000000e+00  0.00000000e+00
  0.00000000e+00 -7.45208646e-06 -3.84084711e-06  4.55817144e-05
  0.00000000e+00  0.00000000e+00  0.00000000e+00 -9.36421468e-07
  0.00000000e+00  0.00000000e+00  0.00000000e+00  0.00000000e+00
  0.00000000e+00  0.00000000e+00  0.00000000e+00  0.00000000e+00
  0.00000000e+00  0.00000000e+00  0.00000000e+00  0.00000000e+00
  0.00000000e+00  0.00000000e+00  0.00000000e+00  0.00000000e+00
  0.00000000e+00  0.00000000e+00 -7.45208646e-06 -9.36421468e-07
  0.00000000e+00  0.00000000e+00  0.00000000e+00  4.91126048e-06]","[[-0.00086801  0.03419676]
 [-0.00083137 -0.01226308]]",[],0.0,0.0
1787560206.2002373,1.878545699000259,1.5249498435000968,2.240017447020322,"[ 6.05351542e-05 -3.84084711e-06  0.00000000e+00  0.00000000e+00
  0.00000000e+00 -7.45208646e-06 -3.84084711e-06  4.55817144e-05
  0.00000000e+00  0.00000000e+00  0.00000000e+00 -9.36421468e-07
  0.00000000e+00  0.00000000e+00  0.00000000e+00  0.00000000e+00
  0.00000000e+00  0.00000000e+00  0.00000000e+00  0.00000000e+00
  0.00000000e+00  0.00000000e+00  0.00000000e+00  0.00000000e+00
  0.00000000e+00  0.00000000e+00  0.00000000e+00  0.00000000e+00
  0.00000000e+00  0.00000000e+00 -7.45208646e-06 -9.36421468e-07
  0.00000000e+00  0.00000000e+00  0.00000000e+00  4.91126048e-06]","[[-0.00086801  0.03419676]
 [-0.00083137 -0.01226308]]",[],0.0,0.0
1787560206.248709,1.878545699000259,1.5249498435000968,2.240017447020322,"[ 6.05351542e-05 -3.84084711e-06  0.00000000e+00  0.00000000e+00
  0.00000000e+00 -7.45208646e-06 -3.84084711e-06  4.55817144e-05
  0.00000000e+00  0.00000000e+00  0.00000000e+00 -9.36421468e-07
  0.00000000e+00  0.00000000e+00  0.00000000e+00  0.00000000e+00
  0.00000000e+00  0.00000000e+00  0.00000000e+00  0.00000000e+00
  0.00000000e+00  0.00000000e+00  0.00000000e+00  0.00000000e+00
  0.00000000e+00  0.00000000e+00  0.00000000e+00  0.00000000e+00
  0.00000000e+00  0.00000000e+00 -7.45208646e-06 -9.36421468e-07
  0.00000000e+00  0.00000000e+00  0.00000000e+00  4.91126048e-06]","[[-0.00086801  0.03419676]
 [-0.00083137 -0.01226308]]",[],0.0,0.0
1787560206.3064504,1.878545699000259,1.5249498435000968,2.240017447020322,"[ 6.05351542e-05 -3.84084711e-06  0.00000000e+00  0.00000000e+00
  0.00000000e+00 -7.45208646e-06 -3.84084711e-06  4.55817144e-05
  0.00000000e+00  0.00000000e+00  0.00000000e+00 -9.36421468e-07
  0.00000000e+00  0.00000000e+00  0.00000000e+00  0.00000000e+00
  0.00000000e+00  0.00000000e+00  0.00000000e+00  0.00000000e+00
  0.00000000e+00  0.00000000e+00  0.00000000e+00  0.00000000e+00
  0.00000000e+00  0.00000000e+00  0.00000000e+00  0.00000000e+00
  0.00000000e+00  0.00000000e+00 -7.45208646e-06 -9.36421468e-07
  0.00000000e+00  0.00000000e+00  0.00000000e+00  4.91126048e-06]","[[-0.00086801  0.03419676]
 [-0.00083137 -0.01226308]]",[],0.0,0.0
1787560206.349719,1.878545699000259,1.5249498435000968,2.240017447020322,"[ 6.05351542e-05 -3.84084711e-06  0.00000000e+00  0.00000000e+00
  0.00000000e+00 -7.45208646e-06 -3.84084711e-06  4.55817144e-05
  0.00000000e+00  0.00000000e+00  0.00000000e+00 -9.36421468e-07
  0.00000000e+00  0.00000000e+00  0.00000000e+00  0.00000000e+00
  0.00000000e+00  0.00000000e+00  0.00000000e+00  0.00000000e+00
  0.00000000e+00  0.00000000e+00  0.00000000e+00  0.00000000e+00
  0.00000000e+00  0.00000000e+00  0.00000000e+00  0.00000000e+00
  0.00000000e+00  0.00000000e+00 -7.45208646e-06 -9.36421468e-07
  0.00000000e+00  0.00000000e+00  0.00000000e+00  4.91126048e-06]","[[-0.00086801  0.03419676]
 [-0.00083137 -0.01226308]]",[],0.0,0.0
1787560206.4178565,1.878545699000259,1.5249498435000968,2.240017447020322,"[ 6.05351542e-05 -3.84084711e-06  0.00000000e+00  0.00000000e+00
  0.00000000e+00 -7.45208646e-06 -3.84084711e-06  4.55817144e-05
  0.00000000e+00  0.00000000e+00  0.00000000e+00 -9.36421468e-07
  0.00000000e+00  0.00000000e+00  0.00000000e+00  0.00000000e+00
  0.00000000e+00  0.00000000e+00  0.00000000e+00  0.00000000e+00
  0.00000000e+00  0.00000000e+00  0.00000000e+00  0.00000000e+00
  0.00000000e+00  0.00000000e+00  0.00000000e+00  0.00000000e+00
  0.00000000e+00  0.00000000e+00 -7.45208646e-06 -9.36421468e-07
  0.00000000e+00  0.00000000e+00  0.00000000e+00  4.91126048e-06]","[[-0.00086801  0.03419676]
 [-0.00083137 -0.01226308]]",[],0.0,0.0
1787560206.4485884,1.878545699000259,1.5249498435000968,2.240017447020322,"[ 6.05351542e-05 -3.84084711e-06  0.00000000e+00  0.00000000e+00
  0.00000000e+00 -7.45208646e-06 -3.84084711e-06  4.55817144e-05
  0.00000000e+00  0.00000000e+00  0.00000000e+00 -9.36421468e-07
  0.00000000e+00  0.00000000e+00  0.00000000e+00  0.00000000e+00
  0.00000000e+00  0.00000000e+00  0.00000000e+00  0.00000000e+00
  0.00000000e+00  0.00000000e+00  0.00000000e+00  0.00000000e+00
  0.00000000e+00  0.00000000e+00  0.00000000e+00  0.00000000e+00
  0.00000000e+00  0.00000000e+00 -7.45208646e-06 -9.36421468e-07
  0.00000000e+00  0.00000000e+00  0.00000000e+00  4.91126048e-06]","[[-0.00086801  0.03419676]
 [-0.00083137 -0.01226308]]",[],0.0,0.0
1787560206.500111,1.878545699000259,1.5249498435000968,2.240017447020322,"[ 6.05351542e-05 -3.84084711e-06  0.00000000e+00  0.00000000e+00
  0.00000000e+00 -7.45208646e-06 -3.84084711e-06  4.55817144e-05
  0.00000000e+00  0.00000000e+00  0.00000000e+00 -9.36421468e-07
  0.00000000e+00  0.00000000e+00  0.00000000e+00  0.00000000e+00
  0.00000000e+00  0.00000000e+00  0.00000000e+00  0.00000000e+00
  0.00000000e+00  0.00000000e+00  0.00000000e+00  0.00000000e+00
  0.00000000e+00  0.00000000e+00  0.00000000e+00  0.00000000e+00
  0.00000000e+00  0.00000000e+00 -7.45208646e-06 -9.36421468e-07
  0.00000000e+00  0.00000000e+00  0.00000000e+00  4.91126048e-06]","[[-0.00086801  0.03419676]
 [-0.00083137 -0.01226308]]",[],0.0,0.0
1787560206.5514402,1.878545699000259,1.5249498435000968,2.240017447020322,"[ 6.05351542e-05 -3.84084711e-06  0.00000000e+00  0.00000000e+00
  0.00000000e+00 -7.45208646e-06 -3.84084711e-06  4.55817144e-05
  0.00000000e+00  0.00000000e+00  0.00000000e+00 -9.36421468e-07
  0.00000000e+00  0.00000000e+00  0.00000000e+00  0.00000000e+00
  0.00000000e+00  0.00000000e+00  0.00000000e+00  0.00000000e+00
  0.00000000e+00  0.00000000e+00  0.00000000e+00  0.00000000e+00
  0.00000000e+00  0.00000000e+00  0.00000000e+00  0.00000000e+00
  0.00000000e+00  0.00000000e+00 -7.45208646e-06 -9.36421468e-07
  0.00000000e+00  0.00000000e+00  0.00000000e+00  4.91126048e-06]","[[-0.00086801  0.03419676]
 [-0.00083137 -0.01226308]]",[],0.0,0.0
1787560206.5988317,1.878545699000259,1.5249498435000968,2.240017447020322,"[ 6.05351542e-05 -3.84084711e-06  0.00000000e+00  0.00000000e+00
  0.00000000e+00 -7.45208646e-06 -3.84084711e-06  4.55817144e-05
  0.00000000e+00  0.00000000e+00  0.00000000e+00 -9.36421468e-07
  0.00000000e+00  0.00000000e+00  0.00000000e+00  0.00000000e+00
  0.00000000e+00  0.00000000e+00  0.00000000e+00  0.00000000e+00
  0.00000000e+00  0.00000000e+00  0.00000000e+00  0.00000000e+00
  0.00000000e+00  0.00000000e+00  0.00000000e+00  0.00000000e+00
  0.00000000e+00  0.00000000e+00 -7.45208646e-06 -9.36421468e-07
  0.00000000e+00  0.00000000e+00  0.00000000e+00  4.91126048e-06]","[[-0.00086801  0.03419676]
 [-0.00083137 -0.01226308]]",[],0.0,0.0
1787560206.6616673,1.878545699000259,1.5249498435000968,2.240017447020322,"[ 6.05351542e-05 -3.84084711e-06  0.00000000e+00  0.00000000e+00
  0.00000000e+00 -7.45208646e-06 -3.84084711e-06  4.55817144e-05
  0.00000000e+00  0.00000000e+00  0.00000000e+00 -9.36421468e-07
  0.00000000e+00  0.00000000e+00  0.00000000e+00  0.00000000e+00
  0.00000000e+00  0.00000000e+00  0.00000000e+00  0.00000000e+00
  0.00000000e+00  0.00000000e+00  0.00000000e+00  0.00000000e+00
  0.00000000e+00  0.00000000e+00  0.00000000e+00  0.00000000e+00
  0.00000000e+00  0.00000000e+00 -7.45208646e-06 -9.36421468e-07
  0.00000000e+00  0.00000000e+00  0.00000000e+00  4.91126048e-06]","[[-0.00086801  0.03419676]
 [-0.00083137 -0.01226308]]",[],0.0,0.0
1787560206.7025447,1.878545699000259,1.5249498435000968,2.240017447020322,"[ 6.05351542e-05 -3.84084711e-06  0.00000000e+00  0.00000000e+00
  0.00000000e+00 -7.45208646e-06 -3.84084711e-06  4.55817144e-05
  0.00000000e+00  0.00000000e+00  0.00000000e+00 -9.36421468e-07
  0.00000000e+00  0.00000000e+00  0.00000000e+00  0.00000000e+00
  0.00000000e+00  0.00000000e+00  0.00000000e+00  0.00000000e+00
  0.00000000e+00  0.00000000e+00  0.00000000e+00  0.00000000e+00
  0.00000000e+00  0.00000000e+00  0.00000000e+00  0.00000000e+00
  0.00000000e+00  0.00000000e+00 -7.45208646e-06 -9.36421468e-07
  0.00000000e+00  0.00000000e+00  0.00000000e+00  4.91126048e-06]","[[-0.00086801  0.03419676]
 [-0.00083137 -0.01226308]]",[],0.0,0.0
1787560206.7507162,1.878545699000259,1.5249498435000968,2.240017447020322,"[ 6.05351542e-05 -3.84084711e-06  0.00000000e+00  0.00000000e+00
  0.00000000e+00 -7.45208646e-06 -3.84084711e-06  4.55817144e-05
  0.00000000e+00  0.00000000e+00  0.00000000e+00 -9.36421468e-07
  0.00000000e+00  0.00000000e+00  0.00000000e+00  0.00000000e+00
  0.00000000e+00  0.00000000e+00  0.00000000e+00  0.00000000e+00
  0.00000000e+00  0.00000000e+00  0.00000000e+00  0.00000000e+00
  0.00000000e+00  0.00000000e+00  0.00000000e+00  0.00000000e+00
  0.00000000e+00  0.00000000e+00 -7.45208646e-06 -9.36421468e-07
  0.00000000e+00  0.00000000e+00  0.00000000e+00  4.91126048e-06]","[[-0.00086801  0.03419676]
 [-0.00083137 -0.01226308]]",[],0.0,0.0
1787560206.8421447,1.878545699000259,1.5249498435000968,2.240017447020322,"[ 6.05351542e-05 -3.84084711e-06  0.00000000e+00  0.00000000e+00
  0.00000000e+00 -7.45208646e-06 -3.84084711e-06  4.55817144e-05
  0.00000000e+00  0.00000000e+00  0.00000000e+00 -9.36421468e-07
  0.00000000e+00  0.00000000e+00  0.00000000e+00  0.00000000e+00
  0.00000000e+00  0.00000000e+00  0.00000000e+00  0.00000000e+00
  0.00000000e+00  0.00000000e+00  0.00000000e+00  0.00000000e+00
  0.00000000e+00  0.00000000e+00  0.00000000e+00  0.00000000e+00
  0.00000000e+00  0.00000000e+00 -7.45208646e-06 -9.36421468e-07
  0.00000000e+00  0.00000000e+00  0.00000000e+00  4.91126048e-06]","[[-0.00086801  0.03419676]
 [-0.00083137 -0.01226308]]",[],0.0,0.0
1787560206.85353,1.878545699000259,1.5249498435000968,2.240017447020322,"[ 6.05351542e-05 -3.84084711e-06  0.00000000e+00  0.00000000e+00
  0.00000000e+00 -7.45208646e-06 -3.84084711e-06  4.55817144e-05
  0.00000000e+00  0.00000000e+00  0.00000000e+00 -9.36421468e-07
  0.00000000e+00  0.00000000e+00  0.00000000e+00  0.00000000e+00
  0.00000000e+00  0.00000000e+00  0.00000000e+00  0.00000000e+00
  0.00000000e+00  0.00000000e+00  0.00000000e+00  0.00000000e+00
  0.00000000e+00  0.00000000e+00  0.00000000e+00  0.00000000e+00
  0.00000000e+00  0.00000000e+00 -7.45208646e-06 -9.36421468e-07
  0.00000000e+00  0.00000000e+00  0.00000000e+00  4.91126048e-06]","[[-0.00086801  0.03419676]
 [-0.00083137 -0.01226308]]",[],0.0,0.0
1787560206.9005888,1.878545699000259,1.5249498435000968,2.240017447020322,"[ 6.05351542e-05 -3.84084711e-06  0.00000000e+00  0.00000000e+00
  0.00000000e+00 -7.45208646e-06 -3.84084711e-06  4.55817144e-05
  0.00000000e+00  0.00000000e+00  0.00000000e+00 -9.36421468e-07
  0.00000000e+00  0.00000000e+00  0.00000000e+00  0.00000000e+00
  0.00000000e+00  0.00000000e+00  0.00000000e+00  0.00000000e+00
  0.00000000e+00  0.00000000e+00  0.00000000e+00  0.00000000e+00
  0.00000000e+00  0.00000000e+00  0.00000000e+00  0.00000000e+00
  0.00000000e+00  0.00000000e+00 -7.45208646e-06 -9.36421468e-07
  0.00000000e+00  0.00000000e+00  0.00000000e+00  4.91126048e-06]","[[-0.00086801  0.03419676]
 [-0.00083137 -0.01226308]]",[],0.0,0.0
1787560206.9532034,1.878545699000259,1.5249498435000968,2.240017447020322,"[ 6.05351542e-05 -3.84084711e-06  0.00000000e+00  0.00000000e+00
  0.00000000e+00 -7.45208646e-06 -3.84084711e-06  4.55817144e-05
  0.00000000e+00  0.00000000e+00  0.00000000e+00 -9.36421468e-07
  0.00000000e+00  0.00000000e+00  0.00000000e+00  0.00000000e+00
  0.00000000e+00  0.00000000e+00  0.00000000e+00  0.00000000e+00
  0.00000000e+00  0.00000000e+00  0.00000000e+00  0.00000000e+00
  0.00000000e+00  0.00000000e+00  0.00000000e+00  0.00000000e+00
  0.00000000e+00  0.00000000e+00 -7.45208646e-06 -9.36421468e-07
  0.00000000e+00  0.00000000e+00  0.00000000e+00  4.91126048e-06]","[[-0.00086801  0.03419676]
 [-0.00083137 -0.01226308]]",[],0.0,0.0
1787560207.0307055,1.9174005228299675,1.4985140716428513,2.3202024840076927,"[ 3.19781526e-05 -5.22257565e-07  0.00000000e+00  0.00000000e+00
  0.00000000e+00 -3.96719921e-06 -5.22257565e-07  2.33363758e-05
  0.00000000e+00  0.00000000e+00  0.00000000e+00 -1.53787927e-06
  0.00000000e+00  0.00000000e+00  0.00000000e+00  0.00000000e+00
  0.00000000e+00  0.00000000e+00  0.00000000e+00  0.00000000e+00
  0.00000000e+00  0.00000000e+00  0.00000000e+00  0.00000000e+00
  0.00000000e+00  0.00000000e+00  0.00000000e+00  0.00000000e+00
  0.00000000e+00  0.00000000e+00 -3.96719921e-06 -1.53787927e-06
  0.00000000e+00  0.00000000e+00  0.00000000e+00  4.62916166e-06]","[[-0.00052815  0.01878366]
 [-0.00042288 -0.00564376]]",[],0.0,0.0
1787560207.0508018,1.9174005228299675,1.4985140716428513,2.3202024840076927,"[ 3.19781526e-05 -5.22257565e-07  0.00000000e+00  0.00000000e+00
  0.00000000e+00 -3.96719921e-06 -5.22257565e-07  2.33363758e-05
  0.00000000e+00  0.00000000e+00  0.00000000e+00 -1.53787927e-06
  0.00000000e+00  0.00000000e+00  0.00000000e+00  0.00000000e+00
  0.00000000e+00  0.00000000e+00  0.00000000e+00  0.00000000e+00
  0.00000000e+00  0.00000000e+00  0.00000000e+00  0.00000000e+00
  0.00000000e+00  0.00000000e+00  0.00000000e+00  0.00000000e+00
  0.00000000e+00  0.00000000e+00 -3.96719921e-06 -1.53787927e-06
  0.00000000e+00  0.00000000e+00  0.00000000e+00  4.62916166e-06]","[[-0.00052815  0.01878366]
 [-0.00042288 -0.00564376]]",[],0.0,0.0
1787560207.099532,1.9174005228299675,1.4985140716428513,2.3202024840076927,"[ 3.19781526e-05 -5.22257565e-07  0.00000000e+00  0.00000000e+00
  0.00000000e+00 -3.96719921e-06 -5.22257565e-07  2.33363758e-05
  0.00000000e+00  0.00000000e+00  0.00000000e+00 -1.53787927e-06
  0.00000000e+00  0.00000000e+00  0.00000000e+00  0.00000000e+00
  0.00000000e+00  0.00000000e+00  0.00000000e+00  0.00000000e+00
  0.00000000e+00  0.00000000e+00  0.00000000e+00  0.00000000e+00
  0.00000000e+00  0.00000000e+00  0.00000000e+00  0.00000000e+00
  0.00000000e+00  0.00000000e+00 -3.96719921e-06 -1.53787927e-06
  0.00000000e+00  0.00000000e+00  0.00000000e+00  4.62916166e-06]","[[-0.00052815  0.01878366]
 [-0.00042288 -0.00564376]]",[],0.0,0.0
1787560207.1524205,1.9174005228299675,1.4985140716428513,2.3202024840076927,"[ 3.19781526e-05 -5.22257565e-07  0.00000000e+00  0.00000000e+00
  0.00000000e+00 -3.96719921e-06 -5.22257565e-07  2.33363758e-05
  0.00000000e+00  0.00000000e+00  0.00000000e+00 -1.53787927e-06
  0.00000000e+00  0.00000000e+00  0.00000000e+00  0.00000000e+00
  0.00000000e+00  0.00000000e+00  0.00000000e+00  0.00000000e+00
  0.00000000e+00  0.00000000e+00  0.00000000e+00  0.00000000e+00
  0.00000000e+00  0.00000000e+00  0.00000000e+00  0.00000000e+00
  0.00000000e+00  0.00000000e+00 -3.96719921e-06 -1.53787927e-06
  0.00000000e+00  0.00000000e+00  0.00000000e+00  4.62916166e-06]","[[-0.00052815  0.01878366]
 [-0.00042288 -0.00564376]]",[],0.0,0.0
1787560207.227955,1.9174005228299675,1.4985140716428513,2.3202024840076927,"[ 3.19781526e-05 -5.22257565e-07  0.00000000e+00  0.00000000e+00
  0.00000000e+00 -3.96719921e-06 -5.22257565e-07  2.33363758e-05
  0.00000000e+00  0.00000000e+00  0.00000000e+00 -1.53787927e-06
  0.00000000e+00  0.00000000e+00  0.00000000e+00  0.00000000e+00
  0.00000000e+00  0.00000000e+00  0.00000000e+00  0.00000000e+00
  0.00000000e+00  0.00000000e+00  0.00000000e+00  0.00000000e+00
  0.00000000e+00  0.00000000e+00  0.00000000e+00  0.00000000e+00
  0.00000000e+00  0.00000000e+00 -3.96719921e-06 -1.53787927e-06
  0.00000000e+00  0.00000000e+00  0.00000000e+00  4.62916166e-06]","[[-0.00052815  0.01878366]
 [-0.00042288 -0.00564376]]",[],0.0,0.0
1787560207.2913873,1.9174005228299675,1.4985140716428513,2.3202024840076927,"[ 3.19781526e-05 -5.22257565e-07  0.00000000e+00  0.00000000e+00
  0.00000000e+00 -3.96719921e-06 -5.22257565e-07  2.33363758e-05
  0.00000000e+00  0.00000000e+00  0.00000000e+00 -1.53787927e-06
  0.00000000e+00  0.00000000e+00  0.00000000e+00  0.00000000e+00
  0.00000000e+00  0.00000000e+00  0.00000000e+00  0.00000000e+00
  0.00000000e+00  0.00000000e+00  0.00000000e+00  0.00000000e+00
  0.00000000e+00  0.00000000e+00  0.00000000e+00  0.00000000e+00
  0.00000000e+00  0.00000000e+00 -3.96719921e-06 -1.53787927e-06
  0.00000000e+00  0.00000000e+00  0.00000000e+00  4.62916166e-06]","[[-0.00052815  0.01878366]
 [-0.00042288 -0.00564376]]",[],0.0,0.0
1787560207.3123918,1.9174005228299675,1.4985140716428513,2.3202024840076927,"[ 3.19781526e-05 -5.22257565e-07  0.00000000e+00  0.00000000e+00
  0.00000000e+00 -3.96719921e-06 -5.22257565e-07  2.33363758e-05
  0.00000000e+00  0.00000000e+00  0.00000000e+00 -1.53787927e-06
  0.00000000e+00  0.00000000e+00  0.00000000e+00  0.00000000e+00
  0.00000000e+00  0.00000000e+00  0.00000000e+00  0.00000000e+00
  0.00000000e+00  0.00000000e+00  0.00000000e+00  0.00000000e+00
  0.00000000e+00  0.00000000e+00  0.00000000e+00  0.00000000e+00
  0.00000000e+00  0.00000000e+00 -3.96719921e-06 -1.53787927e-06
  0.00000000e+00  0.00000000e+00  0.00000000e+00  4.62916166e-06]","[[-0.00052815  0.01878366]
 [-0.00042288 -0.00564376]]",[],0.0,0.0
1787560207.3512063,1.9174005228299675,1.4985140716428513,2.3202024840076927,"[ 3.19781526e-05 -5.22257565e-07  0.00000000e+00  0.00000000e+00
  0.00000000e+00 -3.96719921e-06 -5.22257565e-07  2.33363758e-05
  0.00000000e+00  0.00000000e+00  0.00000000e+00 -1.53787927e-06
  0.00000000e+00  0.00000000e+00  0.00000000e+00  0.00000000e+00
  0.00000000e+00  0.00000000e+00  0.00000000e+00  0.00000000e+00
  0.00000000e+00  0.00000000e+00  0.00000000e+00  0.00000000e+00
  0.00000000e+00  0.00000000e+00  0.00000000e+00  0.00000000e+00
  0.00000000e+00  0.00000000e+00 -3.96719921e-06 -1.53787927e-06
  0.00000000e+00  0.00000000e+00  0.00000000e+00  4.62916166e-06]","[[-0.00052815  0.01878366]
 [-0.00042288 -0.00564376]]",[],0.0,0.0
1787560207.3991222,1.9174005228299675,1.4985140716428513,2.3202024840076927,"[ 3.19781526e-05 -5.22257565e-07  0.00000000e+00  0.00000000e+00
  0.00000000e+00 -3.96719921e-06 -5.22257565e-07  2.33363758e-05
  0.00000000e+00  0.00000000e+00  0.00000000e+00 -1.53787927e-06
  0.00000000e+00  0.00000000e+00  0.00000000e+00  0.00000000e+00
  0.00000000e+00  0.00000000e+00  0.00000000e+00  0.00000000e+00
  0.00000000e+00  0.00000000e+00  0.00000000e+00  0.00000000e+00
  0.00000000e+00  0.00000000e+00  0.00000000e+00  0.00000000e+00
  0.00000000e+00  0.00000000e+00 -3.96719921e-06 -1.53787927e-06
  0.00000000e+00  0.00000000e+00  0.00000000e+00  4.62916166e-06]","[[-0.00052815  0.01878366]
 [-0.00042288 -0.00564376]]",[],0.0,0.0
1787560207.4546044,1.9174005228299675,1.4985140716428513,2.3202024840076927,"[ 3.19781526e-05 -5.22257565e-07  0.00000000e+00  0.00000000e+00
  0.00000000e+00 -3.96719921e-06 -5.22257565e-07  2.33363758e-05
  0.00000000e+00  0.00000000e+00  0.00000000e+00 -1.53787927e-06
  0.00000000e+00  0.00000000e+00  0.00000000e+00  0.00000000e+00
  0.00000000e+00  0.00000000e+00  0.00000000e+00  0.00000000e+00
  0.00000000e+00  0.00000000e+00  0.00000000e+00  0.00000000e+00
  0.00000000e+00  0.00000000e+00  0.00000000e+00  0.00000000e+00
  0.00000000e+00  0.00000000e+00 -3.96719921e-06 -1.53787927e-06
  0.00000000e+00  0.00000000e+00  0.00000000e+00  4.62916166e-06]","[[-0.00052815  0.01878366]
 [-0.00042288 -0.00564376]]",[],0.0,0.0
1787560207.5090303,1.9174005228299675,1.4985140716428513,2.3202024840076927,"[ 3.19781526e-05 -5.22257565e-07  0.00000000e+00  0.00000000e+00
  0.00000000e+00 -3.96719921e-06 -5.22257565e-07  2.33363758e-05
  0.00000000e+00  0.00000000e+00  0.00000000e+00 -1.53787927e-06
  0.00000000e+00  0.00000000e+00  0.00000000e+00  0.00000000e+00
  0.00000000e+00  0.00000000e+00  0.00000000e+00  0.00000000e+00
  0.00000000e+00  0.00000000e+00  0.00000000e+00  0.00000000e+00
  0.00000000e+00  0.00000000e+00  0.00000000e+00  0.00000000e+00
  0.00000000e+00  0.00000000e+00 -3.96719921e-06 -1.53787927e-06
  0.00000000e+00  0.00000000e+00  0.00000000e+00  4.62916166e-06]","[[-0.00052815  0.01878366]
 [-0.00042288 -0.00564376]]",[],0.0,0.0
1787560207.5993898,1.9174005228299675,1.4985140716428513,2.3202024840076927,"[ 3.19781526e-05 -5.22257565e-07  0.00000000e+00  0.00000000e+00
  0.00000000e+00 -3.96719921e-06 -5.22257565e-07  2.33363758e-05
  0.00000000e+00  0.00000000e+00  0.00000000e+00 -1.53787927e-06
  0.00000000e+00  0.00000000e+00  0.00000000e+00  0.00000000e+00
  0.00000000e+00  0.00000000e+00  0.00000000e+00  0.00000000e+00
  0.00000000e+00  0.00000000e+00  0.00000000e+00  0.00000000e+00
  0.00000000e+00  0.00000000e+00  0.00000000e+00  0.00000000e+00
  0.00000000e+00  0.00000000e+00 -3.96719921e-06 -1.53787927e-06
  0.00000000e+00  0.00000000e+00  0.00000000e+00  4.62916166e-06]","[[-0.00052815  0.01878366]
 [-0.00042288 -0.00564376]]",[],0.0,0.0
1787560207.6492188,1.9174005228299675,1.4985140716428513,2.3202024840076927,"[ 3.19781526e-05 -5.22257565e-07  0.00000000e+00  0.00000000e+00
  0.00000000e+00 -3.96719921e-06 -5.22257565e-07  2.33363758e-05
  0.00000000e+00  0.00000000e+00  0.00000000e+00 -1.53787927e-06
  0.00000000e+00  0.00000000e+00  0.00000000e+00  0.00000000e+00
  0.00000000e+00  0.00000000e+00  0.00000000e+00  0.00000000e+00
  0.00000000e+00  0.00000000e+00  0.00000000e+00  0.00000000e+00
  0.00000000e+00  0.00000000e+00  0.00000000e+00  0.00000000e+00
  0.00000000e+00  0.00000000e+00 -3.96719921e-06 -1.53787927e-06
  0.00000000e+00  0.00000000e+00  0.00000000e+00  4.62916166e-06]","[[-0.00052815  0.01878366]
 [-0.00042288 -0.00564376]]",[],0.0,0.0
1787560207.734817,1.9174005228299675,1.4985140716428513,2.3202024840076927,"[ 3.19781526e-05 -5.22257565e-07  0.00000000e+00  0.00000000e+00
  0.00000000e+00 -3.96719921e-06 -5.22257565e-07  2.33363758e-05
  0.00000000e+00  0.00000000e+00  0.00000000e+00 -1.53787927e-06
  0.00000000e+00  0.00000000e+00  0.00000000e+00  0.00000000e+00
  0.00000000e+00  0.00000000e+00  0.00000000e+00  0.00000000e+00
  0.00000000e+00  0.00000000e+00  0.00000000e+00  0.00000000e+00
  0.00000000e+00  0.00000000e+00  0.00000000e+00  0.00000000e+00
  0.00000000e+00  0.00000000e+00 -3.96719921e-06 -1.53787927e-06
  0.00000000e+00  0.00000000e+00  0.00000000e+00  4.62916166e-06]","[[-0.00052815  0.01878366]
 [-0.00042288 -0.00564376]]",[],0.0,0.0
1787560207.7489958,1.9174005228299675,1.4985140716428513,2.3202024840076927,"[ 3.19781526e-05 -5.22257565e-07  0.00000000e+00  0.00000000e+00
  0.00000000e+00 -3.96719921e-06 -5.22257565e-07  2.33363758e-05
  0.00000000e+00  0.00000000e+00  0.00000000e+00 -1.53787927e-06
  0.00000000e+00  0.00000000e+00  0.00000000e+00  0.00000000e+00
  0.00000000e+00  0.00000000e+00  0.00000000e+00  0.00000000e+00
  0.00000000e+00  0.00000000e+00  0.00000000e+00  0.00000000e+00
  0.00000000e+00  0.00000000e+00  0.00000000e+00  0.00000000e+00
  0.00000000e+00  0.00000000e+00 -3.96719921e-06 -1.53787927e-06
  0.00000000e+00  0.00000000e+00  0.00000000e+00  4.62916166e-06]","[[-0.00052815  0.01878366]
 [-0.00042288 -0.00564376]]",[],0.0,0.0
1787560207.8026223,1.9174005228299675,1.4985140716428513,2.3202024840076927,"[ 3.19781526e-05 -5.22257565e-07  0.00000000e+00  0.00000000e+00
  0.00000000e+00 -3.96719921e-06 -5.22257565e-07  2.33363758e-05
  0.00000000e+00  0.00000000e+00  0.00000000e+00 -1.53787927e-06
  0.00000000e+00  0.00000000e+00  0.00000000e+00  0.00000000e+00
  0.00000000e+00  0.00000000e+00  0.00000000e+00  0.00000000e+00
  0.00000000e+00  0.00000000e+00  0.00000000e+00  0.00000000e+00
  0.00000000e+00  0.00000000e+00  0.00000000e+00  0.00000000e+00
  0.00000000e+00  0.00000000e+00 -3.96719921e-06 -1.53787927e-06
  0.00000000e+00  0.00000000e+00  0.00000000e+00  4.62916166e-06]","[[-0.00052815  0.01878366]
 [-0.00042288 -0.00564376]]",[],0.0,0.0
1787560207.856324,1.9174005228299675,1.4985140716428513,2.3202024840076927,"[ 3.19781526e-05 -5.22257565e-07  0.00000000e+00  0.00000000e+00
  0.00000000e+00 -3.96719921e-06 -5.22257565e-07  2.33363758e-05
  0.00000000e+00  0.00000000e+00  0.00000000e+00 -1.53787927e-06
  0.00000000e+00  0.00000000e+00  0.00000000e+00  0.00000000e+00
  0.00000000e+00  0.00000000e+00  0.00000000e+00  0.00000000e+00
  0.00000000e+00  0.00000000e+00  0.00000000e+00  0.00000000e+00
  0.00000000e+00  0.00000000e+00  0.00000000e+00  0.00000000e+00
  0.00000000e+00  0.00000000e+00 -3.96719921e-06 -1.53787927e-06
  0.00000000e+00  0.00000000e+00  0.00000000e+00  4.62916166e-06]","[[-0.00052815  0.01878366]
 [-0.00042288 -0.00564376]]",[],0.0,0.0
1787560207.9473524,1.9174005228299675,1.4985140716428513,2.3202024840076927,"[ 3.19781526e-05 -5.22257565e-07  0.00000000e+00  0.00000000e+00
  0.00000000e+00 -3.96719921e-06 -5.22257565e-07  2.33363758e-05
  0.00000000e+00  0.00000000e+00  0.00000000e+00 -1.53787927e-06
  0.00000000e+00  0.00000000e+00  0.00000000e+00  0.00000000e+00
  0.00000000e+00  0.00000000e+00  0.00000000e+00  0.00000000e+00
  0.00000000e+00  0.00000000e+00  0.00000000e+00  0.00000000e+00
  0.00000000e+00  0.00000000e+00  0.00000000e+00  0.00000000e+00
  0.00000000e+00  0.00000000e+00 -3.96719921e-06 -1.53787927e-06
  0.00000000e+00  0.00000000e+00  0.00000000e+00  4.62916166e-06]","[[-0.00052815  0.01878366]
 [-0.00042288 -0.00564376]]",[],0.0,0.0
1787560207.9500515,1.9174005228299675,1.4985140716428513,2.3202024840076927,"[ 3.19781526e-05 -5.22257565e-07  0.00000000e+00  0.00000000e+00
  0.00000000e+00 -3.96719921e-06 -5.22257565e-07  2.33363758e-05
  0.00000000e+00  0.00000000e+00  0.00000000e+00 -1.53787927e-06
  0.00000000e+00  0.00000000e+00  0.00000000e+00  0.00000000e+00
  0.00000000e+00  0.00000000e+00  0.00000000e+00  0.00000000e+00
  0.00000000e+00  0.00000000e+00  0.00000000e+00  0.00000000e+00
  0.00000000e+00  0.00000000e+00  0.00000000e+00  0.00000000e+00
  0.00000000e+00  0.00000000e+00 -3.96719921e-06 -1.53787927e-06
  0.00000000e+00  0.00000000e+00  0.00000000e+00  4.62916166e-06]","[[-0.00052815  0.01878366]
 [-0.00042288 -0.00564376]]",[],0.0,0.0
1787560208.0039556,1.9395032610690968,1.4681292741932848,2.3905069286925915,"[ 2.18875332e-05 -3.62126841e-07  0.00000000e+00  0.00000000e+00
  0.00000000e+00 -2.27619816e-06 -3.62126841e-07  1.53672220e-05
  0.00000000e+00  0.00000000e+00  0.00000000e+00 -8.56749077e-07
  0.00000000e+00  0.00000000e+00  0.00000000e+00  0.00000000e+00
  0.00000000e+00  0.00000000e+00  0.00000000e+00  0.00000000e+00
  0.00000000e+00  0.00000000e+00  0.00000000e+00  0.00000000e+00
  0.00000000e+00  0.00000000e+00  0.00000000e+00  0.00000000e+00
  0.00000000e+00  0.00000000e+00 -2.27619816e-06 -8.56749077e-07
  0.00000000e+00  0.00000000e+00  0.00000000e+00  4.00606602e-06]","[[ 5.30186396e-05  1.00622223e-02]
 [-3.83664676e-04  1.66984147e-03]]",[],0.0,0.0
1787560208.0957153,1.9395032610690968,1.4681292741932848,2.3905069286925915,"[ 2.18875332e-05 -3.62126841e-07  0.00000000e+00  0.00000000e+00
  0.00000000e+00 -2.27619816e-06 -3.62126841e-07  1.53672220e-05
  0.00000000e+00  0.00000000e+00  0.00000000e+00 -8.56749077e-07
  0.00000000e+00  0.00000000e+00  0.00000000e+00  0.00000000e+00
  0.00000000e+00  0.00000000e+00  0.00000000e+00  0.00000000e+00
  0.00000000e+00  0.00000000e+00  0.00000000e+00  0.00000000e+00
  0.00000000e+00  0.00000000e+00  0.00000000e+00  0.00000000e+00
  0.00000000e+00  0.00000000e+00 -2.27619816e-06 -8.56749077e-07
  0.00000000e+00  0.00000000e+00  0.00000000e+00  4.00606602e-06]","[[ 5.30186396e-05  1.00622223e-02]
 [-3.83664676e-04  1.66984147e-03]]",[],0.0,0.0
1787560208.1034281,1.9395032610690968,1.4681292741932848,2.3905069286925915,"[ 2.18875332e-05 -3.62126841e-07  0.00000000e+00  0.00000000e+00
  0.00000000e+00 -2.27619816e-06 -3.62126841e-07  1.53672220e-05
  0.00000000e+00  0.00000000e+00  0.00000000e+00 -8.56749077e-07
  0.00000000e+00  0.00000000e+00  0.00000000e+00  0.00000000e+00
  0.00000000e+00  0.00000000e+00  0.00000000e+00  0.00000000e+00
  0.00000000e+00  0.00000000e+00  0.00000000e+00  0.00000000e+00
  0.00000000e+00  0.00000000e+00  0.00000000e+00  0.00000000e+00
  0.00000000e+00  0.00000000e+00 -2.27619816e-06 -8.56749077e-07
  0.00000000e+00  0.00000000e+00  0.00000000e+00  4.00606602e-06]","[[ 5.30186396e-05  1.00622223e-02]
 [-3.83664676e-04  1.66984147e-03]]",[],0.0,0.0
1787560208.1520886,1.9395032610690968,1.4681292741932848,2.3905069286925915,"[ 2.18875332e-05 -3.62126841e-07  0.00000000e+00  0.00000000e+00
  0.00000000e+00 -2.27619816e-06 -3.62126841e-07  1.53672220e-05
  0.00000000e+00  0.00000000e+00  0.00000000e+00 -8.56749077e-07
  0.00000000e+00  0.00000000e+00  0.00000000e+00  0.00000000e+00
  0.00000000e+00  0.00000000e+00  0.00000000e+00  0.00000000e+00
  0.00000000e+00  0.00000000e+00  0.00000000e+00  0.00000000e+00
  0.00000000e+00  0.00000000e+00  0.00000000e+00  0.00000000e+00
  0.00000000e+00  0.00000000e+00 -2.27619816e-06 -8.56749077e-07
  0.00000000e+00  0.00000000e+00  0.00000000e+00  4.00606602e-06]","[[ 5.30186396e-05  1.00622223e-02]
 [-3.83664676e-04  1.66984147e-03]]",[],0.0,0.0
1787560208.209248,1.9395032610690968,1.4681292741932848,2.3905069286925915,"[ 2.18875332e-05 -3.62126841e-07  0.00000000e+00  0.00000000e+00
  0.00000000e+00 -2.27619816e-06 -3.62126841e-07  1.53672220e-05
  0.00000000e+00  0.00000000e+00  0.00000000e+00 -8.56749077e-07
  0.00000000e+00  0.00000000e+00  0.00000000e+00  0.00000000e+00
  0.00000000e+00  0.00000000e+00  0.00000000e+00  0.00000000e+00
  0.00000000e+00  0.00000000e+00  0.00000000e+00  0.00000000e+00
  0.00000000e+00  0.00000000e+00  0.00000000e+00  0.00000000e+00
  0.00000000e+00  0.00000000e+00 -2.27619816e-06 -8.56749077e-07
  0.00000000e+00  0.00000000e+00  0.00000000e+00  4.00606602e-06]","[[ 5.30186396e-05  1.00622223e-02]
 [-3.83664676e-04  1.66984147e-03]]",[],0.0,0.0
1787560208.2540035,1.9395032610690968,1.4681292741932848,2.3905069286925915,"[ 2.18875332e-05 -3.62126841e-07  0.00000000e+00  0.00000000e+00
  0.00000000e+00 -2.27619816e-06 -3.62126841e-07  1.53672220e-05
  0.00000000e+00  0.00000000e+00  0.00000000e+00 -8.56749077e-07
  0.00000000e+00  0.00000000e+00  0.00000000e+00  0.00000000e+00
  0.00000000e+00  0.00000000e+00  0.00000000e+00  0.00000000e+00
  0.00000000e+00  0.00000000e+00  0.00000000e+00  0.00000000e+00
  0.00000000e+00  0.00000000e+00  0.00000000e+00  0.00000000e+00
  0.00000000e+00  0.00000000e+00 -2.27619816e-06 -8.56749077e-07
  0.00000000e+00  0.00000000e+00  0.00000000e+00  4.00606602e-06]","[[ 5.30186396e-05  1.00622223e-02]
 [-3.83664676e-04  1.66984147e-03]]",[],0.0,0.0
1787560208.3454306,1.9395032610690968,1.4681292741932848,2.3905069286925915,"[ 2.18875332e-05 -3.62126841e-07  0.00000000e+00  0.00000000e+00
  0.00000000e+00 -2.27619816e-06 -3.62126841e-07  1.53672220e-05
  0.00000000e+00  0.00000000e+00  0.00000000e+00 -8.56749077e-07
  0.00000000e+00  0.00000000e+00  0.00000000e+00  0.00000000e+00
  0.00000000e+00  0.00000000e+00  0.00000000e+00  0.00000000e+00
  0.00000000e+00  0.00000000e+00  0.00000000e+00  0.00000000e+00
  0.00000000e+00  0.00000000e+00  0.00000000e+00  0.00000000e+00
  0.00000000e+00  0.00000000e+00 -2.27619816e-06 -8.56749077e-07
  0.00000000e+00  0.00000000e+00  0.00000000e+00  4.00606602e-06]","[[ 5.30186396e-05  1.00622223e-02]
 [-3.83664676e-04  1.66984147e-03]]",[],0.0,0.0
1787560208.3547275,1.9395032610690968,1.4681292741932848,2.3905069286925915,"[ 2.18875332e-05 -3.62126841e-07  0.00000000e+00  0.00000000e+00
  0.00000000e+00 -2.27619816e-06 -3.62126841e-07  1.53672220e-05
  0.00000000e+00  0.00000000e+00  0.00000000e+00 -8.56749077e-07
  0.00000000e+00  0.00000000e+00  0.00000000e+00  0.00000000e+00
  0.00000000e+00  0.00000000e+00  0.00000000e+00  0.00000000e+00
  0.00000000e+00  0.00000000e+00  0.00000000e+00  0.00000000e+00
  0.00000000e+00  0.00000000e+00  0.00000000e+00  0.00000000e+00
  0.00000000e+00  0.00000000e+00 -2.27619816e-06 -8.56749077e-07
  0.00000000e+00  0.00000000e+00  0.00000000e+00  4.00606602e-06]","[[ 5.30186396e-05  1.00622223e-02]
 [-3.83664676e-04  1.66984147e-03]]",[],0.0,0.0
1787560208.4388669,1.9395032610690968,1.4681292741932848,2.3905069286925915,"[ 2.18875332e-05 -3.62126841e-07  0.00000000e+00  0.00000000e+00
  0.00000000e+00 -2.27619816e-06 -3.62126841e-07  1.53672220e-05
  0.00000000e+00  0.00000000e+00  0.00000000e+00 -8.56749077e-07
  0.00000000e+00  0.00000000e+00  0.00000000e+00  0.00000000e+00
  0.00000000e+00  0.00000000e+00  0.00000000e+00  0.00000000e+00
  0.00000000e+00  0.00000000e+00  0.00000000e+00  0.00000000e+00
  0.00000000e+00  0.00000000e+00  0.00000000e+00  0.00000000e+00
  0.00000000e+00  0.00000000e+00 -2.27619816e-06 -8.56749077e-07
  0.00000000e+00  0.00000000e+00  0.00000000e+00  4.00606602e-06]","[[ 5.30186396e-05  1.00622223e-02]
 [-3.83664676e-04  1.66984147e-03]]",[],0.0,0.0
1787560208.450491,1.9395032610690968,1.4681292741932848,2.3905069286925915,"[ 2.18875332e-05 -3.62126841e-07  0.00000000e+00  0.00000000e+00
  0.00000000e+00 -2.27619816e-06 -3.62126841e-07  1.53672220e-05
  0.00000000e+00  0.00000000e+00  0.00000000e+00 -8.56749077e-07
  0.00000000e+00  0.00000000e+00  0.00000000e+00  0.00000000e+00
  0.00000000e+00  0.00000000e+00  0.00000000e+00  0.00000000e+00
  0.00000000e+00  0.00000000e+00  0.00000000e+00  0.00000000e+00
  0.00000000e+00  0.00000000e+00  0.00000000e+00  0.00000000e+00
  0.00000000e+00  0.00000000e+00 -2.27619816e-06 -8.56749077e-07
  0.00000000e+00  0.00000000e+00  0.00000000e+00  4.00606602e-06]","[[ 5.30186396e-05  1.00622223e-02]
 [-3.83664676e-04  1.66984147e-03]]",[],0.0,0.0
1787560208.5010612,1.9395032610690968,1.4681292741932848,2.3905069286925915,"[ 2.18875332e-05 -3.62126841e-07  0.00000000e+00  0.00000000e+00
  0.00000000e+00 -2.27619816e-06 -3.62126841e-07  1.53672220e-05
  0.00000000e+00  0.00000000e+00  0.00000000e+00 -8.56749077e-07
  0.00000000e+00  0.00000000e+00  0.00000000e+00  0.00000000e+00
  0.00000000e+00  0.00000000e+00  0.00000000e+00  0.00000000e+00
  0.00000000e+00  0.00000000e+00  0.00000000e+00  0.00000000e+00
  0.00000000e+00  0.00000000e+00  0.00000000e+00  0.00000000e+00
  0.00000000e+00  0.00000000e+00 -2.27619816e-06 -8.56749077e-07
  0.00000000e+00  0.00000000e+00  0.00000000e+00  4.00606602e-06]","[[ 5.30186396e-05  1.00622223e-02]
 [-3.83664676e-04  1.66984147e-03]]",[],0.0,0.0
1787560208.5485797,1.9395032610690968,1.4681292741932848,2.3905069286925915,"[ 2.18875332e-05 -3.62126841e-07  0.00000000e+00  0.00000000e+00
  0.00000000e+00 -2.27619816e-06 -3.62126841e-07  1.53672220e-05
  0.00000000e+00  0.00000000e+00  0.00000000e+00 -8.56749077e-07
  0.00000000e+00  0.00000000e+00  0.00000000e+00  0.00000000e+00
  0.00000000e+00  0.00000000e+00  0.00000000e+00  0.00000000e+00
  0.00000000e+00  0.00000000e+00  0.00000000e+00  0.00000000e+00
  0.00000000e+00  0.00000000e+00  0.00000000e+00  0.00000000e+00
  0.00000000e+00  0.00000000e+00 -2.27619816e-06 -8.56749077e-07
  0.00000000e+00  0.00000000e+00  0.00000000e+00  4.00606602e-06]","[[ 5.30186396e-05  1.00622223e-02]
 [-3.83664676e-04  1.66984147e-03]]",[],0.0,0.0
1787560208.6081553,1.9395032610690968,1.4681292741932848,2.3905069286925915,"[ 2.18875332e-05 -3.62126841e-07  0.00000000e+00  0.00000000e+00
  0.00000000e+00 -2.27619816e-06 -3.62126841e-07  1.53672220e-05
  0.00000000e+00  0.00000000e+00  0.00000000e+00 -8.56749077e-07
  0.00000000e+00  0.00000000e+00  0.00000000e+00  0.00000000e+00
  0.00000000e+00  0.00000000e+00  0.00000000e+00  0.00000000e+00
  0.00000000e+00  0.00000000e+00  0.00000000e+00  0.00000000e+00
  0.00000000e+00  0.00000000e+00  0.00000000e+00  0.00000000e+00
  0.00000000e+00  0.00000000e+00 -2.27619816e-06 -8.56749077e-07
  0.00000000e+00  0.00000000e+00  0.00000000e+00  4.00606602e-06]","[[ 5.30186396e-05  1.00622223e-02]
 [-3.83664676e-04  1.66984147e-03]]",[],0.0,0.0
1787560208.6512766,1.9395032610690968,1.4681292741932848,2.3905069286925915,"[ 2.18875332e-05 -3.62126841e-07  0.00000000e+00  0.00000000e+00
  0.00000000e+00 -2.27619816e-06 -3.62126841e-07  1.53672220e-05
  0.00000000e+00  0.00000000e+00  0.00000000e+00 -8.56749077e-07
  0.00000000e+00  0.00000000e+00  0.00000000e+00  0.00000000e+00
  0.00000000e+00  0.00000000e+00  0.00000000e+00  0.00000000e+00
  0.00000000e+00  0.00000000e+00  0.00000000e+00  0.00000000e+00
  0.00000000e+00  0.00000000e+00  0.00000000e+00  0.00000000e+00
  0.00000000e+00  0.00000000e+00 -2.27619816e-06 -8.56749077e-07
  0.00000000e+00  0.00000000e+00  0.00000000e+00  4.00606602e-06]","[[ 5.30186396e-05  1.00622223e-02]
 [-3.83664676e-04  1.66984147e-03]]",[],0.0,0.0
1787560208.7072487,1.9395032610690968,1.4681292741932848,2.3905069286925915,"[ 2.18875332e-05 -3.62126841e-07  0.00000000e+00  0.00000000e+00
  0.00000000e+00 -2.27619816e-06 -3.62126841e-07  1.53672220e-05
  0.00000000e+00  0.00000000e+00  0.00000000e+00 -8.56749077e-07
  0.00000000e+00  0.00000000e+00  0.00000000e+00  0.00000000e+00
  0.00000000e+00  0.00000000e+00  0.00000000e+00  0.00000000e+00
  0.00000000e+00  0.00000000e+00  0.00000000e+00  0.00000000e+00
  0.00000000e+00  0.00000000e+00  0.00000000e+00  0.00000000e+00
  0.00000000e+00  0.00000000e+00 -2.27619816e-06 -8.56749077e-07
  0.00000000e+00  0.00000000e+00  0.00000000e+00  4.00606602e-06]","[[ 5.30186396e-05  1.00622223e-02]
 [-3.83664676e-04  1.66984147e-03]]",[],0.0,0.0
1787560208.756861,1.9395032610690968,1.4681292741932848,2.3905069286925915,"[ 2.18875332e-05 -3.62126841e-07  0.00000000e+00  0.00000000e+00
  0.00000000e+00 -2.27619816e-06 -3.62126841e-07  1.53672220e-05
  0.00000000e+00  0.00000000e+00  0.00000000e+00 -8.56749077e-07
  0.00000000e+00  0.00000000e+00  0.00000000e+00  0.00000000e+00
  0.00000000e+00  0.00000000e+00  0.00000000e+00  0.00000000e+00
  0.00000000e+00  0.00000000e+00  0.00000000e+00  0.00000000e+00
  0.00000000e+00  0.00000000e+00  0.00000000e+00  0.00000000e+00
  0.00000000e+00  0.00000000e+00 -2.27619816e-06 -8.56749077e-07
  0.00000000e+00  0.00000000e+00  0.00000000e+00  4.00606602e-06]","[[ 5.30186396e-05  1.00622223e-02]
 [-3.83664676e-04  1.66984147e-03]]",[],0.0,0.0
1787560208.8037968,1.9395032610690968,1.4681292741932848,2.3905069286925915,"[ 2.18875332e-05 -3.62126841e-07  0.00000000e+00  0.00000000e+00
  0.00000000e+00 -2.27619816e-06 -3.62126841e-07  1.53672220e-05
  0.00000000e+00  0.00000000e+00  0.00000000e+00 -8.56749077e-07
  0.00000000e+00  0.00000000e+00  0.00000000e+00  0.00000000e+00
  0.00000000e+00  0.00000000e+00  0.00000000e+00  0.00000000e+00
  0.00000000e+00  0.00000000e+00  0.00000000e+00  0.00000000e+00
  0.00000000e+00  0.00000000e+00  0.00000000e+00  0.00000000e+00
  0.00000000e+00  0.00000000e+00 -2.27619816e-06 -8.56749077e-07
  0.00000000e+00  0.00000000e+00  0.00000000e+00  4.00606602e-06]","[[ 5.30186396e-05  1.00622223e-02]
 [-3.83664676e-04  1.66984147e-03]]",[],0.0,0.0
1787560208.8542674,1.9395032610690968,1.4681292741932848,2.3905069286925915,"[ 2.18875332e-05 -3.62126841e-07  0.00000000e+00  0.00000000e+00
  0.00000000e+00 -2.27619816e-06 -3.62126841e-07  1.53672220e-05
  0.00000000e+00  0.00000000e+00  0.00000000e+00 -8.56749077e-07
  0.00000000e+00  0.00000000e+00  0.00000000e+00  0.00000000e+00
  0.00000000e+00  0.00000000e+00  0.00000000e+00  0.00000000e+00
  0.00000000e+00  0.00000000e+00  0.00000000e+00  0.00000000e+00
  0.00000000e+00  0.00000000e+00  0.00000000e+00  0.00000000e+00
  0.00000000e+00  0.00000000e+00 -2.27619816e-06 -8.56749077e-07
  0.00000000e+00  0.00000000e+00  0.00000000e+00  4.00606602e-06]","[[ 5.30186396e-05  1.00622223e-02]
 [-3.83664676e-04  1.66984147e-03]]",[],0.0,0.0
1787560208.8994973,1.9395032610690968,1.4681292741932848,2.3905069286925915,"[ 2.18875332e-05 -3.62126841e-07  0.00000000e+00  0.00000000e+00
  0.00000000e+00 -2.27619816e-06 -3.62126841e-07  1.53672220e-05
  0.00000000e+00  0.00000000e+00  0.00000000e+00 -8.56749077e-07
  0.00000000e+00  0.00000000e+00  0.00000000e+00  0.00000000e+00
  0.00000000e+00  0.00000000e+00  0.00000000e+00  0.00000000e+00
  0.00000000e+00  0.00000000e+00  0.00000000e+00  0.00000000e+00
  0.00000000e+00  0.00000000e+00  0.00000000e+00  0.00000000e+00
  0.00000000e+00  0.00000000e+00 -2.27619816e-06 -8.56749077e-07
  0.00000000e+00  0.00000000e+00  0.00000000e+00  4.00606602e-06]","[[ 5.30186396e-05  1.00622223e-02]
 [-3.83664676e-04  1.66984147e-03]]",[],0.0,0.0
1787560208.9898758,1.9395032610690968,1.4681292741932848,2.3905069286925915,"[ 2.18875332e-05 -3.62126841e-07  0.00000000e+00  0.00000000e+00
  0.00000000e+00 -2.27619816e-06 -3.62126841e-07  1.53672220e-05
  0.00000000e+00  0.00000000e+00  0.00000000e+00 -8.56749077e-07
  0.00000000e+00  0.00000000e+00  0.00000000e+00  0.00000000e+00
  0.00000000e+00  0.00000000e+00  0.00000000e+00  0.00000000e+00
  0.00000000e+00  0.00000000e+00  0.00000000e+00  0.00000000e+00
  0.00000000e+00  0.00000000e+00  0.00000000e+00  0.00000000e+00
  0.00000000e+00  0.00000000e+00 -2.27619816e-06 -8.56749077e-07
  0.00000000e+00  0.00000000e+00  0.00000000e+00  4.00606602e-06]","[[ 5.30186396e-05  1.00622223e-02]
 [-3.83664676e-04  1.66984147e-03]]",[],0.0,0.0
1787560209.057649,1.9628371802324651,1.4492741623389056,2.4463587823572936,"[ 1.68967960e-05 -2.64713624e-08  0.00000000e+00  0.00000000e+00
  0.00000000e+00 -1.67102893e-06 -2.64713624e-08  1.15421944e-05
  0.00000000e+00  0.00000000e+00  0.00000000e+00 -6.99487202e-07
  0.00000000e+00  0.00000000e+00  0.00000000e+00  0.00000000e+00
  0.00000000e+00  0.00000000e+00  0.00000000e+00  0.00000000e+00
  0.00000000e+00  0.00000000e+00  0.00000000e+00  0.00000000e+00
  0.00000000e+00  0.00000000e+00  0.00000000e+00  0.00000000e+00
  0.00000000e+00  0.00000000e+00 -1.67102893e-06 -6.99487202e-07
  0.00000000e+00  0.00000000e+00  0.00000000e+00  4.01376728e-06]","[[ 3.60557212e-05  7.60270890e-03]
 [-2.87595493e-04  1.42734865e-03]]",[],0.0,0.0
1787560209.0997796,1.9628371802324651,1.4492741623389056,2.4463587823572936,"[ 1.68967960e-05 -2.64713624e-08  0.00000000e+00  0.00000000e+00
  0.00000000e+00 -1.67102893e-06 -2.64713624e-08  1.15421944e-05
  0.00000000e+00  0.00000000e+00  0.00000000e+00 -6.99487202e-07
  0.00000000e+00  0.00000000e+00  0.00000000e+00  0.00000000e+00
  0.00000000e+00  0.00000000e+00  0.00000000e+00  0.00000000e+00
  0.00000000e+00  0.00000000e+00  0.00000000e+00  0.00000000e+00
  0.00000000e+00  0.00000000e+00  0.00000000e+00  0.00000000e+00
  0.00000000e+00  0.00000000e+00 -1.67102893e-06 -6.99487202e-07
  0.00000000e+00  0.00000000e+00  0.00000000e+00  4.01376728e-06]","[[ 3.60557212e-05  7.60270890e-03]
 [-2.87595493e-04  1.42734865e-03]]",[],0.0,0.0
1787560209.1652515,1.9628371802324651,1.4492741623389056,2.4463587823572936,"[ 1.68967960e-05 -2.64713624e-08  0.00000000e+00  0.00000000e+00
  0.00000000e+00 -1.67102893e-06 -2.64713624e-08  1.15421944e-05
  0.00000000e+00  0.00000000e+00  0.00000000e+00 -6.99487202e-07
  0.00000000e+00  0.00000000e+00  0.00000000e+00  0.00000000e+00
  0.00000000e+00  0.00000000e+00  0.00000000e+00  0.00000000e+00
  0.00000000e+00  0.00000000e+00  0.00000000e+00  0.00000000e+00
  0.00000000e+00  0.00000000e+00  0.00000000e+00  0.00000000e+00
  0.00000000e+00  0.00000000e+00 -1.67102893e-06 -6.99487202e-07
  0.00000000e+00  0.00000000e+00  0.00000000e+00  4.01376728e-06]","[[ 3.60557212e-05  7.60270890e-03]
 [-2.87595493e-04  1.42734865e-03]]",[],0.0,0.0
1787560209.2021902,1.9628371802324651,1.4492741623389056,2.4463587823572936,"[ 1.68967960e-05 -2.64713624e-08  0.00000000e+00  0.00000000e+00
  0.00000000e+00 -1.67102893e-06 -2.64713624e-08  1.15421944e-05
  0.00000000e+00  0.00000000e+00  0.00000000e+00 -6.99487202e-07
  0.00000000e+00  0.00000000e+00  0.00000000e+00  0.00000000e+00
  0.00000000e+00  0.00000000e+00  0.00000000e+00  0.00000000e+00
  0.00000000e+00  0.00000000e+00  0.00000000e+00  0.00000000e+00
  0.00000000e+00  0.00000000e+00  0.00000000e+00  0.00000000e+00
  0.00000000e+00  0.00000000e+00 -1.67102893e-06 -6.99487202e-07
  0.00000000e+00  0.00000000e+00  0.00000000e+00  4.01376728e-06]","[[ 3.60557212e-05  7.60270890e-03]
 [-2.87595493e-04  1.42734865e-03]]",[],0.0,0.0
1787560209.2492528,1.9628371802324651,1.4492741623389056,2.4463587823572936,"[ 1.68967960e-05 -2.64713624e-08  0.00000000e+00  0.00000000e+00
  0.00000000e+00 -1.67102893e-06 -2.64713624e-08  1.15421944e-05
  0.00000000e+00  0.00000000e+00  0.00000000e+00 -6.99487202e-07
  0.00000000e+00  0.00000000e+00  0.00000000e+00  0.00000000e+00
  0.00000000e+00  0.00000000e+00  0.00000000e+00  0.00000000e+00
  0.00000000e+00  0.00000000e+00  0.00000000e+00  0.00000000e+00
  0.00000000e+00  0.00000000e+00  0.00000000e+00  0.00000000e+00
  0.00000000e+00  0.00000000e+00 -1.67102893e-06 -6.99487202e-07
  0.00000000e+00  0.00000000e+00  0.00000000e+00  4.01376728e-06]","[[ 3.60557212e-05  7.60270890e-03]
 [-2.87595493e-04  1.42734865e-03]]",[],0.0,0.0
1787560209.301332,1.9628371802324651,1.4492741623389056,2.4463587823572936,"[ 1.68967960e-05 -2.64713624e-08  0.00000000e+00  0.00000000e+00
  0.00000000e+00 -1.67102893e-06 -2.64713624e-08  1.15421944e-05
  0.00000000e+00  0.00000000e+00  0.00000000e+00 -6.99487202e-07
  0.00000000e+00  0.00000000e+00  0.00000000e+00  0.00000000e+00
  0.00000000e+00  0.00000000e+00  0.00000000e+00  0.00000000e+00
  0.00000000e+00  0.00000000e+00  0.00000000e+00  0.00000000e+00
  0.00000000e+00  0.00000000e+00  0.00000000e+00  0.00000000e+00
  0.00000000e+00  0.00000000e+00 -1.67102893e-06 -6.99487202e-07
  0.00000000e+00  0.00000000e+00  0.00000000e+00  4.01376728e-06]","[[ 3.60557212e-05  7.60270890e-03]
 [-2.87595493e-04  1.42734865e-03]]",[],0.0,0.0
1787560209.3530343,1.9628371802324651,1.4492741623389056,2.4463587823572936,"[ 1.68967960e-05 -2.64713624e-08  0.00000000e+00  0.00000000e+00
  0.00000000e+00 -1.67102893e-06 -2.64713624e-08  1.15421944e-05
  0.00000000e+00  0.00000000e+00  0.00000000e+00 -6.99487202e-07
  0.00000000e+00  0.00000000e+00  0.00000000e+00  0.00000000e+00
  0.00000000e+00  0.00000000e+00  0.00000000e+00  0.00000000e+00
  0.00000000e+00  0.00000000e+00  0.00000000e+00  0.00000000e+00
  0.00000000e+00  0.00000000e+00  0.00000000e+00  0.00000000e+00
  0.00000000e+00  0.00000000e+00 -1.67102893e-06 -6.99487202e-07
  0.00000000e+00  0.00000000e+00  0.00000000e+00  4.01376728e-06]","[[ 3.60557212e-05  7.60270890e-03]
 [-2.87595493e-04  1.42734865e-03]]",[],0.0,0.0
1787560209.3999894,1.9628371802324651,1.4492741623389056,2.4463587823572936,"[ 1.68967960e-05 -2.64713624e-08  0.00000000e+00  0.00000000e+00
  0.00000000e+00 -1.67102893e-06 -2.64713624e-08  1.15421944e-05
  0.00000000e+00  0.00000000e+00  0.00000000e+00 -6.99487202e-07
  0.00000000e+00  0.00000000e+00  0.00000000e+00  0.00000000e+00
  0.00000000e+00  0.00000000e+00  0.00000000e+00  0.00000000e+00
  0.00000000e+00  0.00000000e+00  0.00000000e+00  0.00000000e+00
  0.00000000e+00  0.00000000e+00  0.00000000e+00  0.00000000e+00
  0.00000000e+00  0.00000000e+00 -1.67102893e-06 -6.99487202e-07
  0.00000000e+00  0.00000000e+00  0.00000000e+00  4.01376728e-06]","[[ 3.60557212e-05  7.60270890e-03]
 [-2.87595493e-04  1.42734865e-03]]",[],0.0,0.0
1787560209.452677,1.9628371802324651,1.4492741623389056,2.4463587823572936,"[ 1.68967960e-05 -2.64713624e-08  0.00000000e+00  0.00000000e+00
  0.00000000e+00 -1.67102893e-06 -2.64713624e-08  1.15421944e-05
  0.00000000e+00  0.00000000e+00  0.00000000e+00 -6.99487202e-07
  0.00000000e+00  0.00000000e+00  0.00000000e+00  0.00000000e+00
  0.00000000e+00  0.00000000e+00  0.00000000e+00  0.00000000e+00
  0.00000000e+00  0.00000000e+00  0.00000000e+00  0.00000000e+00
  0.00000000e+00  0.00000000e+00  0.00000000e+00  0.00000000e+00
  0.00000000e+00  0.00000000e+00 -1.67102893e-06 -6.99487202e-07
  0.00000000e+00  0.00000000e+00  0.00000000e+00  4.01376728e-06]","[[ 3.60557212e-05  7.60270890e-03]
 [-2.87595493e-04  1.42734865e-03]]",[],0.0,0.0
1787560209.5007346,1.9628371802324651,1.4492741623389056,2.4463587823572936,"[ 1.68967960e-05 -2.64713624e-08  0.00000000e+00  0.00000000e+00
  0.00000000e+00 -1.67102893e-06 -2.64713624e-08  1.15421944e-05
  0.00000000e+00  0.00000000e+00  0.00000000e+00 -6.99487202e-07
  0.00000000e+00  0.00000000e+00  0.00000000e+00  0.00000000e+00
  0.00000000e+00  0.00000000e+00  0.00000000e+00  0.00000000e+00
  0.00000000e+00  0.00000000e+00  0.00000000e+00  0.00000000e+00
  0.00000000e+00  0.00000000e+00  0.00000000e+00  0.00000000e+00
  0.00000000e+00  0.00000000e+00 -1.67102893e-06 -6.99487202e-07
  0.00000000e+00  0.00000000e+00  0.00000000e+00  4.01376728e-06]","[[ 3.60557212e-05  7.60270890e-03]
 [-2.87595493e-04  1.42734865e-03]]",[],0.0,0.0
1787560209.5487964,1.9628371802324651,1.4492741623389056,2.4463587823572936,"[ 1.68967960e-05 -2.64713624e-08  0.00000000e+00  0.00000000e+00
  0.00000000e+00 -1.67102893e-06 -2.64713624e-08  1.15421944e-05
  0.00000000e+00  0.00000000e+00  0.00000000e+00 -6.99487202e-07
  0.00000000e+00  0.00000000e+00  0.00000000e+00  0.00000000e+00
  0.00000000e+00  0.00000000e+00  0.00000000e+00  0.00000000e+00
  0.00000000e+00  0.00000000e+00  0.00000000e+00  0.00000000e+00
  0.00000000e+00  0.00000000e+00  0.00000000e+00  0.00000000e+00
  0.00000000e+00  0.00000000e+00 -1.67102893e-06 -6.99487202e-07
  0.00000000e+00  0.00000000e+00  0.00000000e+00  4.01376728e-06]","[[ 3.60557212e-05  7.60270890e-03]
 [-2.87595493e-04  1.42734865e-03]]",[],0.0,0.0
1787560209.6019073,1.9628371802324651,1.4492741623389056,2.4463587823572936,"[ 1.68967960e-05 -2.64713624e-08  0.00000000e+00  0.00000000e+00
  0.00000000e+00 -1.67102893e-06 -2.64713624e-08  1.15421944e-05
  0.00000000e+00  0.00000000e+00  0.00000000e+00 -6.99487202e-07
  0.00000000e+00  0.00000000e+00  0.00000000e+00  0.00000000e+00
  0.00000000e+00  0.00000000e+00  0.00000000e+00  0.00000000e+00
  0.00000000e+00  0.00000000e+00  0.00000000e+00  0.00000000e+00
  0.00000000e+00  0.00000000e+00  0.00000000e+00  0.00000000e+00
  0.00000000e+00  0.00000000e+00 -1.67102893e-06 -6.99487202e-07
  0.00000000e+00  0.00000000e+00  0.00000000e+00  4.01376728e-06]","[[ 3.60557212e-05  7.60270890e-03]
 [-2.87595493e-04  1.42734865e-03]]",[],0.0,0.0
1787560209.6565514,1.9628371802324651,1.4492741623389056,2.4463587823572936,"[ 1.68967960e-05 -2.64713624e-08  0.00000000e+00  0.00000000e+00
  0.00000000e+00 -1.67102893e-06 -2.64713624e-08  1.15421944e-05
  0.00000000e+00  0.00000000e+00  0.00000000e+00 -6.99487202e-07
  0.00000000e+00  0.00000000e+00  0.00000000e+00  0.00000000e+00
  0.00000000e+00  0.00000000e+00  0.00000000e+00  0.00000000e+00
  0.00000000e+00  0.00000000e+00  0.00000000e+00  0.00000000e+00
  0.00000000e+00  0.00000000e+00  0.00000000e+00  0.00000000e+00
  0.00000000e+00  0.00000000e+00 -1.67102893e-06 -6.99487202e-07
  0.00000000e+00  0.00000000e+00  0.00000000e+00  4.01376728e-06]","[[ 3.60557212e-05  7.60270890e-03]
 [-2.87595493e-04  1.42734865e-03]]",[],0.0,0.0
1787560209.698747,1.9628371802324651,1.4492741623389056,2.4463587823572936,"[ 1.68967960e-05 -2.64713624e-08  0.00000000e+00  0.00000000e+00
  0.00000000e+00 -1.67102893e-06 -2.64713624e-08  1.15421944e-05
  0.00000000e+00  0.00000000e+00  0.00000000e+00 -6.99487202e-07
  0.00000000e+00  0.00000000e+00  0.00000000e+00  0.00000000e+00
  0.00000000e+00  0.00000000e+00  0.00000000e+00  0.00000000e+00
  0.00000000e+00  0.00000000e+00  0.00000000e+00  0.00000000e+00
  0.00000000e+00  0.00000000e+00  0.00000000e+00  0.00000000e+00
  0.00000000e+00  0.00000000e+00 -1.67102893e-06 -6.99487202e-07
  0.00000000e+00  0.00000000e+00  0.00000000e+00  4.01376728e-06]","[[ 3.60557212e-05  7.60270890e-03]
 [-2.87595493e-04  1.42734865e-03]]",[],0.0,0.0
1787560209.751533,1.9628371802324651,1.4492741623389056,2.4463587823572936,"[ 1.68967960e-05 -2.64713624e-08  0.00000000e+00  0.00000000e+00
  0.00000000e+00 -1.67102893e-06 -2.64713624e-08  1.15421944e-05
  0.00000000e+00  0.00000000e+00  0.00000000e+00 -6.99487202e-07
  0.00000000e+00  0.00000000e+00  0.00000000e+00  0.00000000e+00
  0.00000000e+00  0.00000000e+00  0.00000000e+00  0.00000000e+00
  0.00000000e+00  0.00000000e+00  0.00000000e+00  0.00000000e+00
  0.00000000e+00  0.00000000e+00  0.00000000e+00  0.00000000e+00
  0.00000000e+00  0.00000000e+00 -1.67102893e-06 -6.99487202e-07
  0.00000000e+00  0.00000000e+00  0.00000000e+00  4.01376728e-06]","[[ 3.60557212e-05  7.60270890e-03]
 [-2.87595493e-04  1.42734865e-03]]",[],0.0,0.0
1787560209.7994335,1.9628371802324651,1.4492741623389056,2.4463587823572936,"[ 1.68967960e-05 -2.64713624e-08  0.00000000e+00  0.00000000e+00
  0.00000000e+00 -1.67102893e-06 -2.64713624e-08  1.15421944e-05
  0.00000000e+00  0.00000000e+00  0.00000000e+00 -6.99487202e-07
  0.00000000e+00  0.00000000e+00  0.00000000e+00  0.00000000e+00
  0.00000000e+00  0.00000000e+00  0.00000000e+00  0.00000000e+00
  0.00000000e+00  0.00000000e+00  0.00000000e+00  0.00000000e+00
  0.00000000e+00  0.00000000e+00  0.00000000e+00  0.00000000e+00
  0.00000000e+00  0.00000000e+00 -1.67102893e-06 -6.99487202e-07
  0.00000000e+00  0.00000000e+00  0.00000000e+00  4.01376728e-06]","[[ 3.60557212e-05  7.60270890e-03]
 [-2.87595493e-04  1.42734865e-03]]",[],0.0,0.0
1787560209.8521216,1.9628371802324651,1.4492741623389056,2.4463587823572936,"[ 1.68967960e-05 -2.64713624e-08  0.00000000e+00  0.00000000e+00
  0.00000000e+00 -1.67102893e-06 -2.64713624e-08  1.15421944e-05
  0.00000000e+00  0.00000000e+00  0.00000000e+00 -6.99487202e-07
  0.00000000e+00  0.00000000e+00  0.00000000e+00  0.00000000e+00
  0.00000000e+00  0.00000000e+00  0.00000000e+00  0.00000000e+00
  0.00000000e+00  0.00000000e+00  0.00000000e+00  0.00000000e+00
  0.00000000e+00  0.00000000e+00  0.00000000e+00  0.00000000e+00
  0.00000000e+00  0.00000000e+00 -1.67102893e-06 -6.99487202e-07
  0.00000000e+00  0.00000000e+00  0.00000000e+00  4.01376728e-06]","[[ 3.60557212e-05  7.60270890e-03]
 [-2.87595493e-04  1.42734865e-03]]",[],0.0,0.0
1787560209.8993154,1.9628371802324651,1.4492741623389056,2.4463587823572936,"[ 1.68967960e-05 -2.64713624e-08  0.00000000e+00  0.00000000e+00
  0.00000000e+00 -1.67102893e-06 -2.64713624e-08  1.15421944e-05
  0.00000000e+00  0.00000000e+00  0.00000000e+00 -6.99487202e-07
  0.00000000e+00  0.00000000e+00  0.00000000e+00  0.00000000e+00
  0.00000000e+00  0.00000000e+00  0.00000000e+00  0.00000000e+00
  0.00000000e+00  0.00000000e+00  0.00000000e+00  0.00000000e+00
  0.00000000e+00  0.00000000e+00  0.00000000e+00  0.00000000e+00
  0.00000000e+00  0.00000000e+00 -1.67102893e-06 -6.99487202e-07
  0.00000000e+00  0.00000000e+00  0.00000000e+00  4.01376728e-06]","[[ 3.60557212e-05  7.60270890e-03]
 [-2.87595493e-04  1.42734865e-03]]",[],0.0,0.0
1787560209.953265,1.9628371802324651,1.4492741623389056,2.4463587823572936,"[ 1.68967960e-05 -2.64713624e-08  0.00000000e+00  0.00000000e+00
  0.00000000e+00 -1.67102893e-06 -2.64713624e-08  1.15421944e-05
  0.00000000e+00  0.00000000e+00  0.00000000e+00 -6.99487202e-07
  0.00000000e+00  0.00000000e+00  0.00000000e+00  0.00000000e+00
  0.00000000e+00  0.00000000e+00  0.00000000e+00  0.00000000e+00
  0.00000000e+00  0.00000000e+00  0.00000000e+00  0.00000000e+00
  0.00000000e+00  0.00000000e+00  0.00000000e+00  0.00000000e+00
  0.00000000e+00  0.00000000e+00 -1.67102893e-06 -6.99487202e-07
  0.00000000e+00  0.00000000e+00  0.00000000e+00  4.01376728e-06]","[[ 3.60557212e-05  7.60270890e-03]
 [-2.87595493e-04  1.42734865e-03]]",[],0.0,0.0
1787560209.9995594,1.9628371802324651,1.4492741623389056,2.4463587823572936,"[ 1.68967960e-05 -2.64713624e-08  0.00000000e+00  0.00000000e+00
  0.00000000e+00 -1.67102893e-06 -2.64713624e-08  1.15421944e-05
  0.00000000e+00  0.00000000e+00  0.00000000e+00 -6.99487202e-07
  0.00000000e+00  0.00000000e+00  0.00000000e+00  0.00000000e+00
  0.00000000e+00  0.00000000e+00  0.00000000e+00  0.00000000e+00
  0.00000000e+00  0.00000000e+00  0.00000000e+00  0.00000000e+00
  0.00000000e+00  0.00000000e+00  0.00000000e+00  0.00000000e+00
  0.00000000e+00  0.00000000e+00 -1.67102893e-06 -6.99487202e-07
  0.00000000e+00  0.00000000e+00  0.00000000e+00  4.01376728e-06]","[[ 3.60557212e-05  7.60270890e-03]
 [-2.87595493e-04  1.42734865e-03]]",[],0.0,0.0
1787560210.0520468,1.9628371802324651,1.4492741623389056,2.4463587823572936,"[ 1.68967960e-05 -2.64713624e-08  0.00000000e+00  0.00000000e+00
  0.00000000e+00 -1.67102893e-06 -2.64713624e-08  1.15421944e-05
  0.00000000e+00  0.00000000e+00  0.00000000e+00 -6.99487202e-07
  0.00000000e+00  0.00000000e+00  0.00000000e+00  0.00000000e+00
  0.00000000e+00  0.00000000e+00  0.00000000e+00  0.00000000e+00
  0.00000000e+00  0.00000000e+00  0.00000000e+00  0.00000000e+00
  0.00000000e+00  0.00000000e+00  0.00000000e+00  0.00000000e+00
  0.00000000e+00  0.00000000e+00 -1.67102893e-06 -6.99487202e-07
  0.00000000e+00  0.00000000e+00  0.00000000e+00  4.01376728e-06]","[[ 3.60557212e-05  7.60270890e-03]
 [-2.87595493e-04  1.42734865e-03]]",[],0.0,0.0
1787560210.0988314,1.9749084328538593,1.4350726293453329,2.4821400444897304,"[ 1.37951323e-05  2.66995306e-08  0.00000000e+00  0.00000000e+00
  0.00000000e+00 -1.26136304e-06  2.66995306e-08  9.23863970e-06
  0.00000000e+00  0.00000000e+00  0.00000000e+00 -6.59217402e-07
  0.00000000e+00  0.00000000e+00  0.00000000e+00  0.00000000e+00
  0.00000000e+00  0.00000000e+00  0.00000000e+00  0.00000000e+00
  0.00000000e+00  0.00000000e+00  0.00000000e+00  0.00000000e+00
  0.00000000e+00  0.00000000e+00  0.00000000e+00  0.00000000e+00
  0.00000000e+00  0.00000000e+00 -1.26136304e-06 -6.59217402e-07
  0.00000000e+00  0.00000000e+00  0.00000000e+00  4.12622579e-06]","[[ 3.12365049e-04  5.10869097e-03]
 [-9.68890528e-05  5.42520829e-03]]",[],0.0,0.0
1787560210.1491208,1.9749084328538593,1.4350726293453329,2.4821400444897304,"[ 1.37951323e-05  2.66995306e-08  0.00000000e+00  0.00000000e+00
  0.00000000e+00 -1.26136304e-06  2.66995306e-08  9.23863970e-06
  0.00000000e+00  0.00000000e+00  0.00000000e+00 -6.59217402e-07
  0.00000000e+00  0.00000000e+00  0.00000000e+00  0.00000000e+00
  0.00000000e+00  0.00000000e+00  0.00000000e+00  0.00000000e+00
  0.00000000e+00  0.00000000e+00  0.00000000e+00  0.00000000e+00
  0.00000000e+00  0.00000000e+00  0.00000000e+00  0.00000000e+00
  0.00000000e+00  0.00000000e+00 -1.26136304e-06 -6.59217402e-07
  0.00000000e+00  0.00000000e+00  0.00000000e+00  4.12622579e-06]","[[ 3.12365049e-04  5.10869097e-03]
 [-9.68890528e-05  5.42520829e-03]]",[],0.0,0.0
1787560210.1988316,1.9749084328538593,1.4350726293453329,2.4821400444897304,"[ 1.37951323e-05  2.66995306e-08  0.00000000e+00  0.00000000e+00
  0.00000000e+00 -1.26136304e-06  2.66995306e-08  9.23863970e-06
  0.00000000e+00  0.00000000e+00  0.00000000e+00 -6.59217402e-07
  0.00000000e+00  0.00000000e+00  0.00000000e+00  0.00000000e+00
  0.00000000e+00  0.00000000e+00  0.00000000e+00  0.00000000e+00
  0.00000000e+00  0.00000000e+00  0.00000000e+00  0.00000000e+00
  0.00000000e+00  0.00000000e+00  0.00000000e+00  0.00000000e+00
  0.00000000e+00  0.00000000e+00 -1.26136304e-06 -6.59217402e-07
  0.00000000e+00  0.00000000e+00  0.00000000e+00  4.12622579e-06]","[[ 3.12365049e-04  5.10869097e-03]
 [-9.68890528e-05  5.42520829e-03]]",[],0.0,0.0
1787560210.258258,1.9749084328538593,1.4350726293453329,2.4821400444897304,"[ 1.37951323e-05  2.66995306e-08  0.00000000e+00  0.00000000e+00
  0.00000000e+00 -1.26136304e-06  2.66995306e-08  9.23863970e-06
  0.00000000e+00  0.00000000e+00  0.00000000e+00 -6.59217402e-07
  0.00000000e+00  0.00000000e+00  0.00000000e+00  0.00000000e+00
  0.00000000e+00  0.00000000e+00  0.00000000e+00  0.00000000e+00
  0.00000000e+00  0.00000000e+00  0.00000000e+00  0.00000000e+00
  0.00000000e+00  0.00000000e+00  0.00000000e+00  0.00000000e+00
  0.00000000e+00  0.00000000e+00 -1.26136304e-06 -6.59217402e-07
  0.00000000e+00  0.00000000e+00  0.00000000e+00  4.12622579e-06]","[[ 3.12365049e-04  5.10869097e-03]
 [-9.68890528e-05  5.42520829e-03]]",[],0.0,0.0
1787560210.307536,1.9749084328538593,1.4350726293453329,2.4821400444897304,"[ 1.37951323e-05  2.66995306e-08  0.00000000e+00  0.00000000e+00
  0.00000000e+00 -1.26136304e-06  2.66995306e-08  9.23863970e-06
  0.00000000e+00  0.00000000e+00  0.00000000e+00 -6.59217402e-07
  0.00000000e+00  0.00000000e+00  0.00000000e+00  0.00000000e+00
  0.00000000e+00  0.00000000e+00  0.00000000e+00  0.00000000e+00
  0.00000000e+00  0.00000000e+00  0.00000000e+00  0.00000000e+00
  0.00000000e+00  0.00000000e+00  0.00000000e+00  0.00000000e+00
  0.00000000e+00  0.00000000e+00 -1.26136304e-06 -6.59217402e-07
  0.00000000e+00  0.00000000e+00  0.00000000e+00  4.12622579e-06]","[[ 3.12365049e-04  5.10869097e-03]
 [-9.68890528e-05  5.42520829e-03]]",[],0.0,0.0
1787560210.3503985,1.9749084328538593,1.4350726293453329,2.4821400444897304,"[ 1.37951323e-05  2.66995306e-08  0.00000000e+00  0.00000000e+00
  0.00000000e+00 -1.26136304e-06  2.66995306e-08  9.23863970e-06
  0.00000000e+00  0.00000000e+00  0.00000000e+00 -6.59217402e-07
  0.00000000e+00  0.00000000e+00  0.00000000e+00  0.00000000e+00
  0.00000000e+00  0.00000000e+00  0.00000000e+00  0.00000000e+00
  0.00000000e+00  0.00000000e+00  0.00000000e+00  0.00000000e+00
  0.00000000e+00  0.00000000e+00  0.00000000e+00  0.00000000e+00
  0.00000000e+00  0.00000000e+00 -1.26136304e-06 -6.59217402e-07
  0.00000000e+00  0.00000000e+00  0.00000000e+00  4.12622579e-06]","[[ 3.12365049e-04  5.10869097e-03]
 [-9.68890528e-05  5.42520829e-03]]",[],0.0,0.0
1787560210.4113233,1.9749084328538593,1.4350726293453329,2.4821400444897304,"[ 1.37951323e-05  2.66995306e-08  0.00000000e+00  0.00000000e+00
  0.00000000e+00 -1.26136304e-06  2.66995306e-08  9.23863970e-06
  0.00000000e+00  0.00000000e+00  0.00000000e+00 -6.59217402e-07
  0.00000000e+00  0.00000000e+00  0.00000000e+00  0.00000000e+00
  0.00000000e+00  0.00000000e+00  0.00000000e+00  0.00000000e+00
  0.00000000e+00  0.00000000e+00  0.00000000e+00  0.00000000e+00
  0.00000000e+00  0.00000000e+00  0.00000000e+00  0.00000000e+00
  0.00000000e+00  0.00000000e+00 -1.26136304e-06 -6.59217402e-07
  0.00000000e+00  0.00000000e+00  0.00000000e+00  4.12622579e-06]","[[ 3.12365049e-04  5.10869097e-03]
 [-9.68890528e-05  5.42520829e-03]]",[],0.0,0.0
1787560210.4504907,1.9749084328538593,1.4350726293453329,2.4821400444897304,"[ 1.37951323e-05  2.66995306e-08  0.00000000e+00  0.00000000e+00
  0.00000000e+00 -1.26136304e-06  2.66995306e-08  9.23863970e-06
  0.00000000e+00  0.00000000e+00  0.00000000e+00 -6.59217402e-07
  0.00000000e+00  0.00000000e+00  0.00000000e+00  0.00000000e+00
  0.00000000e+00  0.00000000e+00  0.00000000e+00  0.00000000e+00
  0.00000000e+00  0.00000000e+00  0.00000000e+00  0.00000000e+00
  0.00000000e+00  0.00000000e+00  0.00000000e+00  0.00000000e+00
  0.00000000e+00  0.00000000e+00 -1.26136304e-06 -6.59217402e-07
  0.00000000e+00  0.00000000e+00  0.00000000e+00  4.12622579e-06]","[[ 3.12365049e-04  5.10869097e-03]
 [-9.68890528e-05  5.42520829e-03]]",[],0.0,0.0
1787560210.4987946,1.9749084328538593,1.4350726293453329,2.4821400444897304,"[ 1.37951323e-05  2.66995306e-08  0.00000000e+00  0.00000000e+00
  0.00000000e+00 -1.26136304e-06  2.66995306e-08  9.23863970e-06
  0.00000000e+00  0.00000000e+00  0.00000000e+00 -6.59217402e-07
  0.00000000e+00  0.00000000e+00  0.00000000e+00  0.00000000e+00
  0.00000000e+00  0.00000000e+00  0.00000000e+00  0.00000000e+00
  0.00000000e+00  0.00000000e+00  0.00000000e+00  0.00000000e+00
  0.00000000e+00  0.00000000e+00  0.00000000e+00  0.00000000e+00
  0.00000000e+00  0.00000000e+00 -1.26136304e-06 -6.59217402e-07
  0.00000000e+00  0.00000000e+00  0.00000000e+00  4.12622579e-06]","[[ 3.12365049e-04  5.10869097e-03]
 [-9.68890528e-05  5.42520829e-03]]",[],0.0,0.0
1787560210.5494013,1.9749084328538593,1.4350726293453329,2.4821400444897304,"[ 1.37951323e-05  2.66995306e-08  0.00000000e+00  0.00000000e+00
  0.00000000e+00 -1.26136304e-06  2.66995306e-08  9.23863970e-06
  0.00000000e+00  0.00000000e+00  0.00000000e+00 -6.59217402e-07
  0.00000000e+00  0.00000000e+00  0.00000000e+00  0.00000000e+00
  0.00000000e+00  0.00000000e+00  0.00000000e+00  0.00000000e+00
  0.00000000e+00  0.00000000e+00  0.00000000e+00  0.00000000e+00
  0.00000000e+00  0.00000000e+00  0.00000000e+00  0.00000000e+00
  0.00000000e+00  0.00000000e+00 -1.26136304e-06 -6.59217402e-07
  0.00000000e+00  0.00000000e+00  0.00000000e+00  4.12622579e-06]","[[ 3.12365049e-04  5.10869097e-03]
 [-9.68890528e-05  5.42520829e-03]]",[],0.0,0.0
1787560210.6000206,1.9749084328538593,1.4350726293453329,2.4821400444897304,"[ 1.37951323e-05  2.66995306e-08  0.00000000e+00  0.00000000e+00
  0.00000000e+00 -1.26136304e-06  2.66995306e-08  9.23863970e-06
  0.00000000e+00  0.00000000e+00  0.00000000e+00 -6.59217402e-07
  0.00000000e+00  0.00000000e+00  0.00000000e+00  0.00000000e+00
  0.00000000e+00  0.00000000e+00  0.00000000e+00  0.00000000e+00
  0.00000000e+00  0.00000000e+00  0.00000000e+00  0.00000000e+00
  0.00000000e+00  0.00000000e+00  0.00000000e+00  0.00000000e+00
  0.00000000e+00  0.00000000e+00 -1.26136304e-06 -6.59217402e-07
  0.00000000e+00  0.00000000e+00  0.00000000e+00  4.12622579e-06]","[[ 3.12365049e-04  5.10869097e-03]
 [-9.68890528e-05  5.42520829e-03]]",[],0.0,0.0
1787560210.661146,1.9749084328538593,1.4350726293453329,2.4821400444897304,"[ 1.37951323e-05  2.66995306e-08  0.00000000e+00  0.00000000e+00
  0.00000000e+00 -1.26136304e-06  2.66995306e-08  9.23863970e-06
  0.00000000e+00  0.00000000e+00  0.00000000e+00 -6.59217402e-07
  0.00000000e+00  0.00000000e+00  0.00000000e+00  0.00000000e+00
  0.00000000e+00  0.00000000e+00  0.00000000e+00  0.00000000e+00
  0.00000000e+00  0.00000000e+00  0.00000000e+00  0.00000000e+00
  0.00000000e+00  0.00000000e+00  0.00000000e+00  0.00000000e+00
  0.00000000e+00  0.00000000e+00 -1.26136304e-06 -6.59217402e-07
  0.00000000e+00  0.00000000e+00  0.00000000e+00  4.12622579e-06]","[[ 3.12365049e-04  5.10869097e-03]
 [-9.68890528e-05  5.42520829e-03]]",[],0.0,0.0
1787560210.699421,1.9749084328538593,1.4350726293453329,2.4821400444897304,"[ 1.37951323e-05  2.66995306e-08  0.00000000e+00  0.00000000e+00
  0.00000000e+00 -1.26136304e-06  2.66995306e-08  9.23863970e-06
  0.00000000e+00  0.00000000e+00  0.00000000e+00 -6.59217402e-07
  0.00000000e+00  0.00000000e+00  0.00000000e+00  0.00000000e+00
  0.00000000e+00  0.00000000e+00  0.00000000e+00  0.00000000e+00
  0.00000000e+00  0.00000000e+00  0.00000000e+00  0.00000000e+00
  0.00000000e+00  0.00000000e+00  0.00000000e+00  0.00000000e+00
  0.00000000e+00  0.00000000e+00 -1.26136304e-06 -6.59217402e-07
  0.00000000e+00  0.00000000e+00  0.00000000e+00  4.12622579e-06]","[[ 3.12365049e-04  5.10869097e-03]
 [-9.68890528e-05  5.42520829e-03]]",[],0.0,0.0
1787560210.7531226,1.9749084328538593,1.4350726293453329,2.4821400444897304,"[ 1.37951323e-05  2.66995306e-08  0.00000000e+00  0.00000000e+00
  0.00000000e+00 -1.26136304e-06  2.66995306e-08  9.23863970e-06
  0.00000000e+00  0.00000000e+00  0.00000000e+00 -6.59217402e-07
  0.00000000e+00  0.00000000e+00  0.00000000e+00  0.00000000e+00
  0.00000000e+00  0.00000000e+00  0.00000000e+00  0.00000000e+00
  0.00000000e+00  0.00000000e+00  0.00000000e+00  0.00000000e+00
  0.00000000e+00  0.00000000e+00  0.00000000e+00  0.00000000e+00
  0.00000000e+00  0.00000000e+00 -1.26136304e-06 -6.59217402e-07
  0.00000000e+00  0.00000000e+00  0.00000000e+00  4.12622579e-06]","[[ 3.12365049e-04  5.10869097e-03]
 [-9.68890528e-05  5.42520829e-03]]",[],0.0,0.0
1787560210.8001657,1.9749084328538593,1.4350726293453329,2.4821400444897304,"[ 1.37951323e-05  2.66995306e-08  0.00000000e+00  0.00000000e+00
  0.00000000e+00 -1.26136304e-06  2.66995306e-08  9.23863970e-06
  0.00000000e+00  0.00000000e+00  0.00000000e+00 -6.59217402e-07
  0.00000000e+00  0.00000000e+00  0.00000000e+00  0.00000000e+00
  0.00000000e+00  0.00000000e+00  0.00000000e+00  0.00000000e+00
  0.00000000e+00  0.00000000e+00  0.00000000e+00  0.00000000e+00
  0.00000000e+00  0.00000000e+00  0.00000000e+00  0.00000000e+00
  0.00000000e+00  0.00000000e+00 -1.26136304e-06 -6.59217402e-07
  0.00000000e+00  0.00000000e+00  0.00000000e+00  4.12622579e-06]","[[ 3.12365049e-04  5.10869097e-03]
 [-9.68890528e-05  5.42520829e-03]]",[],0.0,0.0
1787560210.849739,1.9749084328538593,1.4350726293453329,2.4821400444897304,"[ 1.37951323e-05  2.66995306e-08  0.00000000e+00  0.00000000e+00
  0.00000000e+00 -1.26136304e-06  2.66995306e-08  9.23863970e-06
  0.00000000e+00  0.00000000e+00  0.00000000e+00 -6.59217402e-07
  0.00000000e+00  0.00000000e+00  0.00000000e+00  0.00000000e+00
  0.00000000e+00  0.00000000e+00  0.00000000e+00  0.00000000e+00
  0.00000000e+00  0.00000000e+00  0.00000000e+00  0.00000000e+00
  0.00000000e+00  0.00000000e+00  0.00000000e+00  0.00000000e+00
  0.00000000e+00  0.00000000e+00 -1.26136304e-06 -6.59217402e-07
  0.00000000e+00  0.00000000e+00  0.00000000e+00  4.12622579e-06]","[[ 3.12365049e-04  5.10869097e-03]
 [-9.68890528e-05  5.42520829e-03]]",[],0.0,0.0
1787560210.8998,1.9749084328538593,1.4350726293453329,2.4821400444897304,"[ 1.37951323e-05  2.66995306e-08  0.00000000e+00  0.00000000e+00
  0.00000000e+00 -1.26136304e-06  2.66995306e-08  9.23863970e-06
  0.00000000e+00  0.00000000e+00  0.00000000e+00 -6.59217402e-07
  0.00000000e+00  0.00000000e+00  0.00000000e+00  0.00000000e+00
  0.00000000e+00  0.00000000e+00  0.00000000e+00  0.00000000e+00
  0.00000000e+00  0.00000000e+00  0.00000000e+00  0.00000000e+00
  0.00000000e+00  0.00000000e+00  0.00000000e+00  0.00000000e+00
  0.00000000e+00  0.00000000e+00 -1.26136304e-06 -6.59217402e-07
  0.00000000e+00  0.00000000e+00  0.00000000e+00  4.12622579e-06]","[[ 3.12365049e-04  5.10869097e-03]
 [-9.68890528e-05  5.42520829e-03]]",[],0.0,0.0
1787560210.949803,1.9749084328538593,1.4350726293453329,2.4821400444897304,"[ 1.37951323e-05  2.66995306e-08  0.00000000e+00  0.00000000e+00
  0.00000000e+00 -1.26136304e-06  2.66995306e-08  9.23863970e-06
  0.00000000e+00  0.00000000e+00  0.00000000e+00 -6.59217402e-07
  0.00000000e+00  0.00000000e+00  0.00000000e+00  0.00000000e+00
  0.00000000e+00  0.00000000e+00  0.00000000e+00  0.00000000e+00
  0.00000000e+00  0.00000000e+00  0.00000000e+00  0.00000000e+00
  0.00000000e+00  0.00000000e+00  0.00000000e+00  0.00000000e+00
  0.00000000e+00  0.00000000e+00 -1.26136304e-06 -6.59217402e-07
  0.00000000e+00  0.00000000e+00  0.00000000e+00  4.12622579e-06]","[[ 3.12365049e-04  5.10869097e-03]
 [-9.68890528e-05  5.42520829e-03]]",[],0.0,0.0
1787560210.998715,1.9749084328538593,1.4350726293453329,2.4821400444897304,"[ 1.37951323e-05  2.66995306e-08  0.00000000e+00  0.00000000e+00
  0.00000000e+00 -1.26136304e-06  2.66995306e-08  9.23863970e-06
  0.00000000e+00  0.00000000e+00  0.00000000e+00 -6.59217402e-07
  0.00000000e+00  0.00000000e+00  0.00000000e+00  0.00000000e+00
  0.00000000e+00  0.00000000e+00  0.00000000e+00  0.00000000e+00
  0.00000000e+00  0.00000000e+00  0.00000000e+00  0.00000000e+00
  0.00000000e+00  0.00000000e+00  0.00000000e+00  0.00000000e+00
  0.00000000e+00  0.00000000e+00 -1.26136304e-06 -6.59217402e-07
  0.00000000e+00  0.00000000e+00  0.00000000e+00  4.12622579e-06]","[[ 3.12365049e-04  5.10869097e-03]
 [-9.68890528e-05  5.42520829e-03]]",[],0.0,0.0
1787560211.0556653,1.9749084328538593,1.4350726293453329,2.4821400444897304,"[ 1.37951323e-05  2.66995306e-08  0.00000000e+00  0.00000000e+00
  0.00000000e+00 -1.26136304e-06  2.66995306e-08  9.23863970e-06
  0.00000000e+00  0.00000000e+00  0.00000000e+00 -6.59217402e-07
  0.00000000e+00  0.00000000e+00  0.00000000e+00  0.00000000e+00
  0.00000000e+00  0.00000000e+00  0.00000000e+00  0.00000000e+00
  0.00000000e+00  0.00000000e+00  0.00000000e+00  0.00000000e+00
  0.00000000e+00  0.00000000e+00  0.00000000e+00  0.00000000e+00
  0.00000000e+00  0.00000000e+00 -1.26136304e-06 -6.59217402e-07
  0.00000000e+00  0.00000000e+00  0.00000000e+00  4.12622579e-06]","[[ 3.12365049e-04  5.10869097e-03]
 [-9.68890528e-05  5.42520829e-03]]",[],0.0,0.0
1787560211.0991871,1.9749084328538593,1.4350726293453329,2.4821400444897304,"[ 1.37951323e-05  2.66995306e-08  0.00000000e+00  0.00000000e+00
  0.00000000e+00 -1.26136304e-06  2.66995306e-08  9.23863970e-06
  0.00000000e+00  0.00000000e+00  0.00000000e+00 -6.59217402e-07
  0.00000000e+00  0.00000000e+00  0.00000000e+00  0.00000000e+00
  0.00000000e+00  0.00000000e+00  0.00000000e+00  0.00000000e+00
  0.00000000e+00  0.00000000e+00  0.00000000e+00  0.00000000e+00
  0.00000000e+00  0.00000000e+00  0.00000000e+00  0.00000000e+00
  0.00000000e+00  0.00000000e+00 -1.26136304e-06 -6.59217402e-07
  0.00000000e+00  0.00000000e+00  0.00000000e+00  4.12622579e-06]","[[ 3.12365049e-04  5.10869097e-03]
 [-9.68890528e-05  5.42520829e-03]]",[],0.0,0.0
1787560211.1492696,1.9749084328538593,1.4350726293453329,2.4821400444897304,"[ 1.37951323e-05  2.66995306e-08  0.00000000e+00  0.00000000e+00
  0.00000000e+00 -1.26136304e-06  2.66995306e-08  9.23863970e-06
  0.00000000e+00  0.00000000e+00  0.00000000e+00 -6.59217402e-07
  0.00000000e+00  0.00000000e+00  0.00000000e+00  0.00000000e+00
  0.00000000e+00  0.00000000e+00  0.00000000e+00  0.00000000e+00
  0.00000000e+00  0.00000000e+00  0.00000000e+00  0.00000000e+00
  0.00000000e+00  0.00000000e+00  0.00000000e+00  0.00000000e+00
  0.00000000e+00  0.00000000e+00 -1.26136304e-06 -6.59217402e-07
  0.00000000e+00  0.00000000e+00  0.00000000e+00  4.12622579e-06]","[[ 3.12365049e-04  5.10869097e-03]
 [-9.68890528e-05  5.42520829e-03]]",[],0.0,0.0
1787560211.1994197,1.9822202832496632,1.4210805912567437,2.4820538507624352,"[ 1.16682647e-05  5.10375427e-09  0.00000000e+00  0.00000000e+00
  0.00000000e+00 -9.45563335e-07  5.10375427e-09  7.59863159e-06
  0.00000000e+00  0.00000000e+00  0.00000000e+00 -5.50769724e-07
  0.00000000e+00  0.00000000e+00  0.00000000e+00  0.00000000e+00
  0.00000000e+00  0.00000000e+00  0.00000000e+00  0.00000000e+00
  0.00000000e+00  0.00000000e+00  0.00000000e+00  0.00000000e+00
  0.00000000e+00  0.00000000e+00  0.00000000e+00  0.00000000e+00
  0.00000000e+00  0.00000000e+00 -9.45563335e-07 -5.50769724e-07
  0.00000000e+00  0.00000000e+00  0.00000000e+00  3.84026327e-06]","[[ 2.64091747e-04  4.11190758e-03]
 [-8.04880307e-05  4.44989314e-03]]",[],0.0,0.0
1787560211.2523062,1.9822202832496632,1.4210805912567437,2.4820538507624352,"[ 1.16682647e-05  5.10375427e-09  0.00000000e+00  0.00000000e+00
  0.00000000e+00 -9.45563335e-07  5.10375427e-09  7.59863159e-06
  0.00000000e+00  0.00000000e+00  0.00000000e+00 -5.50769724e-07
  0.00000000e+00  0.00000000e+00  0.00000000e+00  0.00000000e+00
  0.00000000e+00  0.00000000e+00  0.00000000e+00  0.00000000e+00
  0.00000000e+00  0.00000000e+00  0.00000000e+00  0.00000000e+00
  0.00000000e+00  0.00000000e+00  0.00000000e+00  0.00000000e+00
  0.00000000e+00  0.00000000e+00 -9.45563335e-07 -5.50769724e-07
  0.00000000e+00  0.00000000e+00  0.00000000e+00  3.84026327e-06]","[[ 2.64091747e-04  4.11190758e-03]
 [-8.04880307e-05  4.44989314e-03]]",[],0.0,0.0
1787560211.3082368,1.9822202832496632,1.4210805912567437,2.4820538507624352,"[ 1.16682647e-05  5.10375427e-09  0.00000000e+00  0.00000000e+00
  0.00000000e+00 -9.45563335e-07  5.10375427e-09  7.59863159e-06
  0.00000000e+00  0.00000000e+00  0.00000000e+00 -5.50769724e-07
  0.00000000e+00  0.00000000e+00  0.00000000e+00  0.00000000e+00
  0.00000000e+00  0.00000000e+00  0.00000000e+00  0.00000000e+00
  0.00000000e+00  0.00000000e+00  0.00000000e+00  0.00000000e+00
  0.00000000e+00  0.00000000e+00  0.00000000e+00  0.00000000e+00
  0.00000000e+00  0.00000000e+00 -9.45563335e-07 -5.50769724e-07
  0.00000000e+00  0.00000000e+00  0.00000000e+00  3.84026327e-06]","[[ 2.64091747e-04  4.11190758e-03]
 [-8.04880307e-05  4.44989314e-03]]",[],0.0,0.0
1787560211.3492146,1.9822202832496632,1.4210805912567437,2.4820538507624352,"[ 1.16682647e-05  5.10375427e-09  0.00000000e+00  0.00000000e+00
  0.00000000e+00 -9.45563335e-07  5.10375427e-09  7.59863159e-06
  0.00000000e+00  0.00000000e+00  0.00000000e+00 -5.50769724e-07
  0.00000000e+00  0.00000000e+00  0.00000000e+00  0.00000000e+00
  0.00000000e+00  0.00000000e+00  0.00000000e+00  0.00000000e+00
  0.00000000e+00  0.00000000e+00  0.00000000e+00  0.00000000e+00
  0.00000000e+00  0.00000000e+00  0.00000000e+00  0.00000000e+00
  0.00000000e+00  0.00000000e+00 -9.45563335e-07 -5.50769724e-07
  0.00000000e+00  0.00000000e+00  0.00000000e+00  3.84026327e-06]","[[ 2.64091747e-04  4.11190758e-03]
 [-8.04880307e-05  4.44989314e-03]]",[],0.0,0.0
1787560211.4107177,1.9822202832496632,1.4210805912567437,2.4820538507624352,"[ 1.16682647e-05  5.10375427e-09  0.00000000e+00  0.00000000e+00
  0.00000000e+00 -9.45563335e-07  5.10375427e-09  7.59863159e-06
  0.00000000e+00  0.00000000e+00  0.00000000e+00 -5.50769724e-07
  0.00000000e+00  0.00000000e+00  0.00000000e+00  0.00000000e+00
  0.00000000e+00  0.00000000e+00  0.00000000e+00  0.00000000e+00
  0.00000000e+00  0.00000000e+00  0.00000000e+00  0.00000000e+00
  0.00000000e+00  0.00000000e+00  0.00000000e+00  0.00000000e+00
  0.00000000e+00  0.00000000e+00 -9.45563335e-07 -5.50769724e-07
  0.00000000e+00  0.00000000e+00  0.00000000e+00  3.84026327e-06]","[[ 2.64091747e-04  4.11190758e-03]
 [-8.04880307e-05  4.44989314e-03]]",[],0.0,0.0
1787560211.4494247,1.9822202832496632,1.4210805912567437,2.4820538507624352,"[ 1.16682647e-05  5.10375427e-09  0.00000000e+00  0.00000000e+00
  0.00000000e+00 -9.45563335e-07  5.10375427e-09  7.59863159e-06
  0.00000000e+00  0.00000000e+00  0.00000000e+00 -5.50769724e-07
  0.00000000e+00  0.00000000e+00  0.00000000e+00  0.00000000e+00
  0.00000000e+00  0.00000000e+00  0.00000000e+00  0.00000000e+00
  0.00000000e+00  0.00000000e+00  0.00000000e+00  0.00000000e+00
  0.00000000e+00  0.00000000e+00  0.00000000e+00  0.00000000e+00
  0.00000000e+00  0.00000000e+00 -9.45563335e-07 -5.50769724e-07
  0.00000000e+00  0.00000000e+00  0.00000000e+00  3.84026327e-06]","[[ 2.64091747e-04  4.11190758e-03]
 [-8.04880307e-05  4.44989314e-03]]",[],0.0,0.0
1787560211.503703,1.9822202832496632,1.4210805912567437,2.4820538507624352,"[ 1.16682647e-05  5.10375427e-09  0.00000000e+00  0.00000000e+00
  0.00000000e+00 -9.45563335e-07  5.10375427e-09  7.59863159e-06
  0.00000000e+00  0.00000000e+00  0.00000000e+00 -5.50769724e-07
  0.00000000e+00  0.00000000e+00  0.00000000e+00  0.00000000e+00
  0.00000000e+00  0.00000000e+00  0.00000000e+00  0.00000000e+00
  0.00000000e+00  0.00000000e+00  0.00000000e+00  0.00000000e+00
  0.00000000e+00  0.00000000e+00  0.00000000e+00  0.00000000e+00
  0.00000000e+00  0.00000000e+00 -9.45563335e-07 -5.50769724e-07
  0.00000000e+00  0.00000000e+00  0.00000000e+00  3.84026327e-06]","[[ 2.64091747e-04  4.11190758e-03]
 [-8.04880307e-05  4.44989314e-03]]",[],0.0,0.0
1787560211.5487478,1.9822202832496632,1.4210805912567437,2.4820538507624352,"[ 1.16682647e-05  5.10375427e-09  0.00000000e+00  0.00000000e+00
  0.00000000e+00 -9.45563335e-07  5.10375427e-09  7.59863159e-06
  0.00000000e+00  0.00000000e+00  0.00000000e+00 -5.50769724e-07
  0.00000000e+00  0.00000000e+00  0.00000000e+00  0.00000000e+00
  0.00000000e+00  0.00000000e+00  0.00000000e+00  0.00000000e+00
  0.00000000e+00  0.00000000e+00  0.00000000e+00  0.00000000e+00
  0.00000000e+00  0.00000000e+00  0.00000000e+00  0.00000000e+00
  0.00000000e+00  0.00000000e+00 -9.45563335e-07 -5.50769724e-07
  0.00000000e+00  0.00000000e+00  0.00000000e+00  3.84026327e-06]","[[ 2.64091747e-04  4.11190758e-03]
 [-8.04880307e-05  4.44989314e-03]]",[],0.0,0.0
1787560211.6036205,1.9822202832496632,1.4210805912567437,2.4820538507624352,"[ 1.16682647e-05  5.10375427e-09  0.00000000e+00  0.00000000e+00
  0.00000000e+00 -9.45563335e-07  5.10375427e-09  7.59863159e-06
  0.00000000e+00  0.00000000e+00  0.00000000e+00 -5.50769724e-07
  0.00000000e+00  0.00000000e+00  0.00000000e+00  0.00000000e+00
  0.00000000e+00  0.00000000e+00  0.00000000e+00  0.00000000e+00
  0.00000000e+00  0.00000000e+00  0.00000000e+00  0.00000000e+00
  0.00000000e+00  0.00000000e+00  0.00000000e+00  0.00000000e+00
  0.00000000e+00  0.00000000e+00 -9.45563335e-07 -5.50769724e-07
  0.00000000e+00  0.00000000e+00  0.00000000e+00  3.84026327e-06]","[[ 2.64091747e-04  4.11190758e-03]
 [-8.04880307e-05  4.44989314e-03]]",[],0.0,0.0
1787560211.6554646,1.9822202832496632,1.4210805912567437,2.4820538507624352,"[ 1.16682647e-05  5.10375427e-09  0.00000000e+00  0.00000000e+00
  0.00000000e+00 -9.45563335e-07  5.10375427e-09  7.59863159e-06
  0.00000000e+00  0.00000000e+00  0.00000000e+00 -5.50769724e-07
  0.00000000e+00  0.00000000e+00  0.00000000e+00  0.00000000e+00
  0.00000000e+00  0.00000000e+00  0.00000000e+00  0.00000000e+00
  0.00000000e+00  0.00000000e+00  0.00000000e+00  0.00000000e+00
  0.00000000e+00  0.00000000e+00  0.00000000e+00  0.00000000e+00
  0.00000000e+00  0.00000000e+00 -9.45563335e-07 -5.50769724e-07
  0.00000000e+00  0.00000000e+00  0.00000000e+00  3.84026327e-06]","[[ 2.64091747e-04  4.11190758e-03]
 [-8.04880307e-05  4.44989314e-03]]",[],0.0,0.0
1787560211.7011962,1.9822202832496632,1.4210805912567437,2.4820538507624352,"[ 1.16682647e-05  5.10375427e-09  0.00000000e+00  0.00000000e+00
  0.00000000e+00 -9.45563335e-07  5.10375427e-09  7.59863159e-06
  0.00000000e+00  0.00000000e+00  0.00000000e+00 -5.50769724e-07
  0.00000000e+00  0.00000000e+00  0.00000000e+00  0.00000000e+00
  0.00000000e+00  0.00000000e+00  0.00000000e+00  0.00000000e+00
  0.00000000e+00  0.00000000e+00  0.00000000e+00  0.00000000e+00
  0.00000000e+00  0.00000000e+00  0.00000000e+00  0.00000000e+00
  0.00000000e+00  0.00000000e+00 -9.45563335e-07 -5.50769724e-07
  0.00000000e+00  0.00000000e+00  0.00000000e+00  3.84026327e-06]","[[ 2.64091747e-04  4.11190758e-03]
 [-8.04880307e-05  4.44989314e-03]]",[],0.0,0.0
1787560211.7612562,1.9822202832496632,1.4210805912567437,2.4820538507624352,"[ 1.16682647e-05  5.10375427e-09  0.00000000e+00  0.00000000e+00
  0.00000000e+00 -9.45563335e-07  5.10375427e-09  7.59863159e-06
  0.00000000e+00  0.00000000e+00  0.00000000e+00 -5.50769724e-07
  0.00000000e+00  0.00000000e+00  0.00000000e+00  0.00000000e+00
  0.00000000e+00  0.00000000e+00  0.00000000e+00  0.00000000e+00
  0.00000000e+00  0.00000000e+00  0.00000000e+00  0.00000000e+00
  0.00000000e+00  0.00000000e+00  0.00000000e+00  0.00000000e+00
  0.00000000e+00  0.00000000e+00 -9.45563335e-07 -5.50769724e-07
  0.00000000e+00  0.00000000e+00  0.00000000e+00  3.84026327e-06]","[[ 2.64091747e-04  4.11190758e-03]
 [-8.04880307e-05  4.44989314e-03]]",[],0.0,0.0
1787560211.7994373,1.9822202832496632,1.4210805912567437,2.4820538507624352,"[ 1.16682647e-05  5.10375427e-09  0.00000000e+00  0.00000000e+00
  0.00000000e+00 -9.45563335e-07  5.10375427e-09  7.59863159e-06
  0.00000000e+00  0.00000000e+00  0.00000000e+00 -5.50769724e-07
  0.00000000e+00  0.00000000e+00  0.00000000e+00  0.00000000e+00
  0.00000000e+00  0.00000000e+00  0.00000000e+00  0.00000000e+00
  0.00000000e+00  0.00000000e+00  0.00000000e+00  0.00000000e+00
  0.00000000e+00  0.00000000e+00  0.00000000e+00  0.00000000e+00
  0.00000000e+00  0.00000000e+00 -9.45563335e-07 -5.50769724e-07
  0.00000000e+00  0.00000000e+00  0.00000000e+00  3.84026327e-06]","[[ 2.64091747e-04  4.11190758e-03]
 [-8.04880307e-05  4.44989314e-03]]",[],0.0,0.0
1787560211.8634758,1.9822202832496632,1.4210805912567437,2.4820538507624352,"[ 1.16682647e-05  5.10375427e-09  0.00000000e+00  0.00000000e+00
  0.00000000e+00 -9.45563335e-07  5.10375427e-09  7.59863159e-06
  0.00000000e+00  0.00000000e+00  0.00000000e+00 -5.50769724e-07
  0.00000000e+00  0.00000000e+00  0.00000000e+00  0.00000000e+00
  0.00000000e+00  0.00000000e+00  0.00000000e+00  0.00000000e+00
  0.00000000e+00  0.00000000e+00  0.00000000e+00  0.00000000e+00
  0.00000000e+00  0.00000000e+00  0.00000000e+00  0.00000000e+00
  0.00000000e+00  0.00000000e+00 -9.45563335e-07 -5.50769724e-07
  0.00000000e+00  0.00000000e+00  0.00000000e+00  3.84026327e-06]","[[ 2.64091747e-04  4.11190758e-03]
 [-8.04880307e-05  4.44989314e-03]]",[],0.0,0.0
1787560211.9098566,1.9822202832496632,1.4210805912567437,2.4820538507624352,"[ 1.16682647e-05  5.10375427e-09  0.00000000e+00  0.00000000e+00
  0.00000000e+00 -9.45563335e-07  5.10375427e-09  7.59863159e-06
  0.00000000e+00  0.00000000e+00  0.00000000e+00 -5.50769724e-07
  0.00000000e+00  0.00000000e+00  0.00000000e+00  0.00000000e+00
  0.00000000e+00  0.00000000e+00  0.00000000e+00  0.00000000e+00
  0.00000000e+00  0.00000000e+00  0.00000000e+00  0.00000000e+00
  0.00000000e+00  0.00000000e+00  0.00000000e+00  0.00000000e+00
  0.00000000e+00  0.00000000e+00 -9.45563335e-07 -5.50769724e-07
  0.00000000e+00  0.00000000e+00  0.00000000e+00  3.84026327e-06]","[[ 2.64091747e-04  4.11190758e-03]
 [-8.04880307e-05  4.44989314e-03]]",[],0.0,0.0
1787560211.9527385,1.9822202832496632,1.4210805912567437,2.4820538507624352,"[ 1.16682647e-05  5.10375427e-09  0.00000000e+00  0.00000000e+00
  0.00000000e+00 -9.45563335e-07  5.10375427e-09  7.59863159e-06
  0.00000000e+00  0.00000000e+00  0.00000000e+00 -5.50769724e-07
  0.00000000e+00  0.00000000e+00  0.00000000e+00  0.00000000e+00
  0.00000000e+00  0.00000000e+00  0.00000000e+00  0.00000000e+00
  0.00000000e+00  0.00000000e+00  0.00000000e+00  0.00000000e+00
  0.00000000e+00  0.00000000e+00  0.00000000e+00  0.00000000e+00
  0.00000000e+00  0.00000000e+00 -9.45563335e-07 -5.50769724e-07
  0.00000000e+00  0.00000000e+00  0.00000000e+00  3.84026327e-06]","[[ 2.64091747e-04  4.11190758e-03]
 [-8.04880307e-05  4.44989314e-03]]",[],0.0,0.0
1787560212.002437,1.9822202832496632,1.4210805912567437,2.4820538507624352,"[ 1.16682647e-05  5.10375427e-09  0.00000000e+00  0.00000000e+00
  0.00000000e+00 -9.45563335e-07  5.10375427e-09  7.59863159e-06
  0.00000000e+00  0.00000000e+00  0.00000000e+00 -5.50769724e-07
  0.00000000e+00  0.00000000e+00  0.00000000e+00  0.00000000e+00
  0.00000000e+00  0.00000000e+00  0.00000000e+00  0.00000000e+00
  0.00000000e+00  0.00000000e+00  0.00000000e+00  0.00000000e+00
  0.00000000e+00  0.00000000e+00  0.00000000e+00  0.00000000e+00
  0.00000000e+00  0.00000000e+00 -9.45563335e-07 -5.50769724e-07
  0.00000000e+00  0.00000000e+00  0.00000000e+00  3.84026327e-06]","[[ 2.64091747e-04  4.11190758e-03]
 [-8.04880307e-05  4.44989314e-03]]",[],0.0,0.0
1787560212.0607524,1.9822202832496632,1.4210805912567437,2.4820538507624352,"[ 1.16682647e-05  5.10375427e-09  0.00000000e+00  0.00000000e+00
  0.00000000e+00 -9.45563335e-07  5.10375427e-09  7.59863159e-06
  0.00000000e+00  0.00000000e+00  0.00000000e+00 -5.50769724e-07
  0.00000000e+00  0.00000000e+00  0.00000000e+00  0.00000000e+00
  0.00000000e+00  0.00000000e+00  0.00000000e+00  0.00000000e+00
  0.00000000e+00  0.00000000e+00  0.00000000e+00  0.00000000e+00
  0.00000000e+00  0.00000000e+00  0.00000000e+00  0.00000000e+00
  0.00000000e+00  0.00000000e+00 -9.45563335e-07 -5.50769724e-07
  0.00000000e+00  0.00000000e+00  0.00000000e+00  3.84026327e-06]","[[ 2.64091747e-04  4.11190758e-03]
 [-8.04880307e-05  4.44989314e-03]]",[],0.0,0.0
1787560212.1132007,1.9822202832496632,1.4210805912567437,2.4820538507624352,"[ 1.16682647e-05  5.10375427e-09  0.00000000e+00  0.00000000e+00
  0.00000000e+00 -9.45563335e-07  5.10375427e-09  7.59863159e-06
  0.00000000e+00  0.00000000e+00  0.00000000e+00 -5.50769724e-07
  0.00000000e+00  0.00000000e+00  0.00000000e+00  0.00000000e+00
  0.00000000e+00  0.00000000e+00  0.00000000e+00  0.00000000e+00
  0.00000000e+00  0.00000000e+00  0.00000000e+00  0.00000000e+00
  0.00000000e+00  0.00000000e+00  0.00000000e+00  0.00000000e+00
  0.00000000e+00  0.00000000e+00 -9.45563335e-07 -5.50769724e-07
  0.00000000e+00  0.00000000e+00  0.00000000e+00  3.84026327e-06]","[[ 2.64091747e-04  4.11190758e-03]
 [-8.04880307e-05  4.44989314e-03]]",[],0.0,0.0
1787560212.1641421,1.9822202832496632,1.4210805912567437,2.4820538507624352,"[ 1.16682647e-05  5.10375427e-09  0.00000000e+00  0.00000000e+00
  0.00000000e+00 -9.45563335e-07  5.10375427e-09  7.59863159e-06
  0.00000000e+00  0.00000000e+00  0.00000000e+00 -5.50769724e-07
  0.00000000e+00  0.00000000e+00  0.00000000e+00  0.00000000e+00
  0.00000000e+00  0.00000000e+00  0.00000000e+00  0.00000000e+00
  0.00000000e+00  0.00000000e+00  0.00000000e+00  0.00000000e+00
  0.00000000e+00  0.00000000e+00  0.00000000e+00  0.00000000e+00
  0.00000000e+00  0.00000000e+00 -9.45563335e-07 -5.50769724e-07
  0.00000000e+00  0.00000000e+00  0.00000000e+00  3.84026327e-06]","[[ 2.64091747e-04  4.11190758e-03]
 [-8.04880307e-05  4.44989314e-03]]",[],0.0,0.0
1787560212.2003796,1.9822202832496632,1.4210805912567437,2.4820538507624352,"[ 1.16682647e-05  5.10375427e-09  0.00000000e+00  0.00000000e+00
  0.00000000e+00 -9.45563335e-07  5.10375427e-09  7.59863159e-06
  0.00000000e+00  0.00000000e+00  0.00000000e+00 -5.50769724e-07
  0.00000000e+00  0.00000000e+00  0.00000000e+00  0.00000000e+00
  0.00000000e+00  0.00000000e+00  0.00000000e+00  0.00000000e+00
  0.00000000e+00  0.00000000e+00  0.00000000e+00  0.00000000e+00
  0.00000000e+00  0.00000000e+00  0.00000000e+00  0.00000000e+00
  0.00000000e+00  0.00000000e+00 -9.45563335e-07 -5.50769724e-07
  0.00000000e+00  0.00000000e+00  0.00000000e+00  3.84026327e-06]","[[ 2.64091747e-04  4.11190758e-03]
 [-8.04880307e-05  4.44989314e-03]]",[],0.0,0.0
1787560212.2848418,1.9822202832496632,1.4210805912567437,2.4820538507624352,"[ 1.16682647e-05  5.10375427e-09  0.00000000e+00  0.00000000e+00
  0.00000000e+00 -9.45563335e-07  5.10375427e-09  7.59863159e-06
  0.00000000e+00  0.00000000e+00  0.00000000e+00 -5.50769724e-07
  0.00000000e+00  0.00000000e+00  0.00000000e+00  0.00000000e+00
  0.00000000e+00  0.00000000e+00  0.00000000e+00  0.00000000e+00
  0.00000000e+00  0.00000000e+00  0.00000000e+00  0.00000000e+00
  0.00000000e+00  0.00000000e+00  0.00000000e+00  0.00000000e+00
  0.00000000e+00  0.00000000e+00 -9.45563335e-07 -5.50769724e-07
  0.00000000e+00  0.00000000e+00  0.00000000e+00  3.84026327e-06]","[[ 2.64091747e-04  4.11190758e-03]
 [-8.04880307e-05  4.44989314e-03]]",[],0.0,0.0
1787560212.3103356,1.9885844847172005,1.407740199681682,2.484681816945745,"[ 1.01156329e-05 -2.74316919e-08  0.00000000e+00  0.00000000e+00
  0.00000000e+00 -8.74545917e-07 -2.74316919e-08  6.57762383e-06
  0.00000000e+00  0.00000000e+00  0.00000000e+00 -4.48837535e-07
  0.00000000e+00  0.00000000e+00  0.00000000e+00  0.00000000e+00
  0.00000000e+00  0.00000000e+00  0.00000000e+00  0.00000000e+00
  0.00000000e+00  0.00000000e+00  0.00000000e+00  0.00000000e+00
  0.00000000e+00  0.00000000e+00  0.00000000e+00  0.00000000e+00
  0.00000000e+00  0.00000000e+00 -8.74545917e-07 -4.48837535e-07
  0.00000000e+00  0.00000000e+00  0.00000000e+00  3.90029858e-06]","[[ 2.28971364e-04  3.64593634e-03]
 [-7.08340600e-05  3.78264940e-03]]",[],0.0,0.0
1787560212.3506033,1.9885844847172005,1.407740199681682,2.484681816945745,"[ 1.01156329e-05 -2.74316919e-08  0.00000000e+00  0.00000000e+00
  0.00000000e+00 -8.74545917e-07 -2.74316919e-08  6.57762383e-06
  0.00000000e+00  0.00000000e+00  0.00000000e+00 -4.48837535e-07
  0.00000000e+00  0.00000000e+00  0.00000000e+00  0.00000000e+00
  0.00000000e+00  0.00000000e+00  0.00000000e+00  0.00000000e+00
  0.00000000e+00  0.00000000e+00  0.00000000e+00  0.00000000e+00
  0.00000000e+00  0.00000000e+00  0.00000000e+00  0.00000000e+00
  0.00000000e+00  0.00000000e+00 -8.74545917e-07 -4.48837535e-07
  0.00000000e+00  0.00000000e+00  0.00000000e+00  3.90029858e-06]","[[ 2.28971364e-04  3.64593634e-03]
 [-7.08340600e-05  3.78264940e-03]]",[],0.0,0.0
1787560212.4030921,1.9885844847172005,1.407740199681682,2.484681816945745,"[ 1.01156329e-05 -2.74316919e-08  0.00000000e+00  0.00000000e+00
  0.00000000e+00 -8.74545917e-07 -2.74316919e-08  6.57762383e-06
  0.00000000e+00  0.00000000e+00  0.00000000e+00 -4.48837535e-07
  0.00000000e+00  0.00000000e+00  0.00000000e+00  0.00000000e+00
  0.00000000e+00  0.00000000e+00  0.00000000e+00  0.00000000e+00
  0.00000000e+00  0.00000000e+00  0.00000000e+00  0.00000000e+00
  0.00000000e+00  0.00000000e+00  0.00000000e+00  0.00000000e+00
  0.00000000e+00  0.00000000e+00 -8.74545917e-07 -4.48837535e-07
  0.00000000e+00  0.00000000e+00  0.00000000e+00  3.90029858e-06]","[[ 2.28971364e-04  3.64593634e-03]
 [-7.08340600e-05  3.78264940e-03]]",[],0.0,0.0
1787560212.4587965,1.9885844847172005,1.407740199681682,2.484681816945745,"[ 1.01156329e-05 -2.74316919e-08  0.00000000e+00  0.00000000e+00
  0.00000000e+00 -8.74545917e-07 -2.74316919e-08  6.57762383e-06
  0.00000000e+00  0.00000000e+00  0.00000000e+00 -4.48837535e-07
  0.00000000e+00  0.00000000e+00  0.00000000e+00  0.00000000e+00
  0.00000000e+00  0.00000000e+00  0.00000000e+00  0.00000000e+00
  0.00000000e+00  0.00000000e+00  0.00000000e+00  0.00000000e+00
  0.00000000e+00  0.00000000e+00  0.00000000e+00  0.00000000e+00
  0.00000000e+00  0.00000000e+00 -8.74545917e-07 -4.48837535e-07
  0.00000000e+00  0.00000000e+00  0.00000000e+00  3.90029858e-06]","[[ 2.28971364e-04  3.64593634e-03]
 [-7.08340600e-05  3.78264940e-03]]",[],0.0,0.0
1787560212.5034025,1.9885844847172005,1.407740199681682,2.484681816945745,"[ 1.01156329e-05 -2.74316919e-08  0.00000000e+00  0.00000000e+00
  0.00000000e+00 -8.74545917e-07 -2.74316919e-08  6.57762383e-06
  0.00000000e+00  0.00000000e+00  0.00000000e+00 -4.48837535e-07
  0.00000000e+00  0.00000000e+00  0.00000000e+00  0.00000000e+00
  0.00000000e+00  0.00000000e+00  0.00000000e+00  0.00000000e+00
  0.00000000e+00  0.00000000e+00  0.00000000e+00  0.00000000e+00
  0.00000000e+00  0.00000000e+00  0.00000000e+00  0.00000000e+00
  0.00000000e+00  0.00000000e+00 -8.74545917e-07 -4.48837535e-07
  0.00000000e+00  0.00000000e+00  0.00000000e+00  3.90029858e-06]","[[ 2.28971364e-04  3.64593634e-03]
 [-7.08340600e-05  3.78264940e-03]]",[],0.0,0.0
1787560212.551069,1.9885844847172005,1.407740199681682,2.484681816945745,"[ 1.01156329e-05 -2.74316919e-08  0.00000000e+00  0.00000000e+00
  0.00000000e+00 -8.74545917e-07 -2.74316919e-08  6.57762383e-06
  0.00000000e+00  0.00000000e+00  0.00000000e+00 -4.48837535e-07
  0.00000000e+00  0.00000000e+00  0.00000000e+00  0.00000000e+00
  0.00000000e+00  0.00000000e+00  0.00000000e+00  0.00000000e+00
  0.00000000e+00  0.00000000e+00  0.00000000e+00  0.00000000e+00
  0.00000000e+00  0.00000000e+00  0.00000000e+00  0.00000000e+00
  0.00000000e+00  0.00000000e+00 -8.74545917e-07 -4.48837535e-07
  0.00000000e+00  0.00000000e+00  0.00000000e+00  3.90029858e-06]","[[ 2.28971364e-04  3.64593634e-03]
 [-7.08340600e-05  3.78264940e-03]]",[],0.0,0.0
1787560212.6026256,1.9885844847172005,1.407740199681682,2.484681816945745,"[ 1.01156329e-05 -2.74316919e-08  0.00000000e+00  0.00000000e+00
  0.00000000e+00 -8.74545917e-07 -2.74316919e-08  6.57762383e-06
  0.00000000e+00  0.00000000e+00  0.00000000e+00 -4.48837535e-07
  0.00000000e+00  0.00000000e+00  0.00000000e+00  0.00000000e+00
  0.00000000e+00  0.00000000e+00  0.00000000e+00  0.00000000e+00
  0.00000000e+00  0.00000000e+00  0.00000000e+00  0.00000000e+00
  0.00000000e+00  0.00000000e+00  0.00000000e+00  0.00000000e+00
  0.00000000e+00  0.00000000e+00 -8.74545917e-07 -4.48837535e-07
  0.00000000e+00  0.00000000e+00  0.00000000e+00  3.90029858e-06]","[[ 2.28971364e-04  3.64593634e-03]
 [-7.08340600e-05  3.78264940e-03]]",[],0.0,0.0
1787560212.6556401,1.9885844847172005,1.407740199681682,2.484681816945745,"[ 1.01156329e-05 -2.74316919e-08  0.00000000e+00  0.00000000e+00
  0.00000000e+00 -8.74545917e-07 -2.74316919e-08  6.57762383e-06
  0.00000000e+00  0.00000000e+00  0.00000000e+00 -4.48837535e-07
  0.00000000e+00  0.00000000e+00  0.00000000e+00  0.00000000e+00
  0.00000000e+00  0.00000000e+00  0.00000000e+00  0.00000000e+00
  0.00000000e+00  0.00000000e+00  0.00000000e+00  0.00000000e+00
  0.00000000e+00  0.00000000e+00  0.00000000e+00  0.00000000e+00
  0.00000000e+00  0.00000000e+00 -8.74545917e-07 -4.48837535e-07
  0.00000000e+00  0.00000000e+00  0.00000000e+00  3.90029858e-06]","[[ 2.28971364e-04  3.64593634e-03]
 [-7.08340600e-05  3.78264940e-03]]",[],0.0,0.0
1787560212.7104986,1.9885844847172005,1.407740199681682,2.484681816945745,"[ 1.01156329e-05 -2.74316919e-08  0.00000000e+00  0.00000000e+00
  0.00000000e+00 -8.74545917e-07 -2.74316919e-08  6.57762383e-06
  0.00000000e+00  0.00000000e+00  0.00000000e+00 -4.48837535e-07
  0.00000000e+00  0.00000000e+00  0.00000000e+00  0.00000000e+00
  0.00000000e+00  0.00000000e+00  0.00000000e+00  0.00000000e+00
  0.00000000e+00  0.00000000e+00  0.00000000e+00  0.00000000e+00
  0.00000000e+00  0.00000000e+00  0.00000000e+00  0.00000000e+00
  0.00000000e+00  0.00000000e+00 -8.74545917e-07 -4.48837535e-07
  0.00000000e+00  0.00000000e+00  0.00000000e+00  3.90029858e-06]","[[ 2.28971364e-04  3.64593634e-03]
 [-7.08340600e-05  3.78264940e-03]]",[],0.0,0.0
1787560212.7692428,1.9885844847172005,1.407740199681682,2.484681816945745,"[ 1.01156329e-05 -2.74316919e-08  0.00000000e+00  0.00000000e+00
  0.00000000e+00 -8.74545917e-07 -2.74316919e-08  6.57762383e-06
  0.00000000e+00  0.00000000e+00  0.00000000e+00 -4.48837535e-07
  0.00000000e+00  0.00000000e+00  0.00000000e+00  0.00000000e+00
  0.00000000e+00  0.00000000e+00  0.00000000e+00  0.00000000e+00
  0.00000000e+00  0.00000000e+00  0.00000000e+00  0.00000000e+00
  0.00000000e+00  0.00000000e+00  0.00000000e+00  0.00000000e+00
  0.00000000e+00  0.00000000e+00 -8.74545917e-07 -4.48837535e-07
  0.00000000e+00  0.00000000e+00  0.00000000e+00  3.90029858e-06]","[[ 2.28971364e-04  3.64593634e-03]
 [-7.08340600e-05  3.78264940e-03]]",[],0.0,0.0
1787560212.7985737,1.9885844847172005,1.407740199681682,2.484681816945745,"[ 1.01156329e-05 -2.74316919e-08  0.00000000e+00  0.00000000e+00
  0.00000000e+00 -8.74545917e-07 -2.74316919e-08  6.57762383e-06
  0.00000000e+00  0.00000000e+00  0.00000000e+00 -4.48837535e-07
  0.00000000e+00  0.00000000e+00  0.00000000e+00  0.00000000e+00
  0.00000000e+00  0.00000000e+00  0.00000000e+00  0.00000000e+00
  0.00000000e+00  0.00000000e+00  0.00000000e+00  0.00000000e+00
  0.00000000e+00  0.00000000e+00  0.00000000e+00  0.00000000e+00
  0.00000000e+00  0.00000000e+00 -8.74545917e-07 -4.48837535e-07
  0.00000000e+00  0.00000000e+00  0.00000000e+00  3.90029858e-06]","[[ 2.28971364e-04  3.64593634e-03]
 [-7.08340600e-05  3.78264940e-03]]",[],0.0,0.0
1787560212.8505352,1.9885844847172005,1.407740199681682,2.484681816945745,"[ 1.01156329e-05 -2.74316919e-08  0.00000000e+00  0.00000000e+00
  0.00000000e+00 -8.74545917e-07 -2.74316919e-08  6.57762383e-06
  0.00000000e+00  0.00000000e+00  0.00000000e+00 -4.48837535e-07
  0.00000000e+00  0.00000000e+00  0.00000000e+00  0.00000000e+00
  0.00000000e+00  0.00000000e+00  0.00000000e+00  0.00000000e+00
  0.00000000e+00  0.00000000e+00  0.00000000e+00  0.00000000e+00
  0.00000000e+00  0.00000000e+00  0.00000000e+00  0.00000000e+00
  0.00000000e+00  0.00000000e+00 -8.74545917e-07 -4.48837535e-07
  0.00000000e+00  0.00000000e+00  0.00000000e+00  3.90029858e-06]","[[ 2.28971364e-04  3.64593634e-03]
 [-7.08340600e-05  3.78264940e-03]]",[],0.0,0.0
1787560212.8997896,1.9885844847172005,1.407740199681682,2.484681816945745,"[ 1.01156329e-05 -2.74316919e-08  0.00000000e+00  0.00000000e+00
  0.00000000e+00 -8.74545917e-07 -2.74316919e-08  6.57762383e-06
  0.00000000e+00  0.00000000e+00  0.00000000e+00 -4.48837535e-07
  0.00000000e+00  0.00000000e+00  0.00000000e+00  0.00000000e+00
  0.00000000e+00  0.00000000e+00  0.00000000e+00  0.00000000e+00
  0.00000000e+00  0.00000000e+00  0.00000000e+00  0.00000000e+00
  0.00000000e+00  0.00000000e+00  0.00000000e+00  0.00000000e+00
  0.00000000e+00  0.00000000e+00 -8.74545917e-07 -4.48837535e-07
  0.00000000e+00  0.00000000e+00  0.00000000e+00  3.90029858e-06]","[[ 2.28971364e-04  3.64593634e-03]
 [-7.08340600e-05  3.78264940e-03]]",[],0.0,0.0
1787560212.9496658,1.9885844847172005,1.407740199681682,2.484681816945745,"[ 1.01156329e-05 -2.74316919e-08  0.00000000e+00  0.00000000e+00
  0.00000000e+00 -8.74545917e-07 -2.74316919e-08  6.57762383e-06
  0.00000000e+00  0.00000000e+00  0.00000000e+00 -4.48837535e-07
  0.00000000e+00  0.00000000e+00  0.00000000e+00  0.00000000e+00
  0.00000000e+00  0.00000000e+00  0.00000000e+00  0.00000000e+00
  0.00000000e+00  0.00000000e+00  0.00000000e+00  0.00000000e+00
  0.00000000e+00  0.00000000e+00  0.00000000e+00  0.00000000e+00
  0.00000000e+00  0.00000000e+00 -8.74545917e-07 -4.48837535e-07
  0.00000000e+00  0.00000000e+00  0.00000000e+00  3.90029858e-06]","[[ 2.28971364e-04  3.64593634e-03]
 [-7.08340600e-05  3.78264940e-03]]",[],0.0,0.0
1787560212.9995835,1.9885844847172005,1.407740199681682,2.484681816945745,"[ 1.01156329e-05 -2.74316919e-08  0.00000000e+00  0.00000000e+00
  0.00000000e+00 -8.74545917e-07 -2.74316919e-08  6.57762383e-06
  0.00000000e+00  0.00000000e+00  0.00000000e+00 -4.48837535e-07
  0.00000000e+00  0.00000000e+00  0.00000000e+00  0.00000000e+00
  0.00000000e+00  0.00000000e+00  0.00000000e+00  0.00000000e+00
  0.00000000e+00  0.00000000e+00  0.00000000e+00  0.00000000e+00
  0.00000000e+00  0.00000000e+00  0.00000000e+00  0.00000000e+00
  0.00000000e+00  0.00000000e+00 -8.74545917e-07 -4.48837535e-07
  0.00000000e+00  0.00000000e+00  0.00000000e+00  3.90029858e-06]","[[ 2.28971364e-04  3.64593634e-03]
 [-7.08340600e-05  3.78264940e-03]]",[],0.0,0.0
1787560213.0505288,1.9885844847172005,1.407740199681682,2.484681816945745,"[ 1.01156329e-05 -2.74316919e-08  0.00000000e+00  0.00000000e+00
  0.00000000e+00 -8.74545917e-07 -2.74316919e-08  6.57762383e-06
  0.00000000e+00  0.00000000e+00  0.00000000e+00 -4.48837535e-07
  0.00000000e+00  0.00000000e+00  0.00000000e+00  0.00000000e+00
  0.00000000e+00  0.00000000e+00  0.00000000e+00  0.00000000e+00
  0.00000000e+00  0.00000000e+00  0.00000000e+00  0.00000000e+00
  0.00000000e+00  0.00000000e+00  0.00000000e+00  0.00000000e+00
  0.00000000e+00  0.00000000e+00 -8.74545917e-07 -4.48837535e-07
  0.00000000e+00  0.00000000e+00  0.00000000e+00  3.90029858e-06]","[[ 2.28971364e-04  3.64593634e-03]
 [-7.08340600e-05  3.78264940e-03]]",[],0.0,0.0
1787560213.099545,1.9885844847172005,1.407740199681682,2.484681816945745,"[ 1.01156329e-05 -2.74316919e-08  0.00000000e+00  0.00000000e+00
  0.00000000e+00 -8.74545917e-07 -2.74316919e-08  6.57762383e-06
  0.00000000e+00  0.00000000e+00  0.00000000e+00 -4.48837535e-07
  0.00000000e+00  0.00000000e+00  0.00000000e+00  0.00000000e+00
  0.00000000e+00  0.00000000e+00  0.00000000e+00  0.00000000e+00
  0.00000000e+00  0.00000000e+00  0.00000000e+00  0.00000000e+00
  0.00000000e+00  0.00000000e+00  0.00000000e+00  0.00000000e+00
  0.00000000e+00  0.00000000e+00 -8.74545917e-07 -4.48837535e-07
  0.00000000e+00  0.00000000e+00  0.00000000e+00  3.90029858e-06]","[[ 2.28971364e-04  3.64593634e-03]
 [-7.08340600e-05  3.78264940e-03]]",[],0.0,0.0
1787560213.150314,1.9885844847172005,1.407740199681682,2.484681816945745,"[ 1.01156329e-05 -2.74316919e-08  0.00000000e+00  0.00000000e+00
  0.00000000e+00 -8.74545917e-07 -2.74316919e-08  6.57762383e-06
  0.00000000e+00  0.00000000e+00  0.00000000e+00 -4.48837535e-07
  0.00000000e+00  0.00000000e+00  0.00000000e+00  0.00000000e+00
  0.00000000e+00  0.00000000e+00  0.00000000e+00  0.00000000e+00
  0.00000000e+00  0.00000000e+00  0.00000000e+00  0.00000000e+00
  0.00000000e+00  0.00000000e+00  0.00000000e+00  0.00000000e+00
  0.00000000e+00  0.00000000e+00 -8.74545917e-07 -4.48837535e-07
  0.00000000e+00  0.00000000e+00  0.00000000e+00  3.90029858e-06]","[[ 2.28971364e-04  3.64593634e-03]
 [-7.08340600e-05  3.78264940e-03]]",[],0.0,0.0
1787560213.19859,1.9885844847172005,1.407740199681682,2.484681816945745,"[ 1.01156329e-05 -2.74316919e-08  0.00000000e+00  0.00000000e+00
  0.00000000e+00 -8.74545917e-07 -2.74316919e-08  6.57762383e-06
  0.00000000e+00  0.00000000e+00  0.00000000e+00 -4.48837535e-07
  0.00000000e+00  0.00000000e+00  0.00000000e+00  0.00000000e+00
  0.00000000e+00  0.00000000e+00  0.00000000e+00  0.00000000e+00
  0.00000000e+00  0.00000000e+00  0.00000000e+00  0.00000000e+00
  0.00000000e+00  0.00000000e+00  0.00000000e+00  0.00000000e+00
  0.00000000e+00  0.00000000e+00 -8.74545917e-07 -4.48837535e-07
  0.00000000e+00  0.00000000e+00  0.00000000e+00  3.90029858e-06]","[[ 2.28971364e-04  3.64593634e-03]
 [-7.08340600e-05  3.78264940e-03]]",[],0.0,0.0
1787560213.2495053,1.9885844847172005,1.407740199681682,2.484681816945745,"[ 1.01156329e-05 -2.74316919e-08  0.00000000e+00  0.00000000e+00
  0.00000000e+00 -8.74545917e-07 -2.74316919e-08  6.57762383e-06
  0.00000000e+00  0.00000000e+00  0.00000000e+00 -4.48837535e-07
  0.00000000e+00  0.00000000e+00  0.00000000e+00  0.00000000e+00
  0.00000000e+00  0.00000000e+00  0.00000000e+00  0.00000000e+00
  0.00000000e+00  0.00000000e+00  0.00000000e+00  0.00000000e+00
  0.00000000e+00  0.00000000e+00  0.00000000e+00  0.00000000e+00
  0.00000000e+00  0.00000000e+00 -8.74545917e-07 -4.48837535e-07
  0.00000000e+00  0.00000000e+00  0.00000000e+00  3.90029858e-06]","[[ 2.28971364e-04  3.64593634e-03]
 [-7.08340600e-05  3.78264940e-03]]",[],0.0,0.0
1787560213.3000767,1.9885844847172005,1.407740199681682,2.484681816945745,"[ 1.01156329e-05 -2.74316919e-08  0.00000000e+00  0.00000000e+00
  0.00000000e+00 -8.74545917e-07 -2.74316919e-08  6.57762383e-06
  0.00000000e+00  0.00000000e+00  0.00000000e+00 -4.48837535e-07
  0.00000000e+00  0.00000000e+00  0.00000000e+00  0.00000000e+00
  0.00000000e+00  0.00000000e+00  0.00000000e+00  0.00000000e+00
  0.00000000e+00  0.00000000e+00  0.00000000e+00  0.00000000e+00
  0.00000000e+00  0.00000000e+00  0.00000000e+00  0.00000000e+00
  0.00000000e+00  0.00000000e+00 -8.74545917e-07 -4.48837535e-07
  0.00000000e+00  0.00000000e+00  0.00000000e+00  3.90029858e-06]","[[ 2.28971364e-04  3.64593634e-03]
 [-7.08340600e-05  3.78264940e-03]]",[],0.0,0.0
1787560213.3540277,1.9885844847172005,1.407740199681682,2.484681816945745,"[ 1.01156329e-05 -2.74316919e-08  0.00000000e+00  0.00000000e+00
  0.00000000e+00 -8.74545917e-07 -2.74316919e-08  6.57762383e-06
  0.00000000e+00  0.00000000e+00  0.00000000e+00 -4.48837535e-07
  0.00000000e+00  0.00000000e+00  0.00000000e+00  0.00000000e+00
  0.00000000e+00  0.00000000e+00  0.00000000e+00  0.00000000e+00
  0.00000000e+00  0.00000000e+00  0.00000000e+00  0.00000000e+00
  0.00000000e+00  0.00000000e+00  0.00000000e+00  0.00000000e+00
  0.00000000e+00  0.00000000e+00 -8.74545917e-07 -4.48837535e-07
  0.00000000e+00  0.00000000e+00  0.00000000e+00  3.90029858e-06]","[[ 2.28971364e-04  3.64593634e-03]
 [-7.08340600e-05  3.78264940e-03]]",[],0.0,0.0
1787560213.400415,1.9943709896260233,1.3964006071143498,2.482852395563425,"[ 9.06118262e-06 -8.11337032e-08  0.00000000e+00  0.00000000e+00
  0.00000000e+00 -7.23792138e-07 -8.11337032e-08  5.76292431e-06
  0.00000000e+00  0.00000000e+00  0.00000000e+00 -4.44360425e-07
  0.00000000e+00  0.00000000e+00  0.00000000e+00  0.00000000e+00
  0.00000000e+00  0.00000000e+00  0.00000000e+00  0.00000000e+00
  0.00000000e+00  0.00000000e+00  0.00000000e+00  0.00000000e+00
  0.00000000e+00  0.00000000e+00  0.00000000e+00  0.00000000e+00
  0.00000000e+00  0.00000000e+00 -7.23792138e-07 -4.44360425e-07
  0.00000000e+00  0.00000000e+00  0.00000000e+00  3.98137065e-06]","[[ 2.05432746e-04  3.14635134e-03]
 [-6.37243534e-05  3.37307181e-03]]",[],0.0,0.0
1787560213.4493423,1.9943709896260233,1.3964006071143498,2.482852395563425,"[ 9.06118262e-06 -8.11337032e-08  0.00000000e+00  0.00000000e+00
  0.00000000e+00 -7.23792138e-07 -8.11337032e-08  5.76292431e-06
  0.00000000e+00  0.00000000e+00  0.00000000e+00 -4.44360425e-07
  0.00000000e+00  0.00000000e+00  0.00000000e+00  0.00000000e+00
  0.00000000e+00  0.00000000e+00  0.00000000e+00  0.00000000e+00
  0.00000000e+00  0.00000000e+00  0.00000000e+00  0.00000000e+00
  0.00000000e+00  0.00000000e+00  0.00000000e+00  0.00000000e+00
  0.00000000e+00  0.00000000e+00 -7.23792138e-07 -4.44360425e-07
  0.00000000e+00  0.00000000e+00  0.00000000e+00  3.98137065e-06]","[[ 2.05432746e-04  3.14635134e-03]
 [-6.37243534e-05  3.37307181e-03]]",[],0.0,0.0
1787560213.503622,1.9943709896260233,1.3964006071143498,2.482852395563425,"[ 9.06118262e-06 -8.11337032e-08  0.00000000e+00  0.00000000e+00
  0.00000000e+00 -7.23792138e-07 -8.11337032e-08  5.76292431e-06
  0.00000000e+00  0.00000000e+00  0.00000000e+00 -4.44360425e-07
  0.00000000e+00  0.00000000e+00  0.00000000e+00  0.00000000e+00
  0.00000000e+00  0.00000000e+00  0.00000000e+00  0.00000000e+00
  0.00000000e+00  0.00000000e+00  0.00000000e+00  0.00000000e+00
  0.00000000e+00  0.00000000e+00  0.00000000e+00  0.00000000e+00
  0.00000000e+00  0.00000000e+00 -7.23792138e-07 -4.44360425e-07
  0.00000000e+00  0.00000000e+00  0.00000000e+00  3.98137065e-06]","[[ 2.05432746e-04  3.14635134e-03]
 [-6.37243534e-05  3.37307181e-03]]",[],0.0,0.0
1787560213.5509968,1.9943709896260233,1.3964006071143498,2.482852395563425,"[ 9.06118262e-06 -8.11337032e-08  0.00000000e+00  0.00000000e+00
  0.00000000e+00 -7.23792138e-07 -8.11337032e-08  5.76292431e-06
  0.00000000e+00  0.00000000e+00  0.00000000e+00 -4.44360425e-07
  0.00000000e+00  0.00000000e+00  0.00000000e+00  0.00000000e+00
  0.00000000e+00  0.00000000e+00  0.00000000e+00  0.00000000e+00
  0.00000000e+00  0.00000000e+00  0.00000000e+00  0.00000000e+00
  0.00000000e+00  0.00000000e+00  0.00000000e+00  0.00000000e+00
  0.00000000e+00  0.00000000e+00 -7.23792138e-07 -4.44360425e-07
  0.00000000e+00  0.00000000e+00  0.00000000e+00  3.98137065e-06]","[[ 2.05432746e-04  3.14635134e-03]
 [-6.37243534e-05  3.37307181e-03]]",[],0.0,0.0
1787560213.6044176,1.9943709896260233,1.3964006071143498,2.482852395563425,"[ 9.06118262e-06 -8.11337032e-08  0.00000000e+00  0.00000000e+00
  0.00000000e+00 -7.23792138e-07 -8.11337032e-08  5.76292431e-06
  0.00000000e+00  0.00000000e+00  0.00000000e+00 -4.44360425e-07
  0.00000000e+00  0.00000000e+00  0.00000000e+00  0.00000000e+00
  0.00000000e+00  0.00000000e+00  0.00000000e+00  0.00000000e+00
  0.00000000e+00  0.00000000e+00  0.00000000e+00  0.00000000e+00
  0.00000000e+00  0.00000000e+00  0.00000000e+00  0.00000000e+00
  0.00000000e+00  0.00000000e+00 -7.23792138e-07 -4.44360425e-07
  0.00000000e+00  0.00000000e+00  0.00000000e+00  3.98137065e-06]","[[ 2.05432746e-04  3.14635134e-03]
 [-6.37243534e-05  3.37307181e-03]]",[],0.0,0.0
1787560213.6552832,1.9943709896260233,1.3964006071143498,2.482852395563425,"[ 9.06118262e-06 -8.11337032e-08  0.00000000e+00  0.00000000e+00
  0.00000000e+00 -7.23792138e-07 -8.11337032e-08  5.76292431e-06
  0.00000000e+00  0.00000000e+00  0.00000000e+00 -4.44360425e-07
  0.00000000e+00  0.00000000e+00  0.00000000e+00  0.00000000e+00
  0.00000000e+00  0.00000000e+00  0.00000000e+00  0.00000000e+00
  0.00000000e+00  0.00000000e+00  0.00000000e+00  0.00000000e+00
  0.00000000e+00  0.00000000e+00  0.00000000e+00  0.00000000e+00
  0.00000000e+00  0.00000000e+00 -7.23792138e-07 -4.44360425e-07
  0.00000000e+00  0.00000000e+00  0.00000000e+00  3.98137065e-06]","[[ 2.05432746e-04  3.14635134e-03]
 [-6.37243534e-05  3.37307181e-03]]",[],0.0,0.0
1787560213.699684,1.9943709896260233,1.3964006071143498,2.482852395563425,"[ 9.06118262e-06 -8.11337032e-08  0.00000000e+00  0.00000000e+00
  0.00000000e+00 -7.23792138e-07 -8.11337032e-08  5.76292431e-06
  0.00000000e+00  0.00000000e+00  0.00000000e+00 -4.44360425e-07
  0.00000000e+00  0.00000000e+00  0.00000000e+00  0.00000000e+00
  0.00000000e+00  0.00000000e+00  0.00000000e+00  0.00000000e+00
  0.00000000e+00  0.00000000e+00  0.00000000e+00  0.00000000e+00
  0.00000000e+00  0.00000000e+00  0.00000000e+00  0.00000000e+00
  0.00000000e+00  0.00000000e+00 -7.23792138e-07 -4.44360425e-07
  0.00000000e+00  0.00000000e+00  0.00000000e+00  3.98137065e-06]","[[ 2.05432746e-04  3.14635134e-03]
 [-6.37243534e-05  3.37307181e-03]]",[],0.0,0.0
1787560213.7612226,1.9943709896260233,1.3964006071143498,2.482852395563425,"[ 9.06118262e-06 -8.11337032e-08  0.00000000e+00  0.00000000e+00
  0.00000000e+00 -7.23792138e-07 -8.11337032e-08  5.76292431e-06
  0.00000000e+00  0.00000000e+00  0.00000000e+00 -4.44360425e-07
  0.00000000e+00  0.00000000e+00  0.00000000e+00  0.00000000e+00
  0.00000000e+00  0.00000000e+00  0.00000000e+00  0.00000000e+00
  0.00000000e+00  0.00000000e+00  0.00000000e+00  0.00000000e+00
  0.00000000e+00  0.00000000e+00  0.00000000e+00  0.00000000e+00
  0.00000000e+00  0.00000000e+00 -7.23792138e-07 -4.44360425e-07
  0.00000000e+00  0.00000000e+00  0.00000000e+00  3.98137065e-06]","[[ 2.05432746e-04  3.14635134e-03]
 [-6.37243534e-05  3.37307181e-03]]",[],0.0,0.0
1787560213.8022177,1.9943709896260233,1.3964006071143498,2.482852395563425,"[ 9.06118262e-06 -8.11337032e-08  0.00000000e+00  0.00000000e+00
  0.00000000e+00 -7.23792138e-07 -8.11337032e-08  5.76292431e-06
  0.00000000e+00  0.00000000e+00  0.00000000e+00 -4.44360425e-07
  0.00000000e+00  0.00000000e+00  0.00000000e+00  0.00000000e+00
  0.00000000e+00  0.00000000e+00  0.00000000e+00  0.00000000e+00
  0.00000000e+00  0.00000000e+00  0.00000000e+00  0.00000000e+00
  0.00000000e+00  0.00000000e+00  0.00000000e+00  0.00000000e+00
  0.00000000e+00  0.00000000e+00 -7.23792138e-07 -4.44360425e-07
  0.00000000e+00  0.00000000e+00  0.00000000e+00  3.98137065e-06]","[[ 2.05432746e-04  3.14635134e-03]
 [-6.37243534e-05  3.37307181e-03]]",[],0.0,0.0
1787560213.848858,1.9943709896260233,1.3964006071143498,2.482852395563425,"[ 9.06118262e-06 -8.11337032e-08  0.00000000e+00  0.00000000e+00
  0.00000000e+00 -7.23792138e-07 -8.11337032e-08  5.76292431e-06
  0.00000000e+00  0.00000000e+00  0.00000000e+00 -4.44360425e-07
  0.00000000e+00  0.00000000e+00  0.00000000e+00  0.00000000e+00
  0.00000000e+00  0.00000000e+00  0.00000000e+00  0.00000000e+00
  0.00000000e+00  0.00000000e+00  0.00000000e+00  0.00000000e+00
  0.00000000e+00  0.00000000e+00  0.00000000e+00  0.00000000e+00
  0.00000000e+00  0.00000000e+00 -7.23792138e-07 -4.44360425e-07
  0.00000000e+00  0.00000000e+00  0.00000000e+00  3.98137065e-06]","[[ 2.05432746e-04  3.14635134e-03]
 [-6.37243534e-05  3.37307181e-03]]",[],0.0,0.0
1787560213.898685,1.9943709896260233,1.3964006071143498,2.482852395563425,"[ 9.06118262e-06 -8.11337032e-08  0.00000000e+00  0.00000000e+00
  0.00000000e+00 -7.23792138e-07 -8.11337032e-08  5.76292431e-06
  0.00000000e+00  0.00000000e+00  0.00000000e+00 -4.44360425e-07
  0.00000000e+00  0.00000000e+00  0.00000000e+00  0.00000000e+00
  0.00000000e+00  0.00000000e+00  0.00000000e+00  0.00000000e+00
  0.00000000e+00  0.00000000e+00  0.00000000e+00  0.00000000e+00
  0.00000000e+00  0.00000000e+00  0.00000000e+00  0.00000000e+00
  0.00000000e+00  0.00000000e+00 -7.23792138e-07 -4.44360425e-07
  0.00000000e+00  0.00000000e+00  0.00000000e+00  3.98137065e-06]","[[ 2.05432746e-04  3.14635134e-03]
 [-6.37243534e-05  3.37307181e-03]]",[],0.0,0.0
1787560213.949527,1.9943709896260233,1.3964006071143498,2.482852395563425,"[ 9.06118262e-06 -8.11337032e-08  0.00000000e+00  0.00000000e+00
  0.00000000e+00 -7.23792138e-07 -8.11337032e-08  5.76292431e-06
  0.00000000e+00  0.00000000e+00  0.00000000e+00 -4.44360425e-07
  0.00000000e+00  0.00000000e+00  0.00000000e+00  0.00000000e+00
  0.00000000e+00  0.00000000e+00  0.00000000e+00  0.00000000e+00
  0.00000000e+00  0.00000000e+00  0.00000000e+00  0.00000000e+00
  0.00000000e+00  0.00000000e+00  0.00000000e+00  0.00000000e+00
  0.00000000e+00  0.00000000e+00 -7.23792138e-07 -4.44360425e-07
  0.00000000e+00  0.00000000e+00  0.00000000e+00  3.98137065e-06]","[[ 2.05432746e-04  3.14635134e-03]
 [-6.37243534e-05  3.37307181e-03]]",[],0.0,0.0
1787560213.999527,1.9943709896260233,1.3964006071143498,2.482852395563425,"[ 9.06118262e-06 -8.11337032e-08  0.00000000e+00  0.00000000e+00
  0.00000000e+00 -7.23792138e-07 -8.11337032e-08  5.76292431e-06
  0.00000000e+00  0.00000000e+00  0.00000000e+00 -4.44360425e-07
  0.00000000e+00  0.00000000e+00  0.00000000e+00  0.00000000e+00
  0.00000000e+00  0.00000000e+00  0.00000000e+00  0.00000000e+00
  0.00000000e+00  0.00000000e+00  0.00000000e+00  0.00000000e+00
  0.00000000e+00  0.00000000e+00  0.00000000e+00  0.00000000e+00
  0.00000000e+00  0.00000000e+00 -7.23792138e-07 -4.44360425e-07
  0.00000000e+00  0.00000000e+00  0.00000000e+00  3.98137065e-06]","[[ 2.05432746e-04  3.14635134e-03]
 [-6.37243534e-05  3.37307181e-03]]",[],0.0,0.0
1787560214.0605035,1.9943709896260233,1.3964006071143498,2.482852395563425,"[ 9.06118262e-06 -8.11337032e-08  0.00000000e+00  0.00000000e+00
