time,x,y,yaw,cov_prop,K_gain,innovation,v_ekf,omega_ekf
1787210972.77251,1.782820047698089,1.4107642597226389,1.9579398106712294,"[ 8.06001881e-05  5.98975927e-06  0.00000000e+00  0.00000000e+00
  0.00000000e+00 -6.70284938e-06  5.98975927e-06  5.55303172e-05
  0.00000000e+00  0.00000000e+00  0.00000000e+00 -2.33586651e-06
  0.00000000e+00  0.00000000e+00  0.00000000e+00  0.00000000e+00
  0.00000000e+00  0.00000000e+00  0.00000000e+00  0.00000000e+00
  0.00000000e+00  0.00000000e+00  0.00000000e+00  0.00000000e+00
  0.00000000e+00  0.00000000e+00  0.00000000e+00  0.00000000e+00
  0.00000000e+00  0.00000000e+00 -6.70284938e-06 -2.33586651e-06
  0.00000000e+00  0.00000000e+00  0.00000000e+00  4.70219874e-06]","[[-0.00042744  0.08115239]
 [-0.00139562  0.00230188]]",[],0.0,0.0
1787210973.0844827,1.782820047698089,1.4107642597226389,1.9579398106712294,"[ 8.06001881e-05  5.98975927e-06  0.00000000e+00  0.00000000e+00
  0.00000000e+00 -6.70284938e-06  5.98975927e-06  5.55303172e-05
  0.00000000e+00  0.00000000e+00  0.00000000e+00 -2.33586651e-06
  0.00000000e+00  0.00000000e+00  0.00000000e+00  0.00000000e+00
  0.00000000e+00  0.00000000e+00  0.00000000e+00  0.00000000e+00
  0.00000000e+00  0.00000000e+00  0.00000000e+00  0.00000000e+00
  0.00000000e+00  0.00000000e+00  0.00000000e+00  0.00000000e+00
  0.00000000e+00  0.00000000e+00 -6.70284938e-06 -2.33586651e-06
  0.00000000e+00  0.00000000e+00  0.00000000e+00  4.70219874e-06]","[[-0.00042744  0.08115239]
 [-0.00139562  0.00230188]]",[],0.0,0.0
1787210973.4293418,1.8041255062025556,1.410463847678362,1.96788589475858,"[ 4.05991550e-05  3.50050030e-06  0.00000000e+00  0.00000000e+00
  0.00000000e+00 -3.91607293e-06  3.50050030e-06  2.72404605e-05
  0.00000000e+00  0.00000000e+00  0.00000000e+00 -1.54359843e-06
  0.00000000e+00  0.00000000e+00  0.00000000e+00  0.00000000e+00
  0.00000000e+00  0.00000000e+00  0.00000000e+00  0.00000000e+00
  0.00000000e+00  0.00000000e+00  0.00000000e+00  0.00000000e+00
  0.00000000e+00  0.00000000e+00  0.00000000e+00  0.00000000e+00
  0.00000000e+00  0.00000000e+00 -3.91607293e-06 -1.54359843e-06
  0.00000000e+00  0.00000000e+00  0.00000000e+00  3.35186335e-06]","[[-0.00074633  0.01997663]
 [-0.00056344 -0.00508592]]",[],0.0,0.0
1787210973.4316525,1.8041255062025556,1.410463847678362,1.96788589475858,"[ 4.05991550e-05  3.50050030e-06  0.00000000e+00  0.00000000e+00
  0.00000000e+00 -3.91607293e-06  3.50050030e-06  2.72404605e-05
  0.00000000e+00  0.00000000e+00  0.00000000e+00 -1.54359843e-06
  0.00000000e+00  0.00000000e+00  0.00000000e+00  0.00000000e+00
  0.00000000e+00  0.00000000e+00  0.00000000e+00  0.00000000e+00
  0.00000000e+00  0.00000000e+00  0.00000000e+00  0.00000000e+00
  0.00000000e+00  0.00000000e+00  0.00000000e+00  0.00000000e+00
  0.00000000e+00  0.00000000e+00 -3.91607293e-06 -1.54359843e-06
  0.00000000e+00  0.00000000e+00  0.00000000e+00  3.35186335e-06]","[[-0.00074633  0.01997663]
 [-0.00056344 -0.00508592]]",[],0.0,0.0
1787210973.8249872,1.8199260829726225,1.4039150555912008,1.9771019164711188,"[ 2.74451910e-05  2.37670134e-06  0.00000000e+00  0.00000000e+00
  0.00000000e+00 -2.63826210e-06  2.37670134e-06  1.81843363e-05
  0.00000000e+00  0.00000000e+00  0.00000000e+00 -1.01360990e-06
  0.00000000e+00  0.00000000e+00  0.00000000e+00  0.00000000e+00
  0.00000000e+00  0.00000000e+00  0.00000000e+00  0.00000000e+00
  0.00000000e+00  0.00000000e+00  0.00000000e+00  0.00000000e+00
  0.00000000e+00  0.00000000e+00  0.00000000e+00  0.00000000e+00
  0.00000000e+00  0.00000000e+00 -2.63826210e-06 -1.01360990e-06
  0.00000000e+00  0.00000000e+00  0.00000000e+00  2.93577228e-06]","[[-0.00050249  0.01357035]
 [-0.00037802 -0.00339475]]",[],0.0,0.0
1787210973.8311496,1.841219042615459,1.3998381618752127,1.983580625004457,"[ 2.05067211e-05  1.67752496e-06  0.00000000e+00  0.00000000e+00
  0.00000000e+00 -2.09645186e-06  1.67752496e-06  1.35820610e-05
  0.00000000e+00  0.00000000e+00  0.00000000e+00 -7.74906490e-07
  0.00000000e+00  0.00000000e+00  0.00000000e+00  0.00000000e+00
  0.00000000e+00  0.00000000e+00  0.00000000e+00  0.00000000e+00
  0.00000000e+00  0.00000000e+00  0.00000000e+00  0.00000000e+00
  0.00000000e+00  0.00000000e+00  0.00000000e+00  0.00000000e+00
  0.00000000e+00  0.00000000e+00 -2.09645186e-06 -7.74906490e-07
  0.00000000e+00  0.00000000e+00  0.00000000e+00  2.95701041e-06]","[[-0.00037194  0.01042513]
 [-0.00028165 -0.00252169]]",[],0.0,0.0
1787210974.0136776,1.841219042615459,1.3998381618752127,1.983580625004457,"[ 2.05067211e-05  1.67752496e-06  0.00000000e+00  0.00000000e+00
  0.00000000e+00 -2.09645186e-06  1.67752496e-06  1.35820610e-05
  0.00000000e+00  0.00000000e+00  0.00000000e+00 -7.74906490e-07
  0.00000000e+00  0.00000000e+00  0.00000000e+00  0.00000000e+00
  0.00000000e+00  0.00000000e+00  0.00000000e+00  0.00000000e+00
  0.00000000e+00  0.00000000e+00  0.00000000e+00  0.00000000e+00
  0.00000000e+00  0.00000000e+00  0.00000000e+00  0.00000000e+00
  0.00000000e+00  0.00000000e+00 -2.09645186e-06 -7.74906490e-07
  0.00000000e+00  0.00000000e+00  0.00000000e+00  2.95701041e-06]","[[-0.00037194  0.01042513]
 [-0.00028165 -0.00252169]]",[],0.0,0.0
1787210974.2216945,1.841219042615459,1.3998381618752127,1.983580625004457,"[ 2.05067211e-05  1.67752496e-06  0.00000000e+00  0.00000000e+00
  0.00000000e+00 -2.09645186e-06  1.67752496e-06  1.35820610e-05
  0.00000000e+00  0.00000000e+00  0.00000000e+00 -7.74906490e-07
  0.00000000e+00  0.00000000e+00  0.00000000e+00  0.00000000e+00
  0.00000000e+00  0.00000000e+00  0.00000000e+00  0.00000000e+00
  0.00000000e+00  0.00000000e+00  0.00000000e+00  0.00000000e+00
  0.00000000e+00  0.00000000e+00  0.00000000e+00  0.00000000e+00
  0.00000000e+00  0.00000000e+00 -2.09645186e-06 -7.74906490e-07
  0.00000000e+00  0.00000000e+00  0.00000000e+00  2.95701041e-06]","[[-0.00037194  0.01042513]
 [-0.00028165 -0.00252169]]",[],0.0,0.0
1787210974.5559282,1.8544100777278736,1.3974108491236128,1.9903055760554675,"[ 1.63824228e-05  1.31641010e-06  0.00000000e+00  0.00000000e+00
  0.00000000e+00 -1.70515928e-06  1.31641010e-06  1.08934290e-05
  0.00000000e+00  0.00000000e+00  0.00000000e+00 -5.79548157e-07
  0.00000000e+00  0.00000000e+00  0.00000000e+00  0.00000000e+00
  0.00000000e+00  0.00000000e+00  0.00000000e+00  0.00000000e+00
  0.00000000e+00  0.00000000e+00  0.00000000e+00  0.00000000e+00
  0.00000000e+00  0.00000000e+00  0.00000000e+00  0.00000000e+00
  0.00000000e+00  0.00000000e+00 -1.70515928e-06 -5.79548157e-07
  0.00000000e+00  0.00000000e+00  0.00000000e+00  2.94350906e-06]","[[-0.00029511  0.00843675]
 [-0.00022628 -0.00208805]]",[],0.0,0.0
1787210974.6174772,1.8544100777278736,1.3974108491236128,1.9903055760554675,"[ 1.63824228e-05  1.31641010e-06  0.00000000e+00  0.00000000e+00
  0.00000000e+00 -1.70515928e-06  1.31641010e-06  1.08934290e-05
  0.00000000e+00  0.00000000e+00  0.00000000e+00 -5.79548157e-07
  0.00000000e+00  0.00000000e+00  0.00000000e+00  0.00000000e+00
  0.00000000e+00  0.00000000e+00  0.00000000e+00  0.00000000e+00
  0.00000000e+00  0.00000000e+00  0.00000000e+00  0.00000000e+00
  0.00000000e+00  0.00000000e+00  0.00000000e+00  0.00000000e+00
  0.00000000e+00  0.00000000e+00 -1.70515928e-06 -5.79548157e-07
  0.00000000e+00  0.00000000e+00  0.00000000e+00  2.94350906e-06]","[[-0.00029511  0.00843675]
 [-0.00022628 -0.00208805]]",[],0.0,0.0
1787210974.6535826,1.8544100777278736,1.3974108491236128,1.9903055760554675,"[ 1.63824228e-05  1.31641010e-06  0.00000000e+00  0.00000000e+00
  0.00000000e+00 -1.70515928e-06  1.31641010e-06  1.08934290e-05
  0.00000000e+00  0.00000000e+00  0.00000000e+00 -5.79548157e-07
  0.00000000e+00  0.00000000e+00  0.00000000e+00  0.00000000e+00
  0.00000000e+00  0.00000000e+00  0.00000000e+00  0.00000000e+00
  0.00000000e+00  0.00000000e+00  0.00000000e+00  0.00000000e+00
  0.00000000e+00  0.00000000e+00  0.00000000e+00  0.00000000e+00
  0.00000000e+00  0.00000000e+00 -1.70515928e-06 -5.79548157e-07
  0.00000000e+00  0.00000000e+00  0.00000000e+00  2.94350906e-06]","[[-0.00029511  0.00843675]
 [-0.00022628 -0.00208805]]",[],0.0,0.0
1787210975.028511,1.8632438540051213,1.3941721782713663,2.001537589609563,"[ 1.35559093e-05  1.03633941e-06  0.00000000e+00  0.00000000e+00
  0.00000000e+00 -1.38525387e-06  1.03633941e-06  9.01896717e-06
  0.00000000e+00  0.00000000e+00  0.00000000e+00 -5.30126874e-07
  0.00000000e+00  0.00000000e+00  0.00000000e+00  0.00000000e+00
  0.00000000e+00  0.00000000e+00  0.00000000e+00  0.00000000e+00
  0.00000000e+00  0.00000000e+00  0.00000000e+00  0.00000000e+00
  0.00000000e+00  0.00000000e+00  0.00000000e+00  0.00000000e+00
  0.00000000e+00  0.00000000e+00 -1.38525387e-06 -5.30126874e-07
  0.00000000e+00  0.00000000e+00  0.00000000e+00  2.86652634e-06]","[[-0.00024239  0.00698167]
 [-0.0001869  -0.00165791]]",[],0.0,0.0
1787210975.0305827,1.8632438540051213,1.3941721782713663,2.001537589609563,"[ 1.35559093e-05  1.03633941e-06  0.00000000e+00  0.00000000e+00
  0.00000000e+00 -1.38525387e-06  1.03633941e-06  9.01896717e-06
  0.00000000e+00  0.00000000e+00  0.00000000e+00 -5.30126874e-07
  0.00000000e+00  0.00000000e+00  0.00000000e+00  0.00000000e+00
  0.00000000e+00  0.00000000e+00  0.00000000e+00  0.00000000e+00
  0.00000000e+00  0.00000000e+00  0.00000000e+00  0.00000000e+00
  0.00000000e+00  0.00000000e+00  0.00000000e+00  0.00000000e+00
  0.00000000e+00  0.00000000e+00 -1.38525387e-06 -5.30126874e-07
  0.00000000e+00  0.00000000e+00  0.00000000e+00  2.86652634e-06]","[[-0.00024239  0.00698167]
 [-0.0001869  -0.00165791]]",[],0.0,0.0
1787210975.234888,1.867602873792062,1.389818549298359,2.0109078146235166,"[ 1.17544153e-05  9.54100267e-07  0.00000000e+00  0.00000000e+00
  0.00000000e+00 -1.14164527e-06  9.54100267e-07  7.78650377e-06
  0.00000000e+00  0.00000000e+00  0.00000000e+00 -4.44758896e-07
  0.00000000e+00  0.00000000e+00  0.00000000e+00  0.00000000e+00
  0.00000000e+00  0.00000000e+00  0.00000000e+00  0.00000000e+00
  0.00000000e+00  0.00000000e+00  0.00000000e+00  0.00000000e+00
  0.00000000e+00  0.00000000e+00  0.00000000e+00  0.00000000e+00
  0.00000000e+00  0.00000000e+00 -1.14164527e-06 -4.44758896e-07
  0.00000000e+00  0.00000000e+00  0.00000000e+00  3.05898289e-06]","[[-0.00021068  0.00595238]
 [-0.00016262 -0.00142451]]",[],0.0,0.0
1787210975.4418046,1.867602873792062,1.389818549298359,2.0109078146235166,"[ 1.17544153e-05  9.54100267e-07  0.00000000e+00  0.00000000e+00
  0.00000000e+00 -1.14164527e-06  9.54100267e-07  7.78650377e-06
  0.00000000e+00  0.00000000e+00  0.00000000e+00 -4.44758896e-07
  0.00000000e+00  0.00000000e+00  0.00000000e+00  0.00000000e+00
  0.00000000e+00  0.00000000e+00  0.00000000e+00  0.00000000e+00
  0.00000000e+00  0.00000000e+00  0.00000000e+00  0.00000000e+00
  0.00000000e+00  0.00000000e+00  0.00000000e+00  0.00000000e+00
  0.00000000e+00  0.00000000e+00 -1.14164527e-06 -4.44758896e-07
  0.00000000e+00  0.00000000e+00  0.00000000e+00  3.05898289e-06]","[[-0.00021068  0.00595238]
 [-0.00016262 -0.00142451]]",[],0.0,0.0
1787210975.8616247,1.8703720420182472,1.38274576027358,2.0170875922689913,"[ 1.02724180e-05  8.24207925e-07  0.00000000e+00  0.00000000e+00
  0.00000000e+00 -1.04066930e-06  8.24207925e-07  6.79749534e-06
  0.00000000e+00  0.00000000e+00  0.00000000e+00 -3.41282487e-07
  0.00000000e+00  0.00000000e+00  0.00000000e+00  0.00000000e+00
  0.00000000e+00  0.00000000e+00  0.00000000e+00  0.00000000e+00
  0.00000000e+00  0.00000000e+00  0.00000000e+00  0.00000000e+00
  0.00000000e+00  0.00000000e+00  0.00000000e+00  0.00000000e+00
  0.00000000e+00  0.00000000e+00 -1.04066930e-06 -3.41282487e-07
  0.00000000e+00  0.00000000e+00  0.00000000e+00  2.85557980e-06]","[[-0.00018361  0.00528223]
 [-0.000142   -0.00131916]]",[],0.0,0.0
1787210976.2055786,1.8715802944095568,1.3765143615351916,2.0217448907968443,"[ 9.11948495e-06  7.25973317e-07  0.00000000e+00  0.00000000e+00
  0.00000000e+00 -8.81133132e-07  7.25973317e-07  6.02853284e-06
  0.00000000e+00  0.00000000e+00  0.00000000e+00 -2.61623928e-07
  0.00000000e+00  0.00000000e+00  0.00000000e+00  0.00000000e+00
  0.00000000e+00  0.00000000e+00  0.00000000e+00  0.00000000e+00
  0.00000000e+00  0.00000000e+00  0.00000000e+00  0.00000000e+00
  0.00000000e+00  0.00000000e+00  0.00000000e+00  0.00000000e+00
  0.00000000e+00  0.00000000e+00 -8.81133132e-07 -2.61623928e-07
  0.00000000e+00  0.00000000e+00  0.00000000e+00  2.87187097e-06]","[[-0.00016257  0.00462361]
 [-0.00012602 -0.00123297]]",[],0.0,0.0
1787210976.257583,1.8715802944095568,1.3765143615351916,2.0217448907968443,"[ 9.11948495e-06  7.25973317e-07  0.00000000e+00  0.00000000e+00
  0.00000000e+00 -8.81133132e-07  7.25973317e-07  6.02853284e-06
  0.00000000e+00  0.00000000e+00  0.00000000e+00 -2.61623928e-07
  0.00000000e+00  0.00000000e+00  0.00000000e+00  0.00000000e+00
  0.00000000e+00  0.00000000e+00  0.00000000e+00  0.00000000e+00
  0.00000000e+00  0.00000000e+00  0.00000000e+00  0.00000000e+00
  0.00000000e+00  0.00000000e+00  0.00000000e+00  0.00000000e+00
  0.00000000e+00  0.00000000e+00 -8.81133132e-07 -2.61623928e-07
  0.00000000e+00  0.00000000e+00  0.00000000e+00  2.87187097e-06]","[[-0.00016257  0.00462361]
 [-0.00012602 -0.00123297]]",[],0.0,0.0
1787210976.300341,1.8715802944095568,1.3765143615351916,2.0217448907968443,"[ 9.11948495e-06  7.25973317e-07  0.00000000e+00  0.00000000e+00
  0.00000000e+00 -8.81133132e-07  7.25973317e-07  6.02853284e-06
  0.00000000e+00  0.00000000e+00  0.00000000e+00 -2.61623928e-07
  0.00000000e+00  0.00000000e+00  0.00000000e+00  0.00000000e+00
  0.00000000e+00  0.00000000e+00  0.00000000e+00  0.00000000e+00
  0.00000000e+00  0.00000000e+00  0.00000000e+00  0.00000000e+00
  0.00000000e+00  0.00000000e+00  0.00000000e+00  0.00000000e+00
  0.00000000e+00  0.00000000e+00 -8.81133132e-07 -2.61623928e-07
  0.00000000e+00  0.00000000e+00  0.00000000e+00  2.87187097e-06]","[[-0.00016257  0.00462361]
 [-0.00012602 -0.00123297]]",[],0.0,0.0
1787210976.3398132,1.876139106120278,1.372295124423836,2.0266542522135955,"[ 8.25771781e-06  6.48949377e-07  0.00000000e+00  0.00000000e+00
  0.00000000e+00 -8.00615963e-07  6.48949377e-07  5.45597267e-06
  0.00000000e+00  0.00000000e+00  0.00000000e+00 -2.42136248e-07
  0.00000000e+00  0.00000000e+00  0.00000000e+00  0.00000000e+00
  0.00000000e+00  0.00000000e+00  0.00000000e+00  0.00000000e+00
  0.00000000e+00  0.00000000e+00  0.00000000e+00  0.00000000e+00
  0.00000000e+00  0.00000000e+00  0.00000000e+00  0.00000000e+00
  0.00000000e+00  0.00000000e+00 -8.00615963e-07 -2.42136248e-07
  0.00000000e+00  0.00000000e+00  0.00000000e+00  2.89997897e-06]","[[-0.00014683  0.00419486]
 [-0.00011404 -0.00110493]]",[],0.0,0.0
1787210976.3876348,1.876139106120278,1.372295124423836,2.0266542522135955,"[ 8.25771781e-06  6.48949377e-07  0.00000000e+00  0.00000000e+00
  0.00000000e+00 -8.00615963e-07  6.48949377e-07  5.45597267e-06
  0.00000000e+00  0.00000000e+00  0.00000000e+00 -2.42136248e-07
  0.00000000e+00  0.00000000e+00  0.00000000e+00  0.00000000e+00
  0.00000000e+00  0.00000000e+00  0.00000000e+00  0.00000000e+00
  0.00000000e+00  0.00000000e+00  0.00000000e+00  0.00000000e+00
  0.00000000e+00  0.00000000e+00  0.00000000e+00  0.00000000e+00
  0.00000000e+00  0.00000000e+00 -8.00615963e-07 -2.42136248e-07
  0.00000000e+00  0.00000000e+00  0.00000000e+00  2.89997897e-06]","[[-0.00014683  0.00419486]
 [-0.00011404 -0.00110493]]",[],0.0,0.0
1787210976.4377713,1.876139106120278,1.372295124423836,2.0266542522135955,"[ 8.25771781e-06  6.48949377e-07  0.00000000e+00  0.00000000e+00
  0.00000000e+00 -8.00615963e-07  6.48949377e-07  5.45597267e-06
  0.00000000e+00  0.00000000e+00  0.00000000e+00 -2.42136248e-07
  0.00000000e+00  0.00000000e+00  0.00000000e+00  0.00000000e+00
  0.00000000e+00  0.00000000e+00  0.00000000e+00  0.00000000e+00
  0.00000000e+00  0.00000000e+00  0.00000000e+00  0.00000000e+00
  0.00000000e+00  0.00000000e+00  0.00000000e+00  0.00000000e+00
  0.00000000e+00  0.00000000e+00 -8.00615963e-07 -2.42136248e-07
  0.00000000e+00  0.00000000e+00  0.00000000e+00  2.89997897e-06]","[[-0.00014683  0.00419486]
 [-0.00011404 -0.00110493]]",[],0.0,0.0
1787210976.481786,1.876139106120278,1.372295124423836,2.0266542522135955,"[ 8.25771781e-06  6.48949377e-07  0.00000000e+00  0.00000000e+00
  0.00000000e+00 -8.00615963e-07  6.48949377e-07  5.45597267e-06
  0.00000000e+00  0.00000000e+00  0.00000000e+00 -2.42136248e-07
  0.00000000e+00  0.00000000e+00  0.00000000e+00  0.00000000e+00
  0.00000000e+00  0.00000000e+00  0.00000000e+00  0.00000000e+00
  0.00000000e+00  0.00000000e+00  0.00000000e+00  0.00000000e+00
  0.00000000e+00  0.00000000e+00  0.00000000e+00  0.00000000e+00
  0.00000000e+00  0.00000000e+00 -8.00615963e-07 -2.42136248e-07
  0.00000000e+00  0.00000000e+00  0.00000000e+00  2.89997897e-06]","[[-0.00014683  0.00419486]
 [-0.00011404 -0.00110493]]",[],0.0,0.0
1787210976.535514,1.876139106120278,1.372295124423836,2.0266542522135955,"[ 8.25771781e-06  6.48949377e-07  0.00000000e+00  0.00000000e+00
  0.00000000e+00 -8.00615963e-07  6.48949377e-07  5.45597267e-06
  0.00000000e+00  0.00000000e+00  0.00000000e+00 -2.42136248e-07
  0.00000000e+00  0.00000000e+00  0.00000000e+00  0.00000000e+00
  0.00000000e+00  0.00000000e+00  0.00000000e+00  0.00000000e+00
  0.00000000e+00  0.00000000e+00  0.00000000e+00  0.00000000e+00
  0.00000000e+00  0.00000000e+00  0.00000000e+00  0.00000000e+00
  0.00000000e+00  0.00000000e+00 -8.00615963e-07 -2.42136248e-07
  0.00000000e+00  0.00000000e+00  0.00000000e+00  2.89997897e-06]","[[-0.00014683  0.00419486]
 [-0.00011404 -0.00110493]]",[],0.0,0.0
1787210976.5809605,1.876139106120278,1.372295124423836,2.0266542522135955,"[ 8.25771781e-06  6.48949377e-07  0.00000000e+00  0.00000000e+00
  0.00000000e+00 -8.00615963e-07  6.48949377e-07  5.45597267e-06
  0.00000000e+00  0.00000000e+00  0.00000000e+00 -2.42136248e-07
  0.00000000e+00  0.00000000e+00  0.00000000e+00  0.00000000e+00
  0.00000000e+00  0.00000000e+00  0.00000000e+00  0.00000000e+00
  0.00000000e+00  0.00000000e+00  0.00000000e+00  0.00000000e+00
  0.00000000e+00  0.00000000e+00  0.00000000e+00  0.00000000e+00
  0.00000000e+00  0.00000000e+00 -8.00615963e-07 -2.42136248e-07
  0.00000000e+00  0.00000000e+00  0.00000000e+00  2.89997897e-06]","[[-0.00014683  0.00419486]
 [-0.00011404 -0.00110493]]",[],0.0,0.0
1787210976.6307414,1.876139106120278,1.372295124423836,2.0266542522135955,"[ 8.25771781e-06  6.48949377e-07  0.00000000e+00  0.00000000e+00
  0.00000000e+00 -8.00615963e-07  6.48949377e-07  5.45597267e-06
  0.00000000e+00  0.00000000e+00  0.00000000e+00 -2.42136248e-07
  0.00000000e+00  0.00000000e+00  0.00000000e+00  0.00000000e+00
  0.00000000e+00  0.00000000e+00  0.00000000e+00  0.00000000e+00
  0.00000000e+00  0.00000000e+00  0.00000000e+00  0.00000000e+00
  0.00000000e+00  0.00000000e+00  0.00000000e+00  0.00000000e+00
  0.00000000e+00  0.00000000e+00 -8.00615963e-07 -2.42136248e-07
  0.00000000e+00  0.00000000e+00  0.00000000e+00  2.89997897e-06]","[[-0.00014683  0.00419486]
 [-0.00011404 -0.00110493]]",[],0.0,0.0
1787210976.6810448,1.876139106120278,1.372295124423836,2.0266542522135955,"[ 8.25771781e-06  6.48949377e-07  0.00000000e+00  0.00000000e+00
  0.00000000e+00 -8.00615963e-07  6.48949377e-07  5.45597267e-06
  0.00000000e+00  0.00000000e+00  0.00000000e+00 -2.42136248e-07
  0.00000000e+00  0.00000000e+00  0.00000000e+00  0.00000000e+00
  0.00000000e+00  0.00000000e+00  0.00000000e+00  0.00000000e+00
  0.00000000e+00  0.00000000e+00  0.00000000e+00  0.00000000e+00
  0.00000000e+00  0.00000000e+00  0.00000000e+00  0.00000000e+00
  0.00000000e+00  0.00000000e+00 -8.00615963e-07 -2.42136248e-07
  0.00000000e+00  0.00000000e+00  0.00000000e+00  2.89997897e-06]","[[-0.00014683  0.00419486]
 [-0.00011404 -0.00110493]]",[],0.0,0.0
1787210976.7548912,1.876139106120278,1.372295124423836,2.0266542522135955,"[ 8.25771781e-06  6.48949377e-07  0.00000000e+00  0.00000000e+00
  0.00000000e+00 -8.00615963e-07  6.48949377e-07  5.45597267e-06
  0.00000000e+00  0.00000000e+00  0.00000000e+00 -2.42136248e-07
  0.00000000e+00  0.00000000e+00  0.00000000e+00  0.00000000e+00
  0.00000000e+00  0.00000000e+00  0.00000000e+00  0.00000000e+00
  0.00000000e+00  0.00000000e+00  0.00000000e+00  0.00000000e+00
  0.00000000e+00  0.00000000e+00  0.00000000e+00  0.00000000e+00
  0.00000000e+00  0.00000000e+00 -8.00615963e-07 -2.42136248e-07
  0.00000000e+00  0.00000000e+00  0.00000000e+00  2.89997897e-06]","[[-0.00014683  0.00419486]
 [-0.00011404 -0.00110493]]",[],0.0,0.0
1787210976.7885737,1.876139106120278,1.372295124423836,2.0266542522135955,"[ 8.25771781e-06  6.48949377e-07  0.00000000e+00  0.00000000e+00
  0.00000000e+00 -8.00615963e-07  6.48949377e-07  5.45597267e-06
  0.00000000e+00  0.00000000e+00  0.00000000e+00 -2.42136248e-07
  0.00000000e+00  0.00000000e+00  0.00000000e+00  0.00000000e+00
  0.00000000e+00  0.00000000e+00  0.00000000e+00  0.00000000e+00
  0.00000000e+00  0.00000000e+00  0.00000000e+00  0.00000000e+00
  0.00000000e+00  0.00000000e+00  0.00000000e+00  0.00000000e+00
  0.00000000e+00  0.00000000e+00 -8.00615963e-07 -2.42136248e-07
  0.00000000e+00  0.00000000e+00  0.00000000e+00  2.89997897e-06]","[[-0.00014683  0.00419486]
 [-0.00011404 -0.00110493]]",[],0.0,0.0
1787210976.8309846,1.8766813617324996,1.3665673062541601,2.0525242940355266,"[ 7.46298139e-06  5.71392826e-07  0.00000000e+00  0.00000000e+00
  0.00000000e+00 -7.17377899e-07  5.71392826e-07  5.00691284e-06
  0.00000000e+00  0.00000000e+00  0.00000000e+00 -1.88333988e-07
  0.00000000e+00  0.00000000e+00  0.00000000e+00  0.00000000e+00
  0.00000000e+00  0.00000000e+00  0.00000000e+00  0.00000000e+00
  0.00000000e+00  0.00000000e+00  0.00000000e+00  0.00000000e+00
  0.00000000e+00  0.00000000e+00  0.00000000e+00  0.00000000e+00
  0.00000000e+00  0.00000000e+00 -7.17377899e-07 -1.88333988e-07
  0.00000000e+00  0.00000000e+00  0.00000000e+00  3.06324308e-06]","[[-0.00013217  0.00379036]
 [-0.00010439 -0.00107513]]",[],0.0,0.0
1787210976.8817844,1.8766813617324996,1.3665673062541601,2.0525242940355266,"[ 7.46298139e-06  5.71392826e-07  0.00000000e+00  0.00000000e+00
  0.00000000e+00 -7.17377899e-07  5.71392826e-07  5.00691284e-06
  0.00000000e+00  0.00000000e+00  0.00000000e+00 -1.88333988e-07
  0.00000000e+00  0.00000000e+00  0.00000000e+00  0.00000000e+00
  0.00000000e+00  0.00000000e+00  0.00000000e+00  0.00000000e+00
  0.00000000e+00  0.00000000e+00  0.00000000e+00  0.00000000e+00
  0.00000000e+00  0.00000000e+00  0.00000000e+00  0.00000000e+00
  0.00000000e+00  0.00000000e+00 -7.17377899e-07 -1.88333988e-07
  0.00000000e+00  0.00000000e+00  0.00000000e+00  3.06324308e-06]","[[-0.00013217  0.00379036]
 [-0.00010439 -0.00107513]]",[],0.0,0.0
1787210976.9325545,1.8766813617324996,1.3665673062541601,2.0525242940355266,"[ 7.46298139e-06  5.71392826e-07  0.00000000e+00  0.00000000e+00
  0.00000000e+00 -7.17377899e-07  5.71392826e-07  5.00691284e-06
  0.00000000e+00  0.00000000e+00  0.00000000e+00 -1.88333988e-07
  0.00000000e+00  0.00000000e+00  0.00000000e+00  0.00000000e+00
  0.00000000e+00  0.00000000e+00  0.00000000e+00  0.00000000e+00
  0.00000000e+00  0.00000000e+00  0.00000000e+00  0.00000000e+00
  0.00000000e+00  0.00000000e+00  0.00000000e+00  0.00000000e+00
  0.00000000e+00  0.00000000e+00 -7.17377899e-07 -1.88333988e-07
  0.00000000e+00  0.00000000e+00  0.00000000e+00  3.06324308e-06]","[[-0.00013217  0.00379036]
 [-0.00010439 -0.00107513]]",[],0.0,0.0
1787210976.9821298,1.8766813617324996,1.3665673062541601,2.0525242940355266,"[ 7.46298139e-06  5.71392826e-07  0.00000000e+00  0.00000000e+00
  0.00000000e+00 -7.17377899e-07  5.71392826e-07  5.00691284e-06
  0.00000000e+00  0.00000000e+00  0.00000000e+00 -1.88333988e-07
  0.00000000e+00  0.00000000e+00  0.00000000e+00  0.00000000e+00
  0.00000000e+00  0.00000000e+00  0.00000000e+00  0.00000000e+00
  0.00000000e+00  0.00000000e+00  0.00000000e+00  0.00000000e+00
  0.00000000e+00  0.00000000e+00  0.00000000e+00  0.00000000e+00
  0.00000000e+00  0.00000000e+00 -7.17377899e-07 -1.88333988e-07
  0.00000000e+00  0.00000000e+00  0.00000000e+00  3.06324308e-06]","[[-0.00013217  0.00379036]
 [-0.00010439 -0.00107513]]",[],0.0,0.0
1787210977.0363684,1.8766813617324996,1.3665673062541601,2.0525242940355266,"[ 7.46298139e-06  5.71392826e-07  0.00000000e+00  0.00000000e+00
  0.00000000e+00 -7.17377899e-07  5.71392826e-07  5.00691284e-06
  0.00000000e+00  0.00000000e+00  0.00000000e+00 -1.88333988e-07
  0.00000000e+00  0.00000000e+00  0.00000000e+00  0.00000000e+00
  0.00000000e+00  0.00000000e+00  0.00000000e+00  0.00000000e+00
  0.00000000e+00  0.00000000e+00  0.00000000e+00  0.00000000e+00
  0.00000000e+00  0.00000000e+00  0.00000000e+00  0.00000000e+00
  0.00000000e+00  0.00000000e+00 -7.17377899e-07 -1.88333988e-07
  0.00000000e+00  0.00000000e+00  0.00000000e+00  3.06324308e-06]","[[-0.00013217  0.00379036]
 [-0.00010439 -0.00107513]]",[],0.0,0.0
1787210977.08307,1.8766813617324996,1.3665673062541601,2.0525242940355266,"[ 7.46298139e-06  5.71392826e-07  0.00000000e+00  0.00000000e+00
  0.00000000e+00 -7.17377899e-07  5.71392826e-07  5.00691284e-06
  0.00000000e+00  0.00000000e+00  0.00000000e+00 -1.88333988e-07
  0.00000000e+00  0.00000000e+00  0.00000000e+00  0.00000000e+00
  0.00000000e+00  0.00000000e+00  0.00000000e+00  0.00000000e+00
  0.00000000e+00  0.00000000e+00  0.00000000e+00  0.00000000e+00
  0.00000000e+00  0.00000000e+00  0.00000000e+00  0.00000000e+00
  0.00000000e+00  0.00000000e+00 -7.17377899e-07 -1.88333988e-07
  0.00000000e+00  0.00000000e+00  0.00000000e+00  3.06324308e-06]","[[-0.00013217  0.00379036]
 [-0.00010439 -0.00107513]]",[],0.0,0.0
1787210977.13677,1.8766813617324996,1.3665673062541601,2.0525242940355266,"[ 7.46298139e-06  5.71392826e-07  0.00000000e+00  0.00000000e+00
  0.00000000e+00 -7.17377899e-07  5.71392826e-07  5.00691284e-06
  0.00000000e+00  0.00000000e+00  0.00000000e+00 -1.88333988e-07
  0.00000000e+00  0.00000000e+00  0.00000000e+00  0.00000000e+00
  0.00000000e+00  0.00000000e+00  0.00000000e+00  0.00000000e+00
  0.00000000e+00  0.00000000e+00  0.00000000e+00  0.00000000e+00
  0.00000000e+00  0.00000000e+00  0.00000000e+00  0.00000000e+00
  0.00000000e+00  0.00000000e+00 -7.17377899e-07 -1.88333988e-07
  0.00000000e+00  0.00000000e+00  0.00000000e+00  3.06324308e-06]","[[-0.00013217  0.00379036]
 [-0.00010439 -0.00107513]]",[],0.0,0.0
1787210977.1860116,1.8766813617324996,1.3665673062541601,2.0525242940355266,"[ 7.46298139e-06  5.71392826e-07  0.00000000e+00  0.00000000e+00
  0.00000000e+00 -7.17377899e-07  5.71392826e-07  5.00691284e-06
  0.00000000e+00  0.00000000e+00  0.00000000e+00 -1.88333988e-07
  0.00000000e+00  0.00000000e+00  0.00000000e+00  0.00000000e+00
  0.00000000e+00  0.00000000e+00  0.00000000e+00  0.00000000e+00
  0.00000000e+00  0.00000000e+00  0.00000000e+00  0.00000000e+00
  0.00000000e+00  0.00000000e+00  0.00000000e+00  0.00000000e+00
  0.00000000e+00  0.00000000e+00 -7.17377899e-07 -1.88333988e-07
  0.00000000e+00  0.00000000e+00  0.00000000e+00  3.06324308e-06]","[[-0.00013217  0.00379036]
 [-0.00010439 -0.00107513]]",[],0.0,0.0
1787210977.2326066,1.8766813617324996,1.3665673062541601,2.0525242940355266,"[ 7.46298139e-06  5.71392826e-07  0.00000000e+00  0.00000000e+00
  0.00000000e+00 -7.17377899e-07  5.71392826e-07  5.00691284e-06
  0.00000000e+00  0.00000000e+00  0.00000000e+00 -1.88333988e-07
  0.00000000e+00  0.00000000e+00  0.00000000e+00  0.00000000e+00
  0.00000000e+00  0.00000000e+00  0.00000000e+00  0.00000000e+00
  0.00000000e+00  0.00000000e+00  0.00000000e+00  0.00000000e+00
  0.00000000e+00  0.00000000e+00  0.00000000e+00  0.00000000e+00
  0.00000000e+00  0.00000000e+00 -7.17377899e-07 -1.88333988e-07
  0.00000000e+00  0.00000000e+00  0.00000000e+00  3.06324308e-06]","[[-0.00013217  0.00379036]
 [-0.00010439 -0.00107513]]",[],0.0,0.0
1787210977.2808962,1.8766813617324996,1.3665673062541601,2.0525242940355266,"[ 7.46298139e-06  5.71392826e-07  0.00000000e+00  0.00000000e+00
  0.00000000e+00 -7.17377899e-07  5.71392826e-07  5.00691284e-06
  0.00000000e+00  0.00000000e+00  0.00000000e+00 -1.88333988e-07
  0.00000000e+00  0.00000000e+00  0.00000000e+00  0.00000000e+00
  0.00000000e+00  0.00000000e+00  0.00000000e+00  0.00000000e+00
  0.00000000e+00  0.00000000e+00  0.00000000e+00  0.00000000e+00
  0.00000000e+00  0.00000000e+00  0.00000000e+00  0.00000000e+00
  0.00000000e+00  0.00000000e+00 -7.17377899e-07 -1.88333988e-07
  0.00000000e+00  0.00000000e+00  0.00000000e+00  3.06324308e-06]","[[-0.00013217  0.00379036]
 [-0.00010439 -0.00107513]]",[],0.0,0.0
1787210977.3328974,1.8766821802309133,1.3588572072042997,2.0842955333146183,"[ 6.78880631e-06  4.84359486e-07  0.00000000e+00  0.00000000e+00
  0.00000000e+00 -5.62152839e-07  4.84359486e-07  4.59411241e-06
  0.00000000e+00  0.00000000e+00  0.00000000e+00 -1.41281000e-07
  0.00000000e+00  0.00000000e+00  0.00000000e+00  0.00000000e+00
  0.00000000e+00  0.00000000e+00  0.00000000e+00  0.00000000e+00
  0.00000000e+00  0.00000000e+00  0.00000000e+00  0.00000000e+00
  0.00000000e+00  0.00000000e+00  0.00000000e+00  0.00000000e+00
  0.00000000e+00  0.00000000e+00 -5.62152839e-07 -1.41281000e-07
  0.00000000e+00  0.00000000e+00  0.00000000e+00  2.90197073e-06]","[[ 8.38348434e-05  6.64419260e-03]
 [-8.89628439e-05  3.07587263e-03]]",[],0.0,0.0
1787210977.3813071,1.8766821802309133,1.3588572072042997,2.0842955333146183,"[ 6.78880631e-06  4.84359486e-07  0.00000000e+00  0.00000000e+00
  0.00000000e+00 -5.62152839e-07  4.84359486e-07  4.59411241e-06
  0.00000000e+00  0.00000000e+00  0.00000000e+00 -1.41281000e-07
  0.00000000e+00  0.00000000e+00  0.00000000e+00  0.00000000e+00
  0.00000000e+00  0.00000000e+00  0.00000000e+00  0.00000000e+00
  0.00000000e+00  0.00000000e+00  0.00000000e+00  0.00000000e+00
  0.00000000e+00  0.00000000e+00  0.00000000e+00  0.00000000e+00
  0.00000000e+00  0.00000000e+00 -5.62152839e-07 -1.41281000e-07
  0.00000000e+00  0.00000000e+00  0.00000000e+00  2.90197073e-06]","[[ 8.38348434e-05  6.64419260e-03]
 [-8.89628439e-05  3.07587263e-03]]",[],0.0,0.0
1787210977.4367013,1.8766821802309133,1.3588572072042997,2.0842955333146183,"[ 6.78880631e-06  4.84359486e-07  0.00000000e+00  0.00000000e+00
  0.00000000e+00 -5.62152839e-07  4.84359486e-07  4.59411241e-06
  0.00000000e+00  0.00000000e+00  0.00000000e+00 -1.41281000e-07
  0.00000000e+00  0.00000000e+00  0.00000000e+00  0.00000000e+00
  0.00000000e+00  0.00000000e+00  0.00000000e+00  0.00000000e+00
  0.00000000e+00  0.00000000e+00  0.00000000e+00  0.00000000e+00
  0.00000000e+00  0.00000000e+00  0.00000000e+00  0.00000000e+00
  0.00000000e+00  0.00000000e+00 -5.62152839e-07 -1.41281000e-07
  0.00000000e+00  0.00000000e+00  0.00000000e+00  2.90197073e-06]","[[ 8.38348434e-05  6.64419260e-03]
 [-8.89628439e-05  3.07587263e-03]]",[],0.0,0.0
1787210977.4815662,1.8766821802309133,1.3588572072042997,2.0842955333146183,"[ 6.78880631e-06  4.84359486e-07  0.00000000e+00  0.00000000e+00
  0.00000000e+00 -5.62152839e-07  4.84359486e-07  4.59411241e-06
  0.00000000e+00  0.00000000e+00  0.00000000e+00 -1.41281000e-07
  0.00000000e+00  0.00000000e+00  0.00000000e+00  0.00000000e+00
  0.00000000e+00  0.00000000e+00  0.00000000e+00  0.00000000e+00
  0.00000000e+00  0.00000000e+00  0.00000000e+00  0.00000000e+00
  0.00000000e+00  0.00000000e+00  0.00000000e+00  0.00000000e+00
  0.00000000e+00  0.00000000e+00 -5.62152839e-07 -1.41281000e-07
  0.00000000e+00  0.00000000e+00  0.00000000e+00  2.90197073e-06]","[[ 8.38348434e-05  6.64419260e-03]
 [-8.89628439e-05  3.07587263e-03]]",[],0.0,0.0
1787210977.531986,1.8766821802309133,1.3588572072042997,2.0842955333146183,"[ 6.78880631e-06  4.84359486e-07  0.00000000e+00  0.00000000e+00
  0.00000000e+00 -5.62152839e-07  4.84359486e-07  4.59411241e-06
  0.00000000e+00  0.00000000e+00  0.00000000e+00 -1.41281000e-07
  0.00000000e+00  0.00000000e+00  0.00000000e+00  0.00000000e+00
  0.00000000e+00  0.00000000e+00  0.00000000e+00  0.00000000e+00
  0.00000000e+00  0.00000000e+00  0.00000000e+00  0.00000000e+00
  0.00000000e+00  0.00000000e+00  0.00000000e+00  0.00000000e+00
  0.00000000e+00  0.00000000e+00 -5.62152839e-07 -1.41281000e-07
  0.00000000e+00  0.00000000e+00  0.00000000e+00  2.90197073e-06]","[[ 8.38348434e-05  6.64419260e-03]
 [-8.89628439e-05  3.07587263e-03]]",[],0.0,0.0
1787210977.5885177,1.8766821802309133,1.3588572072042997,2.0842955333146183,"[ 6.78880631e-06  4.84359486e-07  0.00000000e+00  0.00000000e+00
  0.00000000e+00 -5.62152839e-07  4.84359486e-07  4.59411241e-06
  0.00000000e+00  0.00000000e+00  0.00000000e+00 -1.41281000e-07
  0.00000000e+00  0.00000000e+00  0.00000000e+00  0.00000000e+00
  0.00000000e+00  0.00000000e+00  0.00000000e+00  0.00000000e+00
  0.00000000e+00  0.00000000e+00  0.00000000e+00  0.00000000e+00
  0.00000000e+00  0.00000000e+00  0.00000000e+00  0.00000000e+00
  0.00000000e+00  0.00000000e+00 -5.62152839e-07 -1.41281000e-07
  0.00000000e+00  0.00000000e+00  0.00000000e+00  2.90197073e-06]","[[ 8.38348434e-05  6.64419260e-03]
 [-8.89628439e-05  3.07587263e-03]]",[],0.0,0.0
1787210977.6359482,1.8766821802309133,1.3588572072042997,2.0842955333146183,"[ 6.78880631e-06  4.84359486e-07  0.00000000e+00  0.00000000e+00
  0.00000000e+00 -5.62152839e-07  4.84359486e-07  4.59411241e-06
  0.00000000e+00  0.00000000e+00  0.00000000e+00 -1.41281000e-07
  0.00000000e+00  0.00000000e+00  0.00000000e+00  0.00000000e+00
  0.00000000e+00  0.00000000e+00  0.00000000e+00  0.00000000e+00
  0.00000000e+00  0.00000000e+00  0.00000000e+00  0.00000000e+00
  0.00000000e+00  0.00000000e+00  0.00000000e+00  0.00000000e+00
  0.00000000e+00  0.00000000e+00 -5.62152839e-07 -1.41281000e-07
  0.00000000e+00  0.00000000e+00  0.00000000e+00  2.90197073e-06]","[[ 8.38348434e-05  6.64419260e-03]
 [-8.89628439e-05  3.07587263e-03]]",[],0.0,0.0
1787210977.6814406,1.8766821802309133,1.3588572072042997,2.0842955333146183,"[ 6.78880631e-06  4.84359486e-07  0.00000000e+00  0.00000000e+00
  0.00000000e+00 -5.62152839e-07  4.84359486e-07  4.59411241e-06
  0.00000000e+00  0.00000000e+00  0.00000000e+00 -1.41281000e-07
  0.00000000e+00  0.00000000e+00  0.00000000e+00  0.00000000e+00
  0.00000000e+00  0.00000000e+00  0.00000000e+00  0.00000000e+00
  0.00000000e+00  0.00000000e+00  0.00000000e+00  0.00000000e+00
  0.00000000e+00  0.00000000e+00  0.00000000e+00  0.00000000e+00
  0.00000000e+00  0.00000000e+00 -5.62152839e-07 -1.41281000e-07
  0.00000000e+00  0.00000000e+00  0.00000000e+00  2.90197073e-06]","[[ 8.38348434e-05  6.64419260e-03]
 [-8.89628439e-05  3.07587263e-03]]",[],0.0,0.0
1787210977.7315428,1.8766821802309133,1.3588572072042997,2.0842955333146183,"[ 6.78880631e-06  4.84359486e-07  0.00000000e+00  0.00000000e+00
  0.00000000e+00 -5.62152839e-07  4.84359486e-07  4.59411241e-06
  0.00000000e+00  0.00000000e+00  0.00000000e+00 -1.41281000e-07
  0.00000000e+00  0.00000000e+00  0.00000000e+00  0.00000000e+00
  0.00000000e+00  0.00000000e+00  0.00000000e+00  0.00000000e+00
  0.00000000e+00  0.00000000e+00  0.00000000e+00  0.00000000e+00
  0.00000000e+00  0.00000000e+00  0.00000000e+00  0.00000000e+00
  0.00000000e+00  0.00000000e+00 -5.62152839e-07 -1.41281000e-07
  0.00000000e+00  0.00000000e+00  0.00000000e+00  2.90197073e-06]","[[ 8.38348434e-05  6.64419260e-03]
 [-8.89628439e-05  3.07587263e-03]]",[],0.0,0.0
1787210977.7811356,1.8766821802309133,1.3588572072042997,2.0842955333146183,"[ 6.78880631e-06  4.84359486e-07  0.00000000e+00  0.00000000e+00
  0.00000000e+00 -5.62152839e-07  4.84359486e-07  4.59411241e-06
  0.00000000e+00  0.00000000e+00  0.00000000e+00 -1.41281000e-07
  0.00000000e+00  0.00000000e+00  0.00000000e+00  0.00000000e+00
  0.00000000e+00  0.00000000e+00  0.00000000e+00  0.00000000e+00
  0.00000000e+00  0.00000000e+00  0.00000000e+00  0.00000000e+00
  0.00000000e+00  0.00000000e+00  0.00000000e+00  0.00000000e+00
  0.00000000e+00  0.00000000e+00 -5.62152839e-07 -1.41281000e-07
  0.00000000e+00  0.00000000e+00  0.00000000e+00  2.90197073e-06]","[[ 8.38348434e-05  6.64419260e-03]
 [-8.89628439e-05  3.07587263e-03]]",[],0.0,0.0
1787210977.8319242,1.8766821802309133,1.3588572072042997,2.0842955333146183,"[ 6.78880631e-06  4.84359486e-07  0.00000000e+00  0.00000000e+00
  0.00000000e+00 -5.62152839e-07  4.84359486e-07  4.59411241e-06
  0.00000000e+00  0.00000000e+00  0.00000000e+00 -1.41281000e-07
  0.00000000e+00  0.00000000e+00  0.00000000e+00  0.00000000e+00
  0.00000000e+00  0.00000000e+00  0.00000000e+00  0.00000000e+00
  0.00000000e+00  0.00000000e+00  0.00000000e+00  0.00000000e+00
  0.00000000e+00  0.00000000e+00  0.00000000e+00  0.00000000e+00
  0.00000000e+00  0.00000000e+00 -5.62152839e-07 -1.41281000e-07
  0.00000000e+00  0.00000000e+00  0.00000000e+00  2.90197073e-06]","[[ 8.38348434e-05  6.64419260e-03]
 [-8.89628439e-05  3.07587263e-03]]",[],0.0,0.0
1787210978.283102,1.8770523219350084,1.3514979573840031,2.108980281607659,"[ 6.22782289e-06  3.91731766e-07  0.00000000e+00  0.00000000e+00
  0.00000000e+00 -5.55300456e-07  3.91731766e-07  4.27066883e-06
  0.00000000e+00  0.00000000e+00  0.00000000e+00 -1.21232321e-07
  0.00000000e+00  0.00000000e+00  0.00000000e+00  0.00000000e+00
  0.00000000e+00  0.00000000e+00  0.00000000e+00  0.00000000e+00
  0.00000000e+00  0.00000000e+00  0.00000000e+00  0.00000000e+00
  0.00000000e+00  0.00000000e+00  0.00000000e+00  0.00000000e+00
  0.00000000e+00  0.00000000e+00 -5.55300456e-07 -1.21232321e-07
  0.00000000e+00  0.00000000e+00  0.00000000e+00  3.00476061e-06]","[[-1.08375172e-04  3.11786653e-03]
 [-8.76498826e-05 -1.00971420e-03]]",[],0.0,0.0
1787210978.6524556,1.8805664793789416,1.3451192375131686,2.1279850109260448,"[ 5.76293888e-06  3.43507281e-07  0.00000000e+00  0.00000000e+00
  0.00000000e+00 -4.84875987e-07  3.43507281e-07  3.96451619e-06
  0.00000000e+00  0.00000000e+00  0.00000000e+00 -1.47340520e-07
  0.00000000e+00  0.00000000e+00  0.00000000e+00  0.00000000e+00
  0.00000000e+00  0.00000000e+00  0.00000000e+00  0.00000000e+00
  0.00000000e+00  0.00000000e+00  0.00000000e+00  0.00000000e+00
  0.00000000e+00  0.00000000e+00  0.00000000e+00  0.00000000e+00
  0.00000000e+00  0.00000000e+00 -4.84875987e-07 -1.47340520e-07
  0.00000000e+00  0.00000000e+00  0.00000000e+00  2.80461288e-06]","[[-9.97682421e-05  2.84291569e-03]
 [-8.11262430e-05 -8.83122506e-04]]",[],0.0,0.0
1787210978.7110994,1.884669068085128,1.339657622525277,2.145049002908449,"[ 5.37636378e-06  3.12587396e-07  0.00000000e+00  0.00000000e+00
  0.00000000e+00 -4.60516633e-07  3.12587396e-07  3.72872077e-06
  0.00000000e+00  0.00000000e+00  0.00000000e+00 -9.83971336e-08
  0.00000000e+00  0.00000000e+00  0.00000000e+00  0.00000000e+00
  0.00000000e+00  0.00000000e+00  0.00000000e+00  0.00000000e+00
  0.00000000e+00  0.00000000e+00  0.00000000e+00  0.00000000e+00
  0.00000000e+00  0.00000000e+00  0.00000000e+00  0.00000000e+00
  0.00000000e+00  0.00000000e+00 -4.60516633e-07 -9.83971336e-08
  0.00000000e+00  0.00000000e+00  0.00000000e+00  2.69351888e-06]","[[-9.27294928e-05  2.67040274e-03]
 [-7.62406672e-05 -8.97154105e-04]]",[],0.0,0.0
1787210979.0616055,1.884669068085128,1.339657622525277,2.145049002908449,"[ 5.37636378e-06  3.12587396e-07  0.00000000e+00  0.00000000e+00
  0.00000000e+00 -4.60516633e-07  3.12587396e-07  3.72872077e-06
  0.00000000e+00  0.00000000e+00  0.00000000e+00 -9.83971336e-08
  0.00000000e+00  0.00000000e+00  0.00000000e+00  0.00000000e+00
  0.00000000e+00  0.00000000e+00  0.00000000e+00  0.00000000e+00
  0.00000000e+00  0.00000000e+00  0.00000000e+00  0.00000000e+00
  0.00000000e+00  0.00000000e+00  0.00000000e+00  0.00000000e+00
  0.00000000e+00  0.00000000e+00 -4.60516633e-07 -9.83971336e-08
  0.00000000e+00  0.00000000e+00  0.00000000e+00  2.69351888e-06]","[[-9.27294928e-05  2.67040274e-03]
 [-7.62406672e-05 -8.97154105e-04]]",[],0.0,0.0
1787210979.4724104,1.8894026790221703,1.334273877292777,2.162019152852632,"[ 5.03366192e-06  2.81887480e-07  0.00000000e+00  0.00000000e+00
  0.00000000e+00 -4.45303927e-07  2.81887480e-07  3.50832276e-06
  0.00000000e+00  0.00000000e+00  0.00000000e+00 -1.03586086e-07
  0.00000000e+00  0.00000000e+00  0.00000000e+00  0.00000000e+00
  0.00000000e+00  0.00000000e+00  0.00000000e+00  0.00000000e+00
  0.00000000e+00  0.00000000e+00  0.00000000e+00  0.00000000e+00
  0.00000000e+00  0.00000000e+00  0.00000000e+00  0.00000000e+00
  0.00000000e+00  0.00000000e+00 -4.45303927e-07 -1.03586086e-07
  0.00000000e+00  0.00000000e+00  0.00000000e+00  2.74507969e-06]","[[-8.64326722e-05  2.52949293e-03]
 [-7.16376100e-05 -8.27281347e-04]]",[],0.0,0.0
1787210979.4812386,1.8920713664849542,1.3287417730480358,2.1711331573783337,"[ 4.72455857e-06  2.54580719e-07  0.00000000e+00  0.00000000e+00
  0.00000000e+00 -4.00273339e-07  2.54580719e-07  3.32116415e-06
  0.00000000e+00  0.00000000e+00  0.00000000e+00 -7.99126984e-08
  0.00000000e+00  0.00000000e+00  0.00000000e+00  0.00000000e+00
  0.00000000e+00  0.00000000e+00  0.00000000e+00  0.00000000e+00
  0.00000000e+00  0.00000000e+00  0.00000000e+00  0.00000000e+00
  0.00000000e+00  0.00000000e+00  0.00000000e+00  0.00000000e+00
  0.00000000e+00  0.00000000e+00 -4.00273339e-07 -7.99126984e-08
  0.00000000e+00  0.00000000e+00  0.00000000e+00  2.72160229e-06]","[[ 6.77328243e-05  4.11869481e-03]
 [-6.14921202e-05  2.13375133e-03]]",[],0.0,0.0
1787210979.531636,1.8920713664849542,1.3287417730480358,2.1711331573783337,"[ 4.72455857e-06  2.54580719e-07  0.00000000e+00  0.00000000e+00
  0.00000000e+00 -4.00273339e-07  2.54580719e-07  3.32116415e-06
  0.00000000e+00  0.00000000e+00  0.00000000e+00 -7.99126984e-08
  0.00000000e+00  0.00000000e+00  0.00000000e+00  0.00000000e+00
  0.00000000e+00  0.00000000e+00  0.00000000e+00  0.00000000e+00
  0.00000000e+00  0.00000000e+00  0.00000000e+00  0.00000000e+00
  0.00000000e+00  0.00000000e+00  0.00000000e+00  0.00000000e+00
  0.00000000e+00  0.00000000e+00 -4.00273339e-07 -7.99126984e-08
  0.00000000e+00  0.00000000e+00  0.00000000e+00  2.72160229e-06]","[[ 6.77328243e-05  4.11869481e-03]
 [-6.14921202e-05  2.13375133e-03]]",[],0.0,0.0
1787210979.5863802,1.8920713664849542,1.3287417730480358,2.1711331573783337,"[ 4.72455857e-06  2.54580719e-07  0.00000000e+00  0.00000000e+00
  0.00000000e+00 -4.00273339e-07  2.54580719e-07  3.32116415e-06
  0.00000000e+00  0.00000000e+00  0.00000000e+00 -7.99126984e-08
  0.00000000e+00  0.00000000e+00  0.00000000e+00  0.00000000e+00
  0.00000000e+00  0.00000000e+00  0.00000000e+00  0.00000000e+00
  0.00000000e+00  0.00000000e+00  0.00000000e+00  0.00000000e+00
  0.00000000e+00  0.00000000e+00  0.00000000e+00  0.00000000e+00
  0.00000000e+00  0.00000000e+00 -4.00273339e-07 -7.99126984e-08
  0.00000000e+00  0.00000000e+00  0.00000000e+00  2.72160229e-06]","[[ 6.77328243e-05  4.11869481e-03]
 [-6.14921202e-05  2.13375133e-03]]",[],0.0,0.0
1787210979.632771,1.8920713664849542,1.3287417730480358,2.1711331573783337,"[ 4.72455857e-06  2.54580719e-07  0.00000000e+00  0.00000000e+00
  0.00000000e+00 -4.00273339e-07  2.54580719e-07  3.32116415e-06
  0.00000000e+00  0.00000000e+00  0.00000000e+00 -7.99126984e-08
  0.00000000e+00  0.00000000e+00  0.00000000e+00  0.00000000e+00
  0.00000000e+00  0.00000000e+00  0.00000000e+00  0.00000000e+00
  0.00000000e+00  0.00000000e+00  0.00000000e+00  0.00000000e+00
  0.00000000e+00  0.00000000e+00  0.00000000e+00  0.00000000e+00
  0.00000000e+00  0.00000000e+00 -4.00273339e-07 -7.99126984e-08
  0.00000000e+00  0.00000000e+00  0.00000000e+00  2.72160229e-06]","[[ 6.77328243e-05  4.11869481e-03]
 [-6.14921202e-05  2.13375133e-03]]",[],0.0,0.0
1787210979.686824,1.8920713664849542,1.3287417730480358,2.1711331573783337,"[ 4.72455857e-06  2.54580719e-07  0.00000000e+00  0.00000000e+00
  0.00000000e+00 -4.00273339e-07  2.54580719e-07  3.32116415e-06
  0.00000000e+00  0.00000000e+00  0.00000000e+00 -7.99126984e-08
  0.00000000e+00  0.00000000e+00  0.00000000e+00  0.00000000e+00
  0.00000000e+00  0.00000000e+00  0.00000000e+00  0.00000000e+00
  0.00000000e+00  0.00000000e+00  0.00000000e+00  0.00000000e+00
  0.00000000e+00  0.00000000e+00  0.00000000e+00  0.00000000e+00
  0.00000000e+00  0.00000000e+00 -4.00273339e-07 -7.99126984e-08
  0.00000000e+00  0.00000000e+00  0.00000000e+00  2.72160229e-06]","[[ 6.77328243e-05  4.11869481e-03]
 [-6.14921202e-05  2.13375133e-03]]",[],0.0,0.0
1787210979.7312686,1.8920713664849542,1.3287417730480358,2.1711331573783337,"[ 4.72455857e-06  2.54580719e-07  0.00000000e+00  0.00000000e+00
  0.00000000e+00 -4.00273339e-07  2.54580719e-07  3.32116415e-06
  0.00000000e+00  0.00000000e+00  0.00000000e+00 -7.99126984e-08
  0.00000000e+00  0.00000000e+00  0.00000000e+00  0.00000000e+00
  0.00000000e+00  0.00000000e+00  0.00000000e+00  0.00000000e+00
  0.00000000e+00  0.00000000e+00  0.00000000e+00  0.00000000e+00
  0.00000000e+00  0.00000000e+00  0.00000000e+00  0.00000000e+00
  0.00000000e+00  0.00000000e+00 -4.00273339e-07 -7.99126984e-08
  0.00000000e+00  0.00000000e+00  0.00000000e+00  2.72160229e-06]","[[ 6.77328243e-05  4.11869481e-03]
 [-6.14921202e-05  2.13375133e-03]]",[],0.0,0.0
1787210979.7813673,1.8920713664849542,1.3287417730480358,2.1711331573783337,"[ 4.72455857e-06  2.54580719e-07  0.00000000e+00  0.00000000e+00
  0.00000000e+00 -4.00273339e-07  2.54580719e-07  3.32116415e-06
  0.00000000e+00  0.00000000e+00  0.00000000e+00 -7.99126984e-08
  0.00000000e+00  0.00000000e+00  0.00000000e+00  0.00000000e+00
  0.00000000e+00  0.00000000e+00  0.00000000e+00  0.00000000e+00
  0.00000000e+00  0.00000000e+00  0.00000000e+00  0.00000000e+00
  0.00000000e+00  0.00000000e+00  0.00000000e+00  0.00000000e+00
  0.00000000e+00  0.00000000e+00 -4.00273339e-07 -7.99126984e-08
  0.00000000e+00  0.00000000e+00  0.00000000e+00  2.72160229e-06]","[[ 6.77328243e-05  4.11869481e-03]
 [-6.14921202e-05  2.13375133e-03]]",[],0.0,0.0
1787210979.885316,1.8920713664849542,1.3287417730480358,2.1711331573783337,"[ 4.72455857e-06  2.54580719e-07  0.00000000e+00  0.00000000e+00
  0.00000000e+00 -4.00273339e-07  2.54580719e-07  3.32116415e-06
  0.00000000e+00  0.00000000e+00  0.00000000e+00 -7.99126984e-08
  0.00000000e+00  0.00000000e+00  0.00000000e+00  0.00000000e+00
  0.00000000e+00  0.00000000e+00  0.00000000e+00  0.00000000e+00
  0.00000000e+00  0.00000000e+00  0.00000000e+00  0.00000000e+00
  0.00000000e+00  0.00000000e+00  0.00000000e+00  0.00000000e+00
  0.00000000e+00  0.00000000e+00 -4.00273339e-07 -7.99126984e-08
  0.00000000e+00  0.00000000e+00  0.00000000e+00  2.72160229e-06]","[[ 6.77328243e-05  4.11869481e-03]
 [-6.14921202e-05  2.13375133e-03]]",[],0.0,0.0
1787210979.9798863,1.8920713664849542,1.3287417730480358,2.1711331573783337,"[ 4.72455857e-06  2.54580719e-07  0.00000000e+00  0.00000000e+00
  0.00000000e+00 -4.00273339e-07  2.54580719e-07  3.32116415e-06
  0.00000000e+00  0.00000000e+00  0.00000000e+00 -7.99126984e-08
  0.00000000e+00  0.00000000e+00  0.00000000e+00  0.00000000e+00
  0.00000000e+00  0.00000000e+00  0.00000000e+00  0.00000000e+00
  0.00000000e+00  0.00000000e+00  0.00000000e+00  0.00000000e+00
  0.00000000e+00  0.00000000e+00  0.00000000e+00  0.00000000e+00
  0.00000000e+00  0.00000000e+00 -4.00273339e-07 -7.99126984e-08
  0.00000000e+00  0.00000000e+00  0.00000000e+00  2.72160229e-06]","[[ 6.77328243e-05  4.11869481e-03]
 [-6.14921202e-05  2.13375133e-03]]",[],0.0,0.0
1787210979.999761,1.8920713664849542,1.3287417730480358,2.1711331573783337,"[ 4.72455857e-06  2.54580719e-07  0.00000000e+00  0.00000000e+00
  0.00000000e+00 -4.00273339e-07  2.54580719e-07  3.32116415e-06
  0.00000000e+00  0.00000000e+00  0.00000000e+00 -7.99126984e-08
  0.00000000e+00  0.00000000e+00  0.00000000e+00  0.00000000e+00
  0.00000000e+00  0.00000000e+00  0.00000000e+00  0.00000000e+00
  0.00000000e+00  0.00000000e+00  0.00000000e+00  0.00000000e+00
  0.00000000e+00  0.00000000e+00  0.00000000e+00  0.00000000e+00
  0.00000000e+00  0.00000000e+00 -4.00273339e-07 -7.99126984e-08
  0.00000000e+00  0.00000000e+00  0.00000000e+00  2.72160229e-06]","[[ 6.77328243e-05  4.11869481e-03]
 [-6.14921202e-05  2.13375133e-03]]",[],0.0,0.0
1787210980.0405228,1.8920713664849542,1.3287417730480358,2.1711331573783337,"[ 4.72455857e-06  2.54580719e-07  0.00000000e+00  0.00000000e+00
  0.00000000e+00 -4.00273339e-07  2.54580719e-07  3.32116415e-06
  0.00000000e+00  0.00000000e+00  0.00000000e+00 -7.99126984e-08
  0.00000000e+00  0.00000000e+00  0.00000000e+00  0.00000000e+00
  0.00000000e+00  0.00000000e+00  0.00000000e+00  0.00000000e+00
  0.00000000e+00  0.00000000e+00  0.00000000e+00  0.00000000e+00
  0.00000000e+00  0.00000000e+00  0.00000000e+00  0.00000000e+00
  0.00000000e+00  0.00000000e+00 -4.00273339e-07 -7.99126984e-08
  0.00000000e+00  0.00000000e+00  0.00000000e+00  2.72160229e-06]","[[ 6.77328243e-05  4.11869481e-03]
 [-6.14921202e-05  2.13375133e-03]]",[],0.0,0.0
1787210980.0825136,1.8920713664849542,1.3287417730480358,2.1711331573783337,"[ 4.72455857e-06  2.54580719e-07  0.00000000e+00  0.00000000e+00
  0.00000000e+00 -4.00273339e-07  2.54580719e-07  3.32116415e-06
  0.00000000e+00  0.00000000e+00  0.00000000e+00 -7.99126984e-08
  0.00000000e+00  0.00000000e+00  0.00000000e+00  0.00000000e+00
  0.00000000e+00  0.00000000e+00  0.00000000e+00  0.00000000e+00
  0.00000000e+00  0.00000000e+00  0.00000000e+00  0.00000000e+00
  0.00000000e+00  0.00000000e+00  0.00000000e+00  0.00000000e+00
  0.00000000e+00  0.00000000e+00 -4.00273339e-07 -7.99126984e-08
  0.00000000e+00  0.00000000e+00  0.00000000e+00  2.72160229e-06]","[[ 6.77328243e-05  4.11869481e-03]
 [-6.14921202e-05  2.13375133e-03]]",[],0.0,0.0
1787210980.132465,1.8920713664849542,1.3287417730480358,2.1711331573783337,"[ 4.72455857e-06  2.54580719e-07  0.00000000e+00  0.00000000e+00
  0.00000000e+00 -4.00273339e-07  2.54580719e-07  3.32116415e-06
  0.00000000e+00  0.00000000e+00  0.00000000e+00 -7.99126984e-08
  0.00000000e+00  0.00000000e+00  0.00000000e+00  0.00000000e+00
  0.00000000e+00  0.00000000e+00  0.00000000e+00  0.00000000e+00
  0.00000000e+00  0.00000000e+00  0.00000000e+00  0.00000000e+00
  0.00000000e+00  0.00000000e+00  0.00000000e+00  0.00000000e+00
  0.00000000e+00  0.00000000e+00 -4.00273339e-07 -7.99126984e-08
  0.00000000e+00  0.00000000e+00  0.00000000e+00  2.72160229e-06]","[[ 6.77328243e-05  4.11869481e-03]
 [-6.14921202e-05  2.13375133e-03]]",[],0.0,0.0
1787210980.1815724,1.8958197803651453,1.322682787335859,2.206163891185269,"[ 4.46762131e-06  1.70116733e-07  0.00000000e+00  0.00000000e+00
  0.00000000e+00 -4.17807519e-07  1.70116733e-07  3.21501227e-06
  0.00000000e+00  0.00000000e+00  0.00000000e+00 -6.48430868e-08
  0.00000000e+00  0.00000000e+00  0.00000000e+00  0.00000000e+00
  0.00000000e+00  0.00000000e+00  0.00000000e+00  0.00000000e+00
  0.00000000e+00  0.00000000e+00  0.00000000e+00  0.00000000e+00
  0.00000000e+00  0.00000000e+00  0.00000000e+00  0.00000000e+00
  0.00000000e+00  0.00000000e+00 -4.17807519e-07 -6.48430868e-08
  0.00000000e+00  0.00000000e+00  0.00000000e+00  3.23358518e-06]","[[-7.48714551e-05  2.31135605e-03]
 [-6.44095836e-05 -8.35132395e-04]]",[],0.0,0.0
1787210980.2325904,1.8958197803651453,1.322682787335859,2.206163891185269,"[ 4.46762131e-06  1.70116733e-07  0.00000000e+00  0.00000000e+00
  0.00000000e+00 -4.17807519e-07  1.70116733e-07  3.21501227e-06
  0.00000000e+00  0.00000000e+00  0.00000000e+00 -6.48430868e-08
  0.00000000e+00  0.00000000e+00  0.00000000e+00  0.00000000e+00
  0.00000000e+00  0.00000000e+00  0.00000000e+00  0.00000000e+00
  0.00000000e+00  0.00000000e+00  0.00000000e+00  0.00000000e+00
  0.00000000e+00  0.00000000e+00  0.00000000e+00  0.00000000e+00
  0.00000000e+00  0.00000000e+00 -4.17807519e-07 -6.48430868e-08
  0.00000000e+00  0.00000000e+00  0.00000000e+00  3.23358518e-06]","[[-7.48714551e-05  2.31135605e-03]
 [-6.44095836e-05 -8.35132395e-04]]",[],0.0,0.0
1787210980.2848608,1.8958197803651453,1.322682787335859,2.206163891185269,"[ 4.46762131e-06  1.70116733e-07  0.00000000e+00  0.00000000e+00
  0.00000000e+00 -4.17807519e-07  1.70116733e-07  3.21501227e-06
  0.00000000e+00  0.00000000e+00  0.00000000e+00 -6.48430868e-08
  0.00000000e+00  0.00000000e+00  0.00000000e+00  0.00000000e+00
  0.00000000e+00  0.00000000e+00  0.00000000e+00  0.00000000e+00
  0.00000000e+00  0.00000000e+00  0.00000000e+00  0.00000000e+00
  0.00000000e+00  0.00000000e+00  0.00000000e+00  0.00000000e+00
  0.00000000e+00  0.00000000e+00 -4.17807519e-07 -6.48430868e-08
  0.00000000e+00  0.00000000e+00  0.00000000e+00  3.23358518e-06]","[[-7.48714551e-05  2.31135605e-03]
 [-6.44095836e-05 -8.35132395e-04]]",[],0.0,0.0
1787210980.7119813,1.8958197803651453,1.322682787335859,2.206163891185269,"[ 4.46762131e-06  1.70116733e-07  0.00000000e+00  0.00000000e+00
  0.00000000e+00 -4.17807519e-07  1.70116733e-07  3.21501227e-06
  0.00000000e+00  0.00000000e+00  0.00000000e+00 -6.48430868e-08
  0.00000000e+00  0.00000000e+00  0.00000000e+00  0.00000000e+00
  0.00000000e+00  0.00000000e+00  0.00000000e+00  0.00000000e+00
  0.00000000e+00  0.00000000e+00  0.00000000e+00  0.00000000e+00
  0.00000000e+00  0.00000000e+00  0.00000000e+00  0.00000000e+00
  0.00000000e+00  0.00000000e+00 -4.17807519e-07 -6.48430868e-08
  0.00000000e+00  0.00000000e+00  0.00000000e+00  3.23358518e-06]","[[-7.48714551e-05  2.31135605e-03]
 [-6.44095836e-05 -8.35132395e-04]]",[],0.0,0.0
1787210981.108324,1.900030706592347,1.3173513814056488,2.2136865101554015,"[ 4.24757680e-06  1.31759943e-07  0.00000000e+00  0.00000000e+00
  0.00000000e+00 -3.82999413e-07  1.31759943e-07  3.08898996e-06
  0.00000000e+00  0.00000000e+00  0.00000000e+00 -8.31803770e-08
  0.00000000e+00  0.00000000e+00  0.00000000e+00  0.00000000e+00
  0.00000000e+00  0.00000000e+00  0.00000000e+00  0.00000000e+00
  0.00000000e+00  0.00000000e+00  0.00000000e+00  0.00000000e+00
  0.00000000e+00  0.00000000e+00  0.00000000e+00  0.00000000e+00
  0.00000000e+00  0.00000000e+00 -3.82999413e-07 -8.31803770e-08
  0.00000000e+00  0.00000000e+00  0.00000000e+00  3.16362632e-06]","[[-7.04502162e-05  2.18507393e-03]
 [-6.14705051e-05 -7.76734190e-04]]",[],0.0,0.0
1787210981.1696963,1.9028770817371115,1.3132480679735394,2.2188924192600243,"[ 4.01895962e-06  1.16808776e-07  0.00000000e+00  0.00000000e+00
  0.00000000e+00 -3.76975422e-07  1.16808776e-07  2.94709911e-06
  0.00000000e+00  0.00000000e+00  0.00000000e+00 -7.66941373e-08
  0.00000000e+00  0.00000000e+00  0.00000000e+00  0.00000000e+00
  0.00000000e+00  0.00000000e+00  0.00000000e+00  0.00000000e+00
  0.00000000e+00  0.00000000e+00  0.00000000e+00  0.00000000e+00
  0.00000000e+00  0.00000000e+00  0.00000000e+00  0.00000000e+00
  0.00000000e+00  0.00000000e+00 -3.76975422e-07 -7.66941373e-08
  0.00000000e+00  0.00000000e+00  0.00000000e+00  2.71617899e-06]","[[-6.36518609e-05  3.27462270e-03]
 [-6.01367579e-05 -1.32716877e-03]]",[],0.0,0.0
1787210981.5053446,1.9028770817371115,1.3132480679735394,2.2188924192600243,"[ 4.01895962e-06  1.16808776e-07  0.00000000e+00  0.00000000e+00
  0.00000000e+00 -3.76975422e-07  1.16808776e-07  2.94709911e-06
  0.00000000e+00  0.00000000e+00  0.00000000e+00 -7.66941373e-08
  0.00000000e+00  0.00000000e+00  0.00000000e+00  0.00000000e+00
  0.00000000e+00  0.00000000e+00  0.00000000e+00  0.00000000e+00
  0.00000000e+00  0.00000000e+00  0.00000000e+00  0.00000000e+00
  0.00000000e+00  0.00000000e+00  0.00000000e+00  0.00000000e+00
  0.00000000e+00  0.00000000e+00 -3.76975422e-07 -7.66941373e-08
  0.00000000e+00  0.00000000e+00  0.00000000e+00  2.71617899e-06]","[[-6.36518609e-05  3.27462270e-03]
 [-6.01367579e-05 -1.32716877e-03]]",[],0.0,0.0
1787210981.5474765,1.9065914803766888,1.3086753519956842,2.2195947599202004,"[ 3.81549053e-06  1.06830147e-07  0.00000000e+00  0.00000000e+00
  0.00000000e+00 -3.35872023e-07  1.06830147e-07  2.82248059e-06
  0.00000000e+00  0.00000000e+00  0.00000000e+00 -7.66479237e-08
  0.00000000e+00  0.00000000e+00  0.00000000e+00  0.00000000e+00
  0.00000000e+00  0.00000000e+00  0.00000000e+00  0.00000000e+00
  0.00000000e+00  0.00000000e+00  0.00000000e+00  0.00000000e+00
  0.00000000e+00  0.00000000e+00  0.00000000e+00  0.00000000e+00
  0.00000000e+00  0.00000000e+00 -3.35872023e-07 -7.66479237e-08
  0.00000000e+00  0.00000000e+00  0.00000000e+00  2.69493846e-06]","[[-6.01675974e-05  3.07759219e-03]
 [-5.76171248e-05 -1.26326954e-03]]",[],0.0,0.0
1787210982.0069864,1.9065914803766888,1.3086753519956842,2.2195947599202004,"[ 3.81549053e-06  1.06830147e-07  0.00000000e+00  0.00000000e+00
  0.00000000e+00 -3.35872023e-07  1.06830147e-07  2.82248059e-06
  0.00000000e+00  0.00000000e+00  0.00000000e+00 -7.66479237e-08
  0.00000000e+00  0.00000000e+00  0.00000000e+00  0.00000000e+00
  0.00000000e+00  0.00000000e+00  0.00000000e+00  0.00000000e+00
  0.00000000e+00  0.00000000e+00  0.00000000e+00  0.00000000e+00
  0.00000000e+00  0.00000000e+00  0.00000000e+00  0.00000000e+00
  0.00000000e+00  0.00000000e+00 -3.35872023e-07 -7.66479237e-08
  0.00000000e+00  0.00000000e+00  0.00000000e+00  2.69493846e-06]","[[-6.01675974e-05  3.07759219e-03]
 [-5.76171248e-05 -1.26326954e-03]]",[],0.0,0.0
1787210982.5693738,1.9088508103754243,1.3033089228988373,2.230714914085092,"[ 3.64222932e-06  8.33650951e-08  0.00000000e+00  0.00000000e+00
  0.00000000e+00 -2.88637360e-07  8.33650951e-08  2.72465686e-06
  0.00000000e+00  0.00000000e+00  0.00000000e+00 -6.84226919e-08
  0.00000000e+00  0.00000000e+00  0.00000000e+00  0.00000000e+00
  0.00000000e+00  0.00000000e+00  0.00000000e+00  0.00000000e+00
  0.00000000e+00  0.00000000e+00  0.00000000e+00  0.00000000e+00
  0.00000000e+00  0.00000000e+00  0.00000000e+00  0.00000000e+00
  0.00000000e+00  0.00000000e+00 -2.88637360e-07 -6.84226919e-08
  0.00000000e+00  0.00000000e+00  0.00000000e+00  2.96744395e-06]","[[-5.68566760e-05  2.89858407e-03]
 [-5.54365764e-05 -1.23553337e-03]]",[],0.0,0.0
1787210982.5812325,1.912763836883441,1.298411917380678,2.242037298008386,"[ 3.49471627e-06  4.59020527e-08  0.00000000e+00  0.00000000e+00
  0.00000000e+00 -3.09994676e-07  4.59020527e-08  2.65259606e-06
  0.00000000e+00  0.00000000e+00  0.00000000e+00 -5.61578122e-08
  0.00000000e+00  0.00000000e+00  0.00000000e+00  0.00000000e+00
  0.00000000e+00  0.00000000e+00  0.00000000e+00  0.00000000e+00
  0.00000000e+00  0.00000000e+00  0.00000000e+00  0.00000000e+00
  0.00000000e+00  0.00000000e+00  0.00000000e+00  0.00000000e+00
  0.00000000e+00  0.00000000e+00 -3.09994676e-07 -5.61578122e-08
  0.00000000e+00  0.00000000e+00  0.00000000e+00  3.09867380e-06]","[[-5.36976230e-05  2.85467534e-03]
 [-5.35377735e-05 -1.23729582e-03]]",[],0.0,0.0
1787210982.6386871,1.912763836883441,1.298411917380678,2.242037298008386,"[ 3.49471627e-06  4.59020527e-08  0.00000000e+00  0.00000000e+00
  0.00000000e+00 -3.09994676e-07  4.59020527e-08  2.65259606e-06
  0.00000000e+00  0.00000000e+00  0.00000000e+00 -5.61578122e-08
  0.00000000e+00  0.00000000e+00  0.00000000e+00  0.00000000e+00
  0.00000000e+00  0.00000000e+00  0.00000000e+00  0.00000000e+00
  0.00000000e+00  0.00000000e+00  0.00000000e+00  0.00000000e+00
  0.00000000e+00  0.00000000e+00  0.00000000e+00  0.00000000e+00
  0.00000000e+00  0.00000000e+00 -3.09994676e-07 -5.61578122e-08
  0.00000000e+00  0.00000000e+00  0.00000000e+00  3.09867380e-06]","[[-5.36976230e-05  2.85467534e-03]
 [-5.35377735e-05 -1.23729582e-03]]",[],0.0,0.0
1787210983.1247306,1.912763836883441,1.298411917380678,2.242037298008386,"[ 3.49471627e-06  4.59020527e-08  0.00000000e+00  0.00000000e+00
  0.00000000e+00 -3.09994676e-07  4.59020527e-08  2.65259606e-06
  0.00000000e+00  0.00000000e+00  0.00000000e+00 -5.61578122e-08
  0.00000000e+00  0.00000000e+00  0.00000000e+00  0.00000000e+00
  0.00000000e+00  0.00000000e+00  0.00000000e+00  0.00000000e+00
  0.00000000e+00  0.00000000e+00  0.00000000e+00  0.00000000e+00
  0.00000000e+00  0.00000000e+00  0.00000000e+00  0.00000000e+00
  0.00000000e+00  0.00000000e+00 -3.09994676e-07 -5.61578122e-08
  0.00000000e+00  0.00000000e+00  0.00000000e+00  3.09867380e-06]","[[-5.36976230e-05  2.85467534e-03]
 [-5.35377735e-05 -1.23729582e-03]]",[],0.0,0.0
1787210983.5287316,1.915428139161922,1.2939773000913033,2.263129021317919,"[ 3.36028747e-06  1.79263518e-08  0.00000000e+00  0.00000000e+00
  0.00000000e+00 -2.59389528e-07  1.79263518e-08  2.58862519e-06
  0.00000000e+00  0.00000000e+00  0.00000000e+00 -2.94913530e-08
  0.00000000e+00  0.00000000e+00  0.00000000e+00  0.00000000e+00
  0.00000000e+00  0.00000000e+00  0.00000000e+00  0.00000000e+00
  0.00000000e+00  0.00000000e+00  0.00000000e+00  0.00000000e+00
  0.00000000e+00  0.00000000e+00  0.00000000e+00  0.00000000e+00
  0.00000000e+00  0.00000000e+00 -2.59389528e-07 -2.94913530e-08
  0.00000000e+00  0.00000000e+00  0.00000000e+00  3.12694368e-06]","[[-5.09017729e-05  2.69794002e-03]
 [-5.19613741e-05 -1.26096969e-03]]",[],0.0,0.0
1787210983.5337553,1.915428139161922,1.2939773000913033,2.263129021317919,"[ 3.36028747e-06  1.79263518e-08  0.00000000e+00  0.00000000e+00
  0.00000000e+00 -2.59389528e-07  1.79263518e-08  2.58862519e-06
  0.00000000e+00  0.00000000e+00  0.00000000e+00 -2.94913530e-08
  0.00000000e+00  0.00000000e+00  0.00000000e+00  0.00000000e+00
  0.00000000e+00  0.00000000e+00  0.00000000e+00  0.00000000e+00
  0.00000000e+00  0.00000000e+00  0.00000000e+00  0.00000000e+00
  0.00000000e+00  0.00000000e+00  0.00000000e+00  0.00000000e+00
  0.00000000e+00  0.00000000e+00 -2.59389528e-07 -2.94913530e-08
  0.00000000e+00  0.00000000e+00  0.00000000e+00  3.12694368e-06]","[[-5.09017729e-05  2.69794002e-03]
 [-5.19613741e-05 -1.26096969e-03]]",[],0.0,0.0
1787210983.9542398,1.917419203342705,1.2890815970505691,2.264999350668149,"[ 3.21873140e-06  8.05568727e-09  0.00000000e+00  0.00000000e+00
  0.00000000e+00 -2.71995885e-07  8.05568727e-09  2.48832588e-06
  0.00000000e+00  0.00000000e+00  0.00000000e+00 -5.95282664e-08
  0.00000000e+00  0.00000000e+00  0.00000000e+00  0.00000000e+00
  0.00000000e+00  0.00000000e+00  0.00000000e+00  0.00000000e+00
  0.00000000e+00  0.00000000e+00  0.00000000e+00  0.00000000e+00
  0.00000000e+00  0.00000000e+00  0.00000000e+00  0.00000000e+00
  0.00000000e+00  0.00000000e+00 -2.71995885e-07 -5.95282664e-08
  0.00000000e+00  0.00000000e+00  0.00000000e+00  2.69150439e-06]","[[-4.84175668e-05  2.62973749e-03]
 [-4.99015282e-05 -1.16134305e-03]]",[],0.0,0.0
1787210983.9915712,1.9199121405142239,1.284607807773248,2.264783982329533,"[ 3.09520249e-06 -2.88496641e-09  0.00000000e+00  0.00000000e+00
  0.00000000e+00 -2.80269879e-07 -2.88496641e-09  2.40820129e-06
  0.00000000e+00  0.00000000e+00  0.00000000e+00 -4.89426240e-08
  0.00000000e+00  0.00000000e+00  0.00000000e+00  0.00000000e+00
  0.00000000e+00  0.00000000e+00  0.00000000e+00  0.00000000e+00
  0.00000000e+00  0.00000000e+00  0.00000000e+00  0.00000000e+00
  0.00000000e+00  0.00000000e+00  0.00000000e+00  0.00000000e+00
  0.00000000e+00  0.00000000e+00 -2.80269879e-07 -4.89426240e-08
  0.00000000e+00  0.00000000e+00  0.00000000e+00  2.74006928e-06]","[[-4.31569703e-05  2.71861664e-03]
 [-4.99000479e-05 -1.10172392e-03]]",[],0.0,0.0
1787210984.0439308,1.9199121405142239,1.284607807773248,2.264783982329533,"[ 3.09520249e-06 -2.88496641e-09  0.00000000e+00  0.00000000e+00
  0.00000000e+00 -2.80269879e-07 -2.88496641e-09  2.40820129e-06
  0.00000000e+00  0.00000000e+00  0.00000000e+00 -4.89426240e-08
  0.00000000e+00  0.00000000e+00  0.00000000e+00  0.00000000e+00
  0.00000000e+00  0.00000000e+00  0.00000000e+00  0.00000000e+00
  0.00000000e+00  0.00000000e+00  0.00000000e+00  0.00000000e+00
  0.00000000e+00  0.00000000e+00  0.00000000e+00  0.00000000e+00
  0.00000000e+00  0.00000000e+00 -2.80269879e-07 -4.89426240e-08
  0.00000000e+00  0.00000000e+00  0.00000000e+00  2.74006928e-06]","[[-4.31569703e-05  2.71861664e-03]
 [-4.99000479e-05 -1.10172392e-03]]",[],0.0,0.0
1787210984.323473,1.9199121405142239,1.284607807773248,2.264783982329533,"[ 3.09520249e-06 -2.88496641e-09  0.00000000e+00  0.00000000e+00
  0.00000000e+00 -2.80269879e-07 -2.88496641e-09  2.40820129e-06
  0.00000000e+00  0.00000000e+00  0.00000000e+00 -4.89426240e-08
  0.00000000e+00  0.00000000e+00  0.00000000e+00  0.00000000e+00
  0.00000000e+00  0.00000000e+00  0.00000000e+00  0.00000000e+00
  0.00000000e+00  0.00000000e+00  0.00000000e+00  0.00000000e+00
  0.00000000e+00  0.00000000e+00  0.00000000e+00  0.00000000e+00
  0.00000000e+00  0.00000000e+00 -2.80269879e-07 -4.89426240e-08
  0.00000000e+00  0.00000000e+00  0.00000000e+00  2.74006928e-06]","[[-4.31569703e-05  2.71861664e-03]
 [-4.99000479e-05 -1.10172392e-03]]",[],0.0,0.0
1787210984.3306453,1.9199121405142239,1.284607807773248,2.264783982329533,"[ 3.09520249e-06 -2.88496641e-09  0.00000000e+00  0.00000000e+00
  0.00000000e+00 -2.80269879e-07 -2.88496641e-09  2.40820129e-06
  0.00000000e+00  0.00000000e+00  0.00000000e+00 -4.89426240e-08
  0.00000000e+00  0.00000000e+00  0.00000000e+00  0.00000000e+00
  0.00000000e+00  0.00000000e+00  0.00000000e+00  0.00000000e+00
  0.00000000e+00  0.00000000e+00  0.00000000e+00  0.00000000e+00
  0.00000000e+00  0.00000000e+00  0.00000000e+00  0.00000000e+00
  0.00000000e+00  0.00000000e+00 -2.80269879e-07 -4.89426240e-08
  0.00000000e+00  0.00000000e+00  0.00000000e+00  2.74006928e-06]","[[-4.31569703e-05  2.71861664e-03]
 [-4.99000479e-05 -1.10172392e-03]]",[],0.0,0.0
1787210984.7285073,1.9213277581376547,1.2809645981881768,2.272472012858252,"[ 2.97337559e-06 -7.62896453e-09  0.00000000e+00  0.00000000e+00
  0.00000000e+00 -2.52115553e-07 -7.62896453e-09  2.32646400e-06
  0.00000000e+00  0.00000000e+00  0.00000000e+00 -4.45842038e-08
  0.00000000e+00  0.00000000e+00  0.00000000e+00  0.00000000e+00
  0.00000000e+00  0.00000000e+00  0.00000000e+00  0.00000000e+00
  0.00000000e+00  0.00000000e+00  0.00000000e+00  0.00000000e+00
  0.00000000e+00  0.00000000e+00  0.00000000e+00  0.00000000e+00
  0.00000000e+00  0.00000000e+00 -2.52115553e-07 -4.45842038e-08
  0.00000000e+00  0.00000000e+00  0.00000000e+00  2.52703889e-06]","[[-4.12079567e-05  2.58650467e-03]
 [-4.82176397e-05 -1.06681555e-03]]",[],0.0,0.0
1787210984.7346303,1.9213277581376547,1.2809645981881768,2.272472012858252,"[ 2.97337559e-06 -7.62896453e-09  0.00000000e+00  0.00000000e+00
  0.00000000e+00 -2.52115553e-07 -7.62896453e-09  2.32646400e-06
  0.00000000e+00  0.00000000e+00  0.00000000e+00 -4.45842038e-08
  0.00000000e+00  0.00000000e+00  0.00000000e+00  0.00000000e+00
  0.00000000e+00  0.00000000e+00  0.00000000e+00  0.00000000e+00
  0.00000000e+00  0.00000000e+00  0.00000000e+00  0.00000000e+00
  0.00000000e+00  0.00000000e+00  0.00000000e+00  0.00000000e+00
  0.00000000e+00  0.00000000e+00 -2.52115553e-07 -4.45842038e-08
  0.00000000e+00  0.00000000e+00  0.00000000e+00  2.52703889e-06]","[[-4.12079567e-05  2.58650467e-03]
 [-4.82176397e-05 -1.06681555e-03]]",[],0.0,0.0
1787210985.0832734,1.9228069105379186,1.2769443619119334,2.2775694237771784,"[ 2.86424872e-06 -1.48586960e-08  0.00000000e+00  0.00000000e+00
  0.00000000e+00 -2.31172613e-07 -1.48586960e-08  2.25262426e-06
  0.00000000e+00  0.00000000e+00  0.00000000e+00 -4.78167333e-08
  0.00000000e+00  0.00000000e+00  0.00000000e+00  0.00000000e+00
  0.00000000e+00  0.00000000e+00  0.00000000e+00  0.00000000e+00
  0.00000000e+00  0.00000000e+00  0.00000000e+00  0.00000000e+00
  0.00000000e+00  0.00000000e+00  0.00000000e+00  0.00000000e+00
  0.00000000e+00  0.00000000e+00 -2.31172613e-07 -4.78167333e-08
  0.00000000e+00  0.00000000e+00  0.00000000e+00  2.62630178e-06]","[[-4.22757016e-05  2.33563550e-03]
 [-4.50596643e-05 -1.06260998e-03]]",[],0.0,0.0
1787210985.1309247,1.9244253499406143,1.2734537530586365,2.274953665444418,"[ 2.76569458e-06 -1.79795669e-08  0.00000000e+00  0.00000000e+00
  0.00000000e+00 -2.25816487e-07 -1.79795669e-08  2.18121025e-06
  0.00000000e+00  0.00000000e+00  0.00000000e+00 -4.24242650e-08
  0.00000000e+00  0.00000000e+00  0.00000000e+00  0.00000000e+00
  0.00000000e+00  0.00000000e+00  0.00000000e+00  0.00000000e+00
  0.00000000e+00  0.00000000e+00  0.00000000e+00  0.00000000e+00
  0.00000000e+00  0.00000000e+00  0.00000000e+00  0.00000000e+00
  0.00000000e+00  0.00000000e+00 -2.25816487e-07 -4.24242650e-08
  0.00000000e+00  0.00000000e+00  0.00000000e+00  2.50930678e-06]","[[-3.78999480e-05  2.39636955e-03]
 [-4.51645700e-05 -9.98783284e-04]]",[],0.0,0.0
1787210985.1824381,1.9244253499406143,1.2734537530586365,2.274953665444418,"[ 2.76569458e-06 -1.79795669e-08  0.00000000e+00  0.00000000e+00
  0.00000000e+00 -2.25816487e-07 -1.79795669e-08  2.18121025e-06
  0.00000000e+00  0.00000000e+00  0.00000000e+00 -4.24242650e-08
  0.00000000e+00  0.00000000e+00  0.00000000e+00  0.00000000e+00
  0.00000000e+00  0.00000000e+00  0.00000000e+00  0.00000000e+00
  0.00000000e+00  0.00000000e+00  0.00000000e+00  0.00000000e+00
  0.00000000e+00  0.00000000e+00  0.00000000e+00  0.00000000e+00
  0.00000000e+00  0.00000000e+00 -2.25816487e-07 -4.24242650e-08
  0.00000000e+00  0.00000000e+00  0.00000000e+00  2.50930678e-06]","[[-3.78999480e-05  2.39636955e-03]
 [-4.51645700e-05 -9.98783284e-04]]",[],0.0,0.0
1787210985.2312653,1.9244253499406143,1.2734537530586365,2.274953665444418,"[ 2.76569458e-06 -1.79795669e-08  0.00000000e+00  0.00000000e+00
  0.00000000e+00 -2.25816487e-07 -1.79795669e-08  2.18121025e-06
  0.00000000e+00  0.00000000e+00  0.00000000e+00 -4.24242650e-08
  0.00000000e+00  0.00000000e+00  0.00000000e+00  0.00000000e+00
  0.00000000e+00  0.00000000e+00  0.00000000e+00  0.00000000e+00
  0.00000000e+00  0.00000000e+00  0.00000000e+00  0.00000000e+00
  0.00000000e+00  0.00000000e+00  0.00000000e+00  0.00000000e+00
  0.00000000e+00  0.00000000e+00 -2.25816487e-07 -4.24242650e-08
  0.00000000e+00  0.00000000e+00  0.00000000e+00  2.50930678e-06]","[[-3.78999480e-05  2.39636955e-03]
 [-4.51645700e-05 -9.98783284e-04]]",[],0.0,0.0
1787210985.2856407,1.9244253499406143,1.2734537530586365,2.274953665444418,"[ 2.76569458e-06 -1.79795669e-08  0.00000000e+00  0.00000000e+00
  0.00000000e+00 -2.25816487e-07 -1.79795669e-08  2.18121025e-06
  0.00000000e+00  0.00000000e+00  0.00000000e+00 -4.24242650e-08
  0.00000000e+00  0.00000000e+00  0.00000000e+00  0.00000000e+00
  0.00000000e+00  0.00000000e+00  0.00000000e+00  0.00000000e+00
  0.00000000e+00  0.00000000e+00  0.00000000e+00  0.00000000e+00
  0.00000000e+00  0.00000000e+00  0.00000000e+00  0.00000000e+00
  0.00000000e+00  0.00000000e+00 -2.25816487e-07 -4.24242650e-08
  0.00000000e+00  0.00000000e+00  0.00000000e+00  2.50930678e-06]","[[-3.78999480e-05  2.39636955e-03]
 [-4.51645700e-05 -9.98783284e-04]]",[],0.0,0.0
1787210985.3352106,1.9244253499406143,1.2734537530586365,2.274953665444418,"[ 2.76569458e-06 -1.79795669e-08  0.00000000e+00  0.00000000e+00
  0.00000000e+00 -2.25816487e-07 -1.79795669e-08  2.18121025e-06
  0.00000000e+00  0.00000000e+00  0.00000000e+00 -4.24242650e-08
  0.00000000e+00  0.00000000e+00  0.00000000e+00  0.00000000e+00
  0.00000000e+00  0.00000000e+00  0.00000000e+00  0.00000000e+00
  0.00000000e+00  0.00000000e+00  0.00000000e+00  0.00000000e+00
  0.00000000e+00  0.00000000e+00  0.00000000e+00  0.00000000e+00
  0.00000000e+00  0.00000000e+00 -2.25816487e-07 -4.24242650e-08
  0.00000000e+00  0.00000000e+00  0.00000000e+00  2.50930678e-06]","[[-3.78999480e-05  2.39636955e-03]
 [-4.51645700e-05 -9.98783284e-04]]",[],0.0,0.0
1787210985.3869908,1.9244253499406143,1.2734537530586365,2.274953665444418,"[ 2.76569458e-06 -1.79795669e-08  0.00000000e+00  0.00000000e+00
  0.00000000e+00 -2.25816487e-07 -1.79795669e-08  2.18121025e-06
  0.00000000e+00  0.00000000e+00  0.00000000e+00 -4.24242650e-08
  0.00000000e+00  0.00000000e+00  0.00000000e+00  0.00000000e+00
  0.00000000e+00  0.00000000e+00  0.00000000e+00  0.00000000e+00
  0.00000000e+00  0.00000000e+00  0.00000000e+00  0.00000000e+00
  0.00000000e+00  0.00000000e+00  0.00000000e+00  0.00000000e+00
  0.00000000e+00  0.00000000e+00 -2.25816487e-07 -4.24242650e-08
  0.00000000e+00  0.00000000e+00  0.00000000e+00  2.50930678e-06]","[[-3.78999480e-05  2.39636955e-03]
 [-4.51645700e-05 -9.98783284e-04]]",[],0.0,0.0
1787210985.4326396,1.9244253499406143,1.2734537530586365,2.274953665444418,"[ 2.76569458e-06 -1.79795669e-08  0.00000000e+00  0.00000000e+00
  0.00000000e+00 -2.25816487e-07 -1.79795669e-08  2.18121025e-06
  0.00000000e+00  0.00000000e+00  0.00000000e+00 -4.24242650e-08
  0.00000000e+00  0.00000000e+00  0.00000000e+00  0.00000000e+00
  0.00000000e+00  0.00000000e+00  0.00000000e+00  0.00000000e+00
  0.00000000e+00  0.00000000e+00  0.00000000e+00  0.00000000e+00
  0.00000000e+00  0.00000000e+00  0.00000000e+00  0.00000000e+00
  0.00000000e+00  0.00000000e+00 -2.25816487e-07 -4.24242650e-08
  0.00000000e+00  0.00000000e+00  0.00000000e+00  2.50930678e-06]","[[-3.78999480e-05  2.39636955e-03]
 [-4.51645700e-05 -9.98783284e-04]]",[],0.0,0.0
1787210985.4817986,1.9244253499406143,1.2734537530586365,2.274953665444418,"[ 2.76569458e-06 -1.79795669e-08  0.00000000e+00  0.00000000e+00
  0.00000000e+00 -2.25816487e-07 -1.79795669e-08  2.18121025e-06
  0.00000000e+00  0.00000000e+00  0.00000000e+00 -4.24242650e-08
  0.00000000e+00  0.00000000e+00  0.00000000e+00  0.00000000e+00
  0.00000000e+00  0.00000000e+00  0.00000000e+00  0.00000000e+00
  0.00000000e+00  0.00000000e+00  0.00000000e+00  0.00000000e+00
  0.00000000e+00  0.00000000e+00  0.00000000e+00  0.00000000e+00
  0.00000000e+00  0.00000000e+00 -2.25816487e-07 -4.24242650e-08
  0.00000000e+00  0.00000000e+00  0.00000000e+00  2.50930678e-06]","[[-3.78999480e-05  2.39636955e-03]
 [-4.51645700e-05 -9.98783284e-04]]",[],0.0,0.0
1787210985.5337656,1.9244253499406143,1.2734537530586365,2.274953665444418,"[ 2.76569458e-06 -1.79795669e-08  0.00000000e+00  0.00000000e+00
  0.00000000e+00 -2.25816487e-07 -1.79795669e-08  2.18121025e-06
  0.00000000e+00  0.00000000e+00  0.00000000e+00 -4.24242650e-08
  0.00000000e+00  0.00000000e+00  0.00000000e+00  0.00000000e+00
  0.00000000e+00  0.00000000e+00  0.00000000e+00  0.00000000e+00
  0.00000000e+00  0.00000000e+00  0.00000000e+00  0.00000000e+00
  0.00000000e+00  0.00000000e+00  0.00000000e+00  0.00000000e+00
  0.00000000e+00  0.00000000e+00 -2.25816487e-07 -4.24242650e-08
  0.00000000e+00  0.00000000e+00  0.00000000e+00  2.50930678e-06]","[[-3.78999480e-05  2.39636955e-03]
 [-4.51645700e-05 -9.98783284e-04]]",[],0.0,0.0
1787210985.5830083,1.9244253499406143,1.2734537530586365,2.274953665444418,"[ 2.76569458e-06 -1.79795669e-08  0.00000000e+00  0.00000000e+00
  0.00000000e+00 -2.25816487e-07 -1.79795669e-08  2.18121025e-06
  0.00000000e+00  0.00000000e+00  0.00000000e+00 -4.24242650e-08
  0.00000000e+00  0.00000000e+00  0.00000000e+00  0.00000000e+00
  0.00000000e+00  0.00000000e+00  0.00000000e+00  0.00000000e+00
  0.00000000e+00  0.00000000e+00  0.00000000e+00  0.00000000e+00
  0.00000000e+00  0.00000000e+00  0.00000000e+00  0.00000000e+00
  0.00000000e+00  0.00000000e+00 -2.25816487e-07 -4.24242650e-08
  0.00000000e+00  0.00000000e+00  0.00000000e+00  2.50930678e-06]","[[-3.78999480e-05  2.39636955e-03]
 [-4.51645700e-05 -9.98783284e-04]]",[],0.0,0.0
1787210985.6323662,1.9262234527279045,1.2693367287025685,2.281023732562736,"[ 2.68854010e-06 -4.92558372e-08  0.00000000e+00  0.00000000e+00
  0.00000000e+00 -2.28210079e-07 -4.92558372e-08  2.13789166e-06
  0.00000000e+00  0.00000000e+00  0.00000000e+00 -4.66814843e-08
  0.00000000e+00  0.00000000e+00  0.00000000e+00  0.00000000e+00
  0.00000000e+00  0.00000000e+00  0.00000000e+00  0.00000000e+00
  0.00000000e+00  0.00000000e+00  0.00000000e+00  0.00000000e+00
  0.00000000e+00  0.00000000e+00  0.00000000e+00  0.00000000e+00
  0.00000000e+00  0.00000000e+00 -2.28210079e-07 -4.66814843e-08
  0.00000000e+00  0.00000000e+00  0.00000000e+00  2.91526989e-06]","[[-3.60828250e-05  2.35935838e-03]
 [-4.38827996e-05 -9.89756584e-04]]",[],0.0,0.0
1787210985.6867886,1.9262234527279045,1.2693367287025685,2.281023732562736,"[ 2.68854010e-06 -4.92558372e-08  0.00000000e+00  0.00000000e+00
  0.00000000e+00 -2.28210079e-07 -4.92558372e-08  2.13789166e-06
  0.00000000e+00  0.00000000e+00  0.00000000e+00 -4.66814843e-08
  0.00000000e+00  0.00000000e+00  0.00000000e+00  0.00000000e+00
  0.00000000e+00  0.00000000e+00  0.00000000e+00  0.00000000e+00
  0.00000000e+00  0.00000000e+00  0.00000000e+00  0.00000000e+00
  0.00000000e+00  0.00000000e+00  0.00000000e+00  0.00000000e+00
  0.00000000e+00  0.00000000e+00 -2.28210079e-07 -4.66814843e-08
  0.00000000e+00  0.00000000e+00  0.00000000e+00  2.91526989e-06]","[[-3.60828250e-05  2.35935838e-03]
 [-4.38827996e-05 -9.89756584e-04]]",[],0.0,0.0
1787210985.7369833,1.9262234527279045,1.2693367287025685,2.281023732562736,"[ 2.68854010e-06 -4.92558372e-08  0.00000000e+00  0.00000000e+00
  0.00000000e+00 -2.28210079e-07 -4.92558372e-08  2.13789166e-06
  0.00000000e+00  0.00000000e+00  0.00000000e+00 -4.66814843e-08
  0.00000000e+00  0.00000000e+00  0.00000000e+00  0.00000000e+00
  0.00000000e+00  0.00000000e+00  0.00000000e+00  0.00000000e+00
  0.00000000e+00  0.00000000e+00  0.00000000e+00  0.00000000e+00
  0.00000000e+00  0.00000000e+00  0.00000000e+00  0.00000000e+00
  0.00000000e+00  0.00000000e+00 -2.28210079e-07 -4.66814843e-08
  0.00000000e+00  0.00000000e+00  0.00000000e+00  2.91526989e-06]","[[-3.60828250e-05  2.35935838e-03]
 [-4.38827996e-05 -9.89756584e-04]]",[],0.0,0.0
1787210985.7839146,1.9262234527279045,1.2693367287025685,2.281023732562736,"[ 2.68854010e-06 -4.92558372e-08  0.00000000e+00  0.00000000e+00
  0.00000000e+00 -2.28210079e-07 -4.92558372e-08  2.13789166e-06
  0.00000000e+00  0.00000000e+00  0.00000000e+00 -4.66814843e-08
  0.00000000e+00  0.00000000e+00  0.00000000e+00  0.00000000e+00
  0.00000000e+00  0.00000000e+00  0.00000000e+00  0.00000000e+00
  0.00000000e+00  0.00000000e+00  0.00000000e+00  0.00000000e+00
  0.00000000e+00  0.00000000e+00  0.00000000e+00  0.00000000e+00
  0.00000000e+00  0.00000000e+00 -2.28210079e-07 -4.66814843e-08
  0.00000000e+00  0.00000000e+00  0.00000000e+00  2.91526989e-06]","[[-3.60828250e-05  2.35935838e-03]
 [-4.38827996e-05 -9.89756584e-04]]",[],0.0,0.0
1787210985.8308756,1.9262234527279045,1.2693367287025685,2.281023732562736,"[ 2.68854010e-06 -4.92558372e-08  0.00000000e+00  0.00000000e+00
  0.00000000e+00 -2.28210079e-07 -4.92558372e-08  2.13789166e-06
  0.00000000e+00  0.00000000e+00  0.00000000e+00 -4.66814843e-08
  0.00000000e+00  0.00000000e+00  0.00000000e+00  0.00000000e+00
  0.00000000e+00  0.00000000e+00  0.00000000e+00  0.00000000e+00
  0.00000000e+00  0.00000000e+00  0.00000000e+00  0.00000000e+00
  0.00000000e+00  0.00000000e+00  0.00000000e+00  0.00000000e+00
  0.00000000e+00  0.00000000e+00 -2.28210079e-07 -4.66814843e-08
  0.00000000e+00  0.00000000e+00  0.00000000e+00  2.91526989e-06]","[[-3.60828250e-05  2.35935838e-03]
 [-4.38827996e-05 -9.89756584e-04]]",[],0.0,0.0
1787210985.8811817,1.9262234527279045,1.2693367287025685,2.281023732562736,"[ 2.68854010e-06 -4.92558372e-08  0.00000000e+00  0.00000000e+00
  0.00000000e+00 -2.28210079e-07 -4.92558372e-08  2.13789166e-06
  0.00000000e+00  0.00000000e+00  0.00000000e+00 -4.66814843e-08
  0.00000000e+00  0.00000000e+00  0.00000000e+00  0.00000000e+00
  0.00000000e+00  0.00000000e+00  0.00000000e+00  0.00000000e+00
  0.00000000e+00  0.00000000e+00  0.00000000e+00  0.00000000e+00
  0.00000000e+00  0.00000000e+00  0.00000000e+00  0.00000000e+00
  0.00000000e+00  0.00000000e+00 -2.28210079e-07 -4.66814843e-08
  0.00000000e+00  0.00000000e+00  0.00000000e+00  2.91526989e-06]","[[-3.60828250e-05  2.35935838e-03]
 [-4.38827996e-05 -9.89756584e-04]]",[],0.0,0.0
1787210985.9353118,1.9262234527279045,1.2693367287025685,2.281023732562736,"[ 2.68854010e-06 -4.92558372e-08  0.00000000e+00  0.00000000e+00
  0.00000000e+00 -2.28210079e-07 -4.92558372e-08  2.13789166e-06
  0.00000000e+00  0.00000000e+00  0.00000000e+00 -4.66814843e-08
  0.00000000e+00  0.00000000e+00  0.00000000e+00  0.00000000e+00
  0.00000000e+00  0.00000000e+00  0.00000000e+00  0.00000000e+00
  0.00000000e+00  0.00000000e+00  0.00000000e+00  0.00000000e+00
  0.00000000e+00  0.00000000e+00  0.00000000e+00  0.00000000e+00
  0.00000000e+00  0.00000000e+00 -2.28210079e-07 -4.66814843e-08
  0.00000000e+00  0.00000000e+00  0.00000000e+00  2.91526989e-06]","[[-3.60828250e-05  2.35935838e-03]
 [-4.38827996e-05 -9.89756584e-04]]",[],0.0,0.0
1787210985.9808135,1.9262234527279045,1.2693367287025685,2.281023732562736,"[ 2.68854010e-06 -4.92558372e-08  0.00000000e+00  0.00000000e+00
  0.00000000e+00 -2.28210079e-07 -4.92558372e-08  2.13789166e-06
  0.00000000e+00  0.00000000e+00  0.00000000e+00 -4.66814843e-08
  0.00000000e+00  0.00000000e+00  0.00000000e+00  0.00000000e+00
  0.00000000e+00  0.00000000e+00  0.00000000e+00  0.00000000e+00
  0.00000000e+00  0.00000000e+00  0.00000000e+00  0.00000000e+00
  0.00000000e+00  0.00000000e+00  0.00000000e+00  0.00000000e+00
  0.00000000e+00  0.00000000e+00 -2.28210079e-07 -4.66814843e-08
  0.00000000e+00  0.00000000e+00  0.00000000e+00  2.91526989e-06]","[[-3.60828250e-05  2.35935838e-03]
 [-4.38827996e-05 -9.89756584e-04]]",[],0.0,0.0
1787210986.0313969,1.9262234527279045,1.2693367287025685,2.281023732562736,"[ 2.68854010e-06 -4.92558372e-08  0.00000000e+00  0.00000000e+00
  0.00000000e+00 -2.28210079e-07 -4.92558372e-08  2.13789166e-06
  0.00000000e+00  0.00000000e+00  0.00000000e+00 -4.66814843e-08
  0.00000000e+00  0.00000000e+00  0.00000000e+00  0.00000000e+00
  0.00000000e+00  0.00000000e+00  0.00000000e+00  0.00000000e+00
  0.00000000e+00  0.00000000e+00  0.00000000e+00  0.00000000e+00
  0.00000000e+00  0.00000000e+00  0.00000000e+00  0.00000000e+00
  0.00000000e+00  0.00000000e+00 -2.28210079e-07 -4.66814843e-08
  0.00000000e+00  0.00000000e+00  0.00000000e+00  2.91526989e-06]","[[-3.60828250e-05  2.35935838e-03]
 [-4.38827996e-05 -9.89756584e-04]]",[],0.0,0.0
1787210986.102628,1.9262234527279045,1.2693367287025685,2.281023732562736,"[ 2.68854010e-06 -4.92558372e-08  0.00000000e+00  0.00000000e+00
  0.00000000e+00 -2.28210079e-07 -4.92558372e-08  2.13789166e-06
  0.00000000e+00  0.00000000e+00  0.00000000e+00 -4.66814843e-08
  0.00000000e+00  0.00000000e+00  0.00000000e+00  0.00000000e+00
  0.00000000e+00  0.00000000e+00  0.00000000e+00  0.00000000e+00
  0.00000000e+00  0.00000000e+00  0.00000000e+00  0.00000000e+00
  0.00000000e+00  0.00000000e+00  0.00000000e+00  0.00000000e+00
  0.00000000e+00  0.00000000e+00 -2.28210079e-07 -4.66814843e-08
  0.00000000e+00  0.00000000e+00  0.00000000e+00  2.91526989e-06]","[[-3.60828250e-05  2.35935838e-03]
 [-4.38827996e-05 -9.89756584e-04]]",[],0.0,0.0
1787210986.130764,1.9270178078374365,1.2651784189321178,2.286255072552305,"[ 2.61633163e-06 -7.35982708e-08  0.00000000e+00  0.00000000e+00
  0.00000000e+00 -2.04220547e-07 -7.35982708e-08  2.10016806e-06
  0.00000000e+00  0.00000000e+00  0.00000000e+00 -2.75027792e-08
  0.00000000e+00  0.00000000e+00  0.00000000e+00  0.00000000e+00
  0.00000000e+00  0.00000000e+00  0.00000000e+00  0.00000000e+00
  0.00000000e+00  0.00000000e+00  0.00000000e+00  0.00000000e+00
  0.00000000e+00  0.00000000e+00  0.00000000e+00  0.00000000e+00
  0.00000000e+00  0.00000000e+00 -2.04220547e-07 -2.75027792e-08
  0.00000000e+00  0.00000000e+00  0.00000000e+00  2.94544314e-06]","[[-3.44681429e-05  2.27872385e-03]
 [-4.28211323e-05 -1.01666755e-03]]",[],0.0,0.0
1787210986.1840434,1.9270178078374365,1.2651784189321178,2.286255072552305,"[ 2.61633163e-06 -7.35982708e-08  0.00000000e+00  0.00000000e+00
  0.00000000e+00 -2.04220547e-07 -7.35982708e-08  2.10016806e-06
  0.00000000e+00  0.00000000e+00  0.00000000e+00 -2.75027792e-08
  0.00000000e+00  0.00000000e+00  0.00000000e+00  0.00000000e+00
  0.00000000e+00  0.00000000e+00  0.00000000e+00  0.00000000e+00
  0.00000000e+00  0.00000000e+00  0.00000000e+00  0.00000000e+00
  0.00000000e+00  0.00000000e+00  0.00000000e+00  0.00000000e+00
  0.00000000e+00  0.00000000e+00 -2.04220547e-07 -2.75027792e-08
  0.00000000e+00  0.00000000e+00  0.00000000e+00  2.94544314e-06]","[[-3.44681429e-05  2.27872385e-03]
 [-4.28211323e-05 -1.01666755e-03]]",[],0.0,0.0
1787210986.230675,1.9270178078374365,1.2651784189321178,2.286255072552305,"[ 2.61633163e-06 -7.35982708e-08  0.00000000e+00  0.00000000e+00
  0.00000000e+00 -2.04220547e-07 -7.35982708e-08  2.10016806e-06
  0.00000000e+00  0.00000000e+00  0.00000000e+00 -2.75027792e-08
  0.00000000e+00  0.00000000e+00  0.00000000e+00  0.00000000e+00
  0.00000000e+00  0.00000000e+00  0.00000000e+00  0.00000000e+00
  0.00000000e+00  0.00000000e+00  0.00000000e+00  0.00000000e+00
  0.00000000e+00  0.00000000e+00  0.00000000e+00  0.00000000e+00
  0.00000000e+00  0.00000000e+00 -2.04220547e-07 -2.75027792e-08
  0.00000000e+00  0.00000000e+00  0.00000000e+00  2.94544314e-06]","[[-3.44681429e-05  2.27872385e-03]
 [-4.28211323e-05 -1.01666755e-03]]",[],0.0,0.0
1787210986.309096,1.9270178078374365,1.2651784189321178,2.286255072552305,"[ 2.61633163e-06 -7.35982708e-08  0.00000000e+00  0.00000000e+00
  0.00000000e+00 -2.04220547e-07 -7.35982708e-08  2.10016806e-06
  0.00000000e+00  0.00000000e+00  0.00000000e+00 -2.75027792e-08
  0.00000000e+00  0.00000000e+00  0.00000000e+00  0.00000000e+00
  0.00000000e+00  0.00000000e+00  0.00000000e+00  0.00000000e+00
  0.00000000e+00  0.00000000e+00  0.00000000e+00  0.00000000e+00
  0.00000000e+00  0.00000000e+00  0.00000000e+00  0.00000000e+00
  0.00000000e+00  0.00000000e+00 -2.04220547e-07 -2.75027792e-08
  0.00000000e+00  0.00000000e+00  0.00000000e+00  2.94544314e-06]","[[-3.44681429e-05  2.27872385e-03]
 [-4.28211323e-05 -1.01666755e-03]]",[],0.0,0.0
1787210986.3324134,1.9270178078374365,1.2651784189321178,2.286255072552305,"[ 2.61633163e-06 -7.35982708e-08  0.00000000e+00  0.00000000e+00
  0.00000000e+00 -2.04220547e-07 -7.35982708e-08  2.10016806e-06
  0.00000000e+00  0.00000000e+00  0.00000000e+00 -2.75027792e-08
  0.00000000e+00  0.00000000e+00  0.00000000e+00  0.00000000e+00
  0.00000000e+00  0.00000000e+00  0.00000000e+00  0.00000000e+00
  0.00000000e+00  0.00000000e+00  0.00000000e+00  0.00000000e+00
  0.00000000e+00  0.00000000e+00  0.00000000e+00  0.00000000e+00
  0.00000000e+00  0.00000000e+00 -2.04220547e-07 -2.75027792e-08
  0.00000000e+00  0.00000000e+00  0.00000000e+00  2.94544314e-06]","[[-3.44681429e-05  2.27872385e-03]
 [-4.28211323e-05 -1.01666755e-03]]",[],0.0,0.0
1787210986.6104631,1.9270178078374365,1.2651784189321178,2.286255072552305,"[ 2.61633163e-06 -7.35982708e-08  0.00000000e+00  0.00000000e+00
  0.00000000e+00 -2.04220547e-07 -7.35982708e-08  2.10016806e-06
  0.00000000e+00  0.00000000e+00  0.00000000e+00 -2.75027792e-08
  0.00000000e+00  0.00000000e+00  0.00000000e+00  0.00000000e+00
  0.00000000e+00  0.00000000e+00  0.00000000e+00  0.00000000e+00
  0.00000000e+00  0.00000000e+00  0.00000000e+00  0.00000000e+00
  0.00000000e+00  0.00000000e+00  0.00000000e+00  0.00000000e+00
  0.00000000e+00  0.00000000e+00 -2.04220547e-07 -2.75027792e-08
  0.00000000e+00  0.00000000e+00  0.00000000e+00  2.94544314e-06]","[[-3.44681429e-05  2.27872385e-03]
 [-4.28211323e-05 -1.01666755e-03]]",[],0.0,0.0
1787210986.63258,1.928607244205419,1.2616684656216264,2.2934375734389025,"[ 2.54408814e-06 -9.51872680e-08  0.00000000e+00  0.00000000e+00
  0.00000000e+00 -2.03212342e-07 -9.51872680e-08  2.06228396e-06
  0.00000000e+00  0.00000000e+00  0.00000000e+00 -1.90795949e-08
  0.00000000e+00  0.00000000e+00  0.00000000e+00  0.00000000e+00
  0.00000000e+00  0.00000000e+00  0.00000000e+00  0.00000000e+00
  0.00000000e+00  0.00000000e+00  0.00000000e+00  0.00000000e+00
  0.00000000e+00  0.00000000e+00  0.00000000e+00  0.00000000e+00
  0.00000000e+00  0.00000000e+00 -2.03212342e-07 -1.90795949e-08
  0.00000000e+00  0.00000000e+00  0.00000000e+00  2.85936604e-06]","[[-3.29387500e-05  2.23355549e-03]
 [-4.17804943e-05 -1.02417445e-03]]",[],0.0,0.0
1787210986.6815448,1.928607244205419,1.2616684656216264,2.2934375734389025,"[ 2.54408814e-06 -9.51872680e-08  0.00000000e+00  0.00000000e+00
  0.00000000e+00 -2.03212342e-07 -9.51872680e-08  2.06228396e-06
  0.00000000e+00  0.00000000e+00  0.00000000e+00 -1.90795949e-08
  0.00000000e+00  0.00000000e+00  0.00000000e+00  0.00000000e+00
  0.00000000e+00  0.00000000e+00  0.00000000e+00  0.00000000e+00
  0.00000000e+00  0.00000000e+00  0.00000000e+00  0.00000000e+00
  0.00000000e+00  0.00000000e+00  0.00000000e+00  0.00000000e+00
  0.00000000e+00  0.00000000e+00 -2.03212342e-07 -1.90795949e-08
  0.00000000e+00  0.00000000e+00  0.00000000e+00  2.85936604e-06]","[[-3.29387500e-05  2.23355549e-03]
 [-4.17804943e-05 -1.02417445e-03]]",[],0.0,0.0
1787210986.736878,1.928607244205419,1.2616684656216264,2.2934375734389025,"[ 2.54408814e-06 -9.51872680e-08  0.00000000e+00  0.00000000e+00
  0.00000000e+00 -2.03212342e-07 -9.51872680e-08  2.06228396e-06
  0.00000000e+00  0.00000000e+00  0.00000000e+00 -1.90795949e-08
  0.00000000e+00  0.00000000e+00  0.00000000e+00  0.00000000e+00
  0.00000000e+00  0.00000000e+00  0.00000000e+00  0.00000000e+00
  0.00000000e+00  0.00000000e+00  0.00000000e+00  0.00000000e+00
  0.00000000e+00  0.00000000e+00  0.00000000e+00  0.00000000e+00
  0.00000000e+00  0.00000000e+00 -2.03212342e-07 -1.90795949e-08
  0.00000000e+00  0.00000000e+00  0.00000000e+00  2.85936604e-06]","[[-3.29387500e-05  2.23355549e-03]
 [-4.17804943e-05 -1.02417445e-03]]",[],0.0,0.0
1787210986.7811491,1.928607244205419,1.2616684656216264,2.2934375734389025,"[ 2.54408814e-06 -9.51872680e-08  0.00000000e+00  0.00000000e+00
  0.00000000e+00 -2.03212342e-07 -9.51872680e-08  2.06228396e-06
  0.00000000e+00  0.00000000e+00  0.00000000e+00 -1.90795949e-08
  0.00000000e+00  0.00000000e+00  0.00000000e+00  0.00000000e+00
  0.00000000e+00  0.00000000e+00  0.00000000e+00  0.00000000e+00
  0.00000000e+00  0.00000000e+00  0.00000000e+00  0.00000000e+00
  0.00000000e+00  0.00000000e+00  0.00000000e+00  0.00000000e+00
  0.00000000e+00  0.00000000e+00 -2.03212342e-07 -1.90795949e-08
  0.00000000e+00  0.00000000e+00  0.00000000e+00  2.85936604e-06]","[[-3.29387500e-05  2.23355549e-03]
 [-4.17804943e-05 -1.02417445e-03]]",[],0.0,0.0
1787210986.831847,1.928607244205419,1.2616684656216264,2.2934375734389025,"[ 2.54408814e-06 -9.51872680e-08  0.00000000e+00  0.00000000e+00
  0.00000000e+00 -2.03212342e-07 -9.51872680e-08  2.06228396e-06
  0.00000000e+00  0.00000000e+00  0.00000000e+00 -1.90795949e-08
  0.00000000e+00  0.00000000e+00  0.00000000e+00  0.00000000e+00
  0.00000000e+00  0.00000000e+00  0.00000000e+00  0.00000000e+00
  0.00000000e+00  0.00000000e+00  0.00000000e+00  0.00000000e+00
  0.00000000e+00  0.00000000e+00  0.00000000e+00  0.00000000e+00
  0.00000000e+00  0.00000000e+00 -2.03212342e-07 -1.90795949e-08
  0.00000000e+00  0.00000000e+00  0.00000000e+00  2.85936604e-06]","[[-3.29387500e-05  2.23355549e-03]
 [-4.17804943e-05 -1.02417445e-03]]",[],0.0,0.0
1787210987.103214,1.928607244205419,1.2616684656216264,2.2934375734389025,"[ 2.54408814e-06 -9.51872680e-08  0.00000000e+00  0.00000000e+00
  0.00000000e+00 -2.03212342e-07 -9.51872680e-08  2.06228396e-06
  0.00000000e+00  0.00000000e+00  0.00000000e+00 -1.90795949e-08
  0.00000000e+00  0.00000000e+00  0.00000000e+00  0.00000000e+00
  0.00000000e+00  0.00000000e+00  0.00000000e+00  0.00000000e+00
  0.00000000e+00  0.00000000e+00  0.00000000e+00  0.00000000e+00
  0.00000000e+00  0.00000000e+00  0.00000000e+00  0.00000000e+00
  0.00000000e+00  0.00000000e+00 -2.03212342e-07 -1.90795949e-08
  0.00000000e+00  0.00000000e+00  0.00000000e+00  2.85936604e-06]","[[-3.29387500e-05  2.23355549e-03]
 [-4.17804943e-05 -1.02417445e-03]]",[],0.0,0.0
1787210987.477402,1.9298304493544682,1.2581174306603182,2.293434026979007,"[ 2.48158415e-06 -1.14783317e-07  0.00000000e+00  0.00000000e+00
  0.00000000e+00 -1.90111822e-07 -1.14783317e-07  2.02366315e-06
  0.00000000e+00  0.00000000e+00  0.00000000e+00 -2.41080490e-08
  0.00000000e+00  0.00000000e+00  0.00000000e+00  0.00000000e+00
  0.00000000e+00  0.00000000e+00  0.00000000e+00  0.00000000e+00
  0.00000000e+00  0.00000000e+00  0.00000000e+00  0.00000000e+00
  0.00000000e+00  0.00000000e+00  0.00000000e+00  0.00000000e+00
  0.00000000e+00  0.00000000e+00 -1.90111822e-07 -2.41080490e-08
  0.00000000e+00  0.00000000e+00  0.00000000e+00  2.85010410e-06]","[[-3.15796732e-05  2.17562713e-03]
 [-4.07561891e-05 -1.00807952e-03]]",[],0.0,0.0
1787210987.4805534,1.9302030841162725,1.2553576538557525,2.2935425647331327,"[ 2.40652220e-06 -1.13226870e-07  0.00000000e+00  0.00000000e+00
  0.00000000e+00 -1.74288889e-07 -1.13226870e-07  1.96568360e-06
  0.00000000e+00  0.00000000e+00  0.00000000e+00 -2.65126682e-08
  0.00000000e+00  0.00000000e+00  0.00000000e+00  0.00000000e+00
  0.00000000e+00  0.00000000e+00  0.00000000e+00  0.00000000e+00
  0.00000000e+00  0.00000000e+00  0.00000000e+00  0.00000000e+00
  0.00000000e+00  0.00000000e+00  0.00000000e+00  0.00000000e+00
  0.00000000e+00  0.00000000e+00 -1.74288889e-07 -2.65126682e-08
  0.00000000e+00  0.00000000e+00  0.00000000e+00  2.55768219e-06]","[[-3.05034388e-05  2.09354322e-03]
 [-3.96103980e-05 -9.71958944e-04]]",[],0.0,0.0
1787210987.8730357,1.9302030841162725,1.2553576538557525,2.2935425647331327,"[ 2.40652220e-06 -1.13226870e-07  0.00000000e+00  0.00000000e+00
  0.00000000e+00 -1.74288889e-07 -1.13226870e-07  1.96568360e-06
  0.00000000e+00  0.00000000e+00  0.00000000e+00 -2.65126682e-08
  0.00000000e+00  0.00000000e+00  0.00000000e+00  0.00000000e+00
  0.00000000e+00  0.00000000e+00  0.00000000e+00  0.00000000e+00
  0.00000000e+00  0.00000000e+00  0.00000000e+00  0.00000000e+00
  0.00000000e+00  0.00000000e+00  0.00000000e+00  0.00000000e+00
  0.00000000e+00  0.00000000e+00 -1.74288889e-07 -2.65126682e-08
  0.00000000e+00  0.00000000e+00  0.00000000e+00  2.55768219e-06]","[[-3.05034388e-05  2.09354322e-03]
 [-3.96103980e-05 -9.71958944e-04]]",[],0.0,0.0
1787210987.8827298,1.9302030841162725,1.2553576538557525,2.2935425647331327,"[ 2.40652220e-06 -1.13226870e-07  0.00000000e+00  0.00000000e+00
  0.00000000e+00 -1.74288889e-07 -1.13226870e-07  1.96568360e-06
  0.00000000e+00  0.00000000e+00  0.00000000e+00 -2.65126682e-08
  0.00000000e+00  0.00000000e+00  0.00000000e+00  0.00000000e+00
  0.00000000e+00  0.00000000e+00  0.00000000e+00  0.00000000e+00
  0.00000000e+00  0.00000000e+00  0.00000000e+00  0.00000000e+00
  0.00000000e+00  0.00000000e+00  0.00000000e+00  0.00000000e+00
  0.00000000e+00  0.00000000e+00 -1.74288889e-07 -2.65126682e-08
  0.00000000e+00  0.00000000e+00  0.00000000e+00  2.55768219e-06]","[[-3.05034388e-05  2.09354322e-03]
 [-3.96103980e-05 -9.71958944e-04]]",[],0.0,0.0
1787210987.93078,1.9310982128368654,1.252017284534515,2.2910764994146495,"[ 2.34102500e-06 -1.18425137e-07  0.00000000e+00  0.00000000e+00
  0.00000000e+00 -1.70801712e-07 -1.18425137e-07  1.91880770e-06
  0.00000000e+00  0.00000000e+00  0.00000000e+00 -1.78908357e-08
  0.00000000e+00  0.00000000e+00  0.00000000e+00  0.00000000e+00
  0.00000000e+00  0.00000000e+00  0.00000000e+00  0.00000000e+00
  0.00000000e+00  0.00000000e+00  0.00000000e+00  0.00000000e+00
  0.00000000e+00  0.00000000e+00  0.00000000e+00  0.00000000e+00
  0.00000000e+00  0.00000000e+00 -1.70801712e-07 -1.78908357e-08
  0.00000000e+00  0.00000000e+00  0.00000000e+00  2.64773671e-06]","[[-2.94514973e-05  2.04160378e-03]
 [-3.85852975e-05 -9.65360721e-04]]",[],0.0,0.0
1787210987.9807134,1.9310982128368654,1.252017284534515,2.2910764994146495,"[ 2.34102500e-06 -1.18425137e-07  0.00000000e+00  0.00000000e+00
  0.00000000e+00 -1.70801712e-07 -1.18425137e-07  1.91880770e-06
  0.00000000e+00  0.00000000e+00  0.00000000e+00 -1.78908357e-08
  0.00000000e+00  0.00000000e+00  0.00000000e+00  0.00000000e+00
  0.00000000e+00  0.00000000e+00  0.00000000e+00  0.00000000e+00
  0.00000000e+00  0.00000000e+00  0.00000000e+00  0.00000000e+00
  0.00000000e+00  0.00000000e+00  0.00000000e+00  0.00000000e+00
  0.00000000e+00  0.00000000e+00 -1.70801712e-07 -1.78908357e-08
  0.00000000e+00  0.00000000e+00  0.00000000e+00  2.64773671e-06]","[[-2.94514973e-05  2.04160378e-03]
 [-3.85852975e-05 -9.65360721e-04]]",[],0.0,0.0
1787210988.031353,1.9310982128368654,1.252017284534515,2.2910764994146495,"[ 2.34102500e-06 -1.18425137e-07  0.00000000e+00  0.00000000e+00
  0.00000000e+00 -1.70801712e-07 -1.18425137e-07  1.91880770e-06
  0.00000000e+00  0.00000000e+00  0.00000000e+00 -1.78908357e-08
  0.00000000e+00  0.00000000e+00  0.00000000e+00  0.00000000e+00
  0.00000000e+00  0.00000000e+00  0.00000000e+00  0.00000000e+00
  0.00000000e+00  0.00000000e+00  0.00000000e+00  0.00000000e+00
  0.00000000e+00  0.00000000e+00  0.00000000e+00  0.00000000e+00
  0.00000000e+00  0.00000000e+00 -1.70801712e-07 -1.78908357e-08
  0.00000000e+00  0.00000000e+00  0.00000000e+00  2.64773671e-06]","[[-2.94514973e-05  2.04160378e-03]
 [-3.85852975e-05 -9.65360721e-04]]",[],0.0,0.0
1787210988.0942502,1.9310982128368654,1.252017284534515,2.2910764994146495,"[ 2.34102500e-06 -1.18425137e-07  0.00000000e+00  0.00000000e+00
  0.00000000e+00 -1.70801712e-07 -1.18425137e-07  1.91880770e-06
  0.00000000e+00  0.00000000e+00  0.00000000e+00 -1.78908357e-08
  0.00000000e+00  0.00000000e+00  0.00000000e+00  0.00000000e+00
  0.00000000e+00  0.00000000e+00  0.00000000e+00  0.00000000e+00
  0.00000000e+00  0.00000000e+00  0.00000000e+00  0.00000000e+00
  0.00000000e+00  0.00000000e+00  0.00000000e+00  0.00000000e+00
  0.00000000e+00  0.00000000e+00 -1.70801712e-07 -1.78908357e-08
  0.00000000e+00  0.00000000e+00  0.00000000e+00  2.64773671e-06]","[[-2.94514973e-05  2.04160378e-03]
 [-3.85852975e-05 -9.65360721e-04]]",[],0.0,0.0
1787210988.130891,1.9310982128368654,1.252017284534515,2.2910764994146495,"[ 2.34102500e-06 -1.18425137e-07  0.00000000e+00  0.00000000e+00
  0.00000000e+00 -1.70801712e-07 -1.18425137e-07  1.91880770e-06
  0.00000000e+00  0.00000000e+00  0.00000000e+00 -1.78908357e-08
  0.00000000e+00  0.00000000e+00  0.00000000e+00  0.00000000e+00
  0.00000000e+00  0.00000000e+00  0.00000000e+00  0.00000000e+00
  0.00000000e+00  0.00000000e+00  0.00000000e+00  0.00000000e+00
  0.00000000e+00  0.00000000e+00  0.00000000e+00  0.00000000e+00
  0.00000000e+00  0.00000000e+00 -1.70801712e-07 -1.78908357e-08
  0.00000000e+00  0.00000000e+00  0.00000000e+00  2.64773671e-06]","[[-2.94514973e-05  2.04160378e-03]
 [-3.85852975e-05 -9.65360721e-04]]",[],0.0,0.0
1787210988.1818836,1.9310982128368654,1.252017284534515,2.2910764994146495,"[ 2.34102500e-06 -1.18425137e-07  0.00000000e+00  0.00000000e+00
  0.00000000e+00 -1.70801712e-07 -1.18425137e-07  1.91880770e-06
  0.00000000e+00  0.00000000e+00  0.00000000e+00 -1.78908357e-08
  0.00000000e+00  0.00000000e+00  0.00000000e+00  0.00000000e+00
  0.00000000e+00  0.00000000e+00  0.00000000e+00  0.00000000e+00
  0.00000000e+00  0.00000000e+00  0.00000000e+00  0.00000000e+00
  0.00000000e+00  0.00000000e+00  0.00000000e+00  0.00000000e+00
  0.00000000e+00  0.00000000e+00 -1.70801712e-07 -1.78908357e-08
  0.00000000e+00  0.00000000e+00  0.00000000e+00  2.64773671e-06]","[[-2.94514973e-05  2.04160378e-03]
 [-3.85852975e-05 -9.65360721e-04]]",[],0.0,0.0
1787210988.2335486,1.9310982128368654,1.252017284534515,2.2910764994146495,"[ 2.34102500e-06 -1.18425137e-07  0.00000000e+00  0.00000000e+00
  0.00000000e+00 -1.70801712e-07 -1.18425137e-07  1.91880770e-06
  0.00000000e+00  0.00000000e+00  0.00000000e+00 -1.78908357e-08
  0.00000000e+00  0.00000000e+00  0.00000000e+00  0.00000000e+00
  0.00000000e+00  0.00000000e+00  0.00000000e+00  0.00000000e+00
  0.00000000e+00  0.00000000e+00  0.00000000e+00  0.00000000e+00
  0.00000000e+00  0.00000000e+00  0.00000000e+00  0.00000000e+00
  0.00000000e+00  0.00000000e+00 -1.70801712e-07 -1.78908357e-08
  0.00000000e+00  0.00000000e+00  0.00000000e+00  2.64773671e-06]","[[-2.94514973e-05  2.04160378e-03]
 [-3.85852975e-05 -9.65360721e-04]]",[],0.0,0.0
1787210988.2818358,1.9310982128368654,1.252017284534515,2.2910764994146495,"[ 2.34102500e-06 -1.18425137e-07  0.00000000e+00  0.00000000e+00
  0.00000000e+00 -1.70801712e-07 -1.18425137e-07  1.91880770e-06
  0.00000000e+00  0.00000000e+00  0.00000000e+00 -1.78908357e-08
  0.00000000e+00  0.00000000e+00  0.00000000e+00  0.00000000e+00
  0.00000000e+00  0.00000000e+00  0.00000000e+00  0.00000000e+00
  0.00000000e+00  0.00000000e+00  0.00000000e+00  0.00000000e+00
  0.00000000e+00  0.00000000e+00  0.00000000e+00  0.00000000e+00
  0.00000000e+00  0.00000000e+00 -1.70801712e-07 -1.78908357e-08
  0.00000000e+00  0.00000000e+00  0.00000000e+00  2.64773671e-06]","[[-2.94514973e-05  2.04160378e-03]
 [-3.85852975e-05 -9.65360721e-04]]",[],0.0,0.0
1787210988.330807,1.9310982128368654,1.252017284534515,2.2910764994146495,"[ 2.34102500e-06 -1.18425137e-07  0.00000000e+00  0.00000000e+00
  0.00000000e+00 -1.70801712e-07 -1.18425137e-07  1.91880770e-06
  0.00000000e+00  0.00000000e+00  0.00000000e+00 -1.78908357e-08
  0.00000000e+00  0.00000000e+00  0.00000000e+00  0.00000000e+00
  0.00000000e+00  0.00000000e+00  0.00000000e+00  0.00000000e+00
  0.00000000e+00  0.00000000e+00  0.00000000e+00  0.00000000e+00
  0.00000000e+00  0.00000000e+00  0.00000000e+00  0.00000000e+00
  0.00000000e+00  0.00000000e+00 -1.70801712e-07 -1.78908357e-08
  0.00000000e+00  0.00000000e+00  0.00000000e+00  2.64773671e-06]","[[-2.94514973e-05  2.04160378e-03]
 [-3.85852975e-05 -9.65360721e-04]]",[],0.0,0.0
1787210988.3808622,1.932064328281119,1.248705642382551,2.2947748144374627,"[ 2.28670051e-06 -1.40383383e-07  0.00000000e+00  0.00000000e+00
  0.00000000e+00 -1.61666169e-07 -1.40383383e-07  1.89154554e-06
  0.00000000e+00  0.00000000e+00  0.00000000e+00 -3.04905854e-08
  0.00000000e+00  0.00000000e+00  0.00000000e+00  0.00000000e+00
  0.00000000e+00  0.00000000e+00  0.00000000e+00  0.00000000e+00
  0.00000000e+00  0.00000000e+00  0.00000000e+00  0.00000000e+00
  0.00000000e+00  0.00000000e+00  0.00000000e+00  0.00000000e+00
  0.00000000e+00  0.00000000e+00 -1.61666169e-07 -3.04905854e-08
  0.00000000e+00  0.00000000e+00  0.00000000e+00  2.84422584e-06]","[[ 3.75806969e-05  1.73638574e-03]
 [-3.96561194e-05  9.34049395e-04]]",[],0.0,0.0
1787210988.433638,1.932064328281119,1.248705642382551,2.2947748144374627,"[ 2.28670051e-06 -1.40383383e-07  0.00000000e+00  0.00000000e+00
  0.00000000e+00 -1.61666169e-07 -1.40383383e-07  1.89154554e-06
  0.00000000e+00  0.00000000e+00  0.00000000e+00 -3.04905854e-08
  0.00000000e+00  0.00000000e+00  0.00000000e+00  0.00000000e+00
  0.00000000e+00  0.00000000e+00  0.00000000e+00  0.00000000e+00
  0.00000000e+00  0.00000000e+00  0.00000000e+00  0.00000000e+00
  0.00000000e+00  0.00000000e+00  0.00000000e+00  0.00000000e+00
  0.00000000e+00  0.00000000e+00 -1.61666169e-07 -3.04905854e-08
  0.00000000e+00  0.00000000e+00  0.00000000e+00  2.84422584e-06]","[[ 3.75806969e-05  1.73638574e-03]
 [-3.96561194e-05  9.34049395e-04]]",[],0.0,0.0
1787210988.4839718,1.932064328281119,1.248705642382551,2.2947748144374627,"[ 2.28670051e-06 -1.40383383e-07  0.00000000e+00  0.00000000e+00
  0.00000000e+00 -1.61666169e-07 -1.40383383e-07  1.89154554e-06
  0.00000000e+00  0.00000000e+00  0.00000000e+00 -3.04905854e-08
  0.00000000e+00  0.00000000e+00  0.00000000e+00  0.00000000e+00
  0.00000000e+00  0.00000000e+00  0.00000000e+00  0.00000000e+00
  0.00000000e+00  0.00000000e+00  0.00000000e+00  0.00000000e+00
  0.00000000e+00  0.00000000e+00  0.00000000e+00  0.00000000e+00
  0.00000000e+00  0.00000000e+00 -1.61666169e-07 -3.04905854e-08
  0.00000000e+00  0.00000000e+00  0.00000000e+00  2.84422584e-06]","[[ 3.75806969e-05  1.73638574e-03]
 [-3.96561194e-05  9.34049395e-04]]",[],0.0,0.0
1787210988.5313663,1.932064328281119,1.248705642382551,2.2947748144374627,"[ 2.28670051e-06 -1.40383383e-07  0.00000000e+00  0.00000000e+00
  0.00000000e+00 -1.61666169e-07 -1.40383383e-07  1.89154554e-06
  0.00000000e+00  0.00000000e+00  0.00000000e+00 -3.04905854e-08
  0.00000000e+00  0.00000000e+00  0.00000000e+00  0.00000000e+00
  0.00000000e+00  0.00000000e+00  0.00000000e+00  0.00000000e+00
  0.00000000e+00  0.00000000e+00  0.00000000e+00  0.00000000e+00
  0.00000000e+00  0.00000000e+00  0.00000000e+00  0.00000000e+00
  0.00000000e+00  0.00000000e+00 -1.61666169e-07 -3.04905854e-08
  0.00000000e+00  0.00000000e+00  0.00000000e+00  2.84422584e-06]","[[ 3.75806969e-05  1.73638574e-03]
 [-3.96561194e-05  9.34049395e-04]]",[],0.0,0.0
1787210988.581776,1.932064328281119,1.248705642382551,2.2947748144374627,"[ 2.28670051e-06 -1.40383383e-07  0.00000000e+00  0.00000000e+00
  0.00000000e+00 -1.61666169e-07 -1.40383383e-07  1.89154554e-06
  0.00000000e+00  0.00000000e+00  0.00000000e+00 -3.04905854e-08
  0.00000000e+00  0.00000000e+00  0.00000000e+00  0.00000000e+00
  0.00000000e+00  0.00000000e+00  0.00000000e+00  0.00000000e+00
  0.00000000e+00  0.00000000e+00  0.00000000e+00  0.00000000e+00
  0.00000000e+00  0.00000000e+00  0.00000000e+00  0.00000000e+00
  0.00000000e+00  0.00000000e+00 -1.61666169e-07 -3.04905854e-08
  0.00000000e+00  0.00000000e+00  0.00000000e+00  2.84422584e-06]","[[ 3.75806969e-05  1.73638574e-03]
 [-3.96561194e-05  9.34049395e-04]]",[],0.0,0.0
1787210988.632857,1.932064328281119,1.248705642382551,2.2947748144374627,"[ 2.28670051e-06 -1.40383383e-07  0.00000000e+00  0.00000000e+00
  0.00000000e+00 -1.61666169e-07 -1.40383383e-07  1.89154554e-06
  0.00000000e+00  0.00000000e+00  0.00000000e+00 -3.04905854e-08
  0.00000000e+00  0.00000000e+00  0.00000000e+00  0.00000000e+00
  0.00000000e+00  0.00000000e+00  0.00000000e+00  0.00000000e+00
  0.00000000e+00  0.00000000e+00  0.00000000e+00  0.00000000e+00
  0.00000000e+00  0.00000000e+00  0.00000000e+00  0.00000000e+00
  0.00000000e+00  0.00000000e+00 -1.61666169e-07 -3.04905854e-08
  0.00000000e+00  0.00000000e+00  0.00000000e+00  2.84422584e-06]","[[ 3.75806969e-05  1.73638574e-03]
 [-3.96561194e-05  9.34049395e-04]]",[],0.0,0.0
1787210988.683665,1.932064328281119,1.248705642382551,2.2947748144374627,"[ 2.28670051e-06 -1.40383383e-07  0.00000000e+00  0.00000000e+00
  0.00000000e+00 -1.61666169e-07 -1.40383383e-07  1.89154554e-06
  0.00000000e+00  0.00000000e+00  0.00000000e+00 -3.04905854e-08
  0.00000000e+00  0.00000000e+00  0.00000000e+00  0.00000000e+00
  0.00000000e+00  0.00000000e+00  0.00000000e+00  0.00000000e+00
  0.00000000e+00  0.00000000e+00  0.00000000e+00  0.00000000e+00
  0.00000000e+00  0.00000000e+00  0.00000000e+00  0.00000000e+00
  0.00000000e+00  0.00000000e+00 -1.61666169e-07 -3.04905854e-08
  0.00000000e+00  0.00000000e+00  0.00000000e+00  2.84422584e-06]","[[ 3.75806969e-05  1.73638574e-03]
 [-3.96561194e-05  9.34049395e-04]]",[],0.0,0.0
1787210988.7310102,1.932064328281119,1.248705642382551,2.2947748144374627,"[ 2.28670051e-06 -1.40383383e-07  0.00000000e+00  0.00000000e+00
  0.00000000e+00 -1.61666169e-07 -1.40383383e-07  1.89154554e-06
  0.00000000e+00  0.00000000e+00  0.00000000e+00 -3.04905854e-08
  0.00000000e+00  0.00000000e+00  0.00000000e+00  0.00000000e+00
  0.00000000e+00  0.00000000e+00  0.00000000e+00  0.00000000e+00
  0.00000000e+00  0.00000000e+00  0.00000000e+00  0.00000000e+00
  0.00000000e+00  0.00000000e+00  0.00000000e+00  0.00000000e+00
  0.00000000e+00  0.00000000e+00 -1.61666169e-07 -3.04905854e-08
  0.00000000e+00  0.00000000e+00  0.00000000e+00  2.84422584e-06]","[[ 3.75806969e-05  1.73638574e-03]
 [-3.96561194e-05  9.34049395e-04]]",[],0.0,0.0
1787210988.7812462,1.932064328281119,1.248705642382551,2.2947748144374627,"[ 2.28670051e-06 -1.40383383e-07  0.00000000e+00  0.00000000e+00
  0.00000000e+00 -1.61666169e-07 -1.40383383e-07  1.89154554e-06
  0.00000000e+00  0.00000000e+00  0.00000000e+00 -3.04905854e-08
  0.00000000e+00  0.00000000e+00  0.00000000e+00  0.00000000e+00
  0.00000000e+00  0.00000000e+00  0.00000000e+00  0.00000000e+00
  0.00000000e+00  0.00000000e+00  0.00000000e+00  0.00000000e+00
  0.00000000e+00  0.00000000e+00  0.00000000e+00  0.00000000e+00
  0.00000000e+00  0.00000000e+00 -1.61666169e-07 -3.04905854e-08
  0.00000000e+00  0.00000000e+00  0.00000000e+00  2.84422584e-06]","[[ 3.75806969e-05  1.73638574e-03]
 [-3.96561194e-05  9.34049395e-04]]",[],0.0,0.0
1787210988.845198,1.932064328281119,1.248705642382551,2.2947748144374627,"[ 2.28670051e-06 -1.40383383e-07  0.00000000e+00  0.00000000e+00
  0.00000000e+00 -1.61666169e-07 -1.40383383e-07  1.89154554e-06
  0.00000000e+00  0.00000000e+00  0.00000000e+00 -3.04905854e-08
  0.00000000e+00  0.00000000e+00  0.00000000e+00  0.00000000e+00
  0.00000000e+00  0.00000000e+00  0.00000000e+00  0.00000000e+00
  0.00000000e+00  0.00000000e+00  0.00000000e+00  0.00000000e+00
  0.00000000e+00  0.00000000e+00  0.00000000e+00  0.00000000e+00
  0.00000000e+00  0.00000000e+00 -1.61666169e-07 -3.04905854e-08
  0.00000000e+00  0.00000000e+00  0.00000000e+00  2.84422584e-06]","[[ 3.75806969e-05  1.73638574e-03]
 [-3.96561194e-05  9.34049395e-04]]",[],0.0,0.0
1787210988.8807673,1.932064328281119,1.248705642382551,2.2947748144374627,"[ 2.28670051e-06 -1.40383383e-07  0.00000000e+00  0.00000000e+00
  0.00000000e+00 -1.61666169e-07 -1.40383383e-07  1.89154554e-06
  0.00000000e+00  0.00000000e+00  0.00000000e+00 -3.04905854e-08
  0.00000000e+00  0.00000000e+00  0.00000000e+00  0.00000000e+00
  0.00000000e+00  0.00000000e+00  0.00000000e+00  0.00000000e+00
  0.00000000e+00  0.00000000e+00  0.00000000e+00  0.00000000e+00
  0.00000000e+00  0.00000000e+00  0.00000000e+00  0.00000000e+00
  0.00000000e+00  0.00000000e+00 -1.61666169e-07 -3.04905854e-08
  0.00000000e+00  0.00000000e+00  0.00000000e+00  2.84422584e-06]","[[ 3.75806969e-05  1.73638574e-03]
 [-3.96561194e-05  9.34049395e-04]]",[],0.0,0.0
1787210988.9351242,1.9334684144422198,1.2450931747784248,2.296586804382259,"[ 2.24766314e-06 -1.66729649e-07  0.00000000e+00  0.00000000e+00
  0.00000000e+00 -1.77994301e-07 -1.66729649e-07  1.87220414e-06
  0.00000000e+00  0.00000000e+00  0.00000000e+00 -1.54658962e-08
  0.00000000e+00  0.00000000e+00  0.00000000e+00  0.00000000e+00
  0.00000000e+00  0.00000000e+00  0.00000000e+00  0.00000000e+00
  0.00000000e+00  0.00000000e+00  0.00000000e+00  0.00000000e+00
  0.00000000e+00  0.00000000e+00  0.00000000e+00  0.00000000e+00
  0.00000000e+00  0.00000000e+00 -1.77994301e-07 -1.54658962e-08
  0.00000000e+00  0.00000000e+00  0.00000000e+00  2.98443320e-06]","[[-2.70317578e-05  2.00691381e-03]
 [-3.70287571e-05 -9.76547452e-04]]",[],0.0,0.0
1787210989.2831178,1.9334684144422198,1.2450931747784248,2.296586804382259,"[ 2.24766314e-06 -1.66729649e-07  0.00000000e+00  0.00000000e+00
  0.00000000e+00 -1.77994301e-07 -1.66729649e-07  1.87220414e-06
  0.00000000e+00  0.00000000e+00  0.00000000e+00 -1.54658962e-08
  0.00000000e+00  0.00000000e+00  0.00000000e+00  0.00000000e+00
  0.00000000e+00  0.00000000e+00  0.00000000e+00  0.00000000e+00
  0.00000000e+00  0.00000000e+00  0.00000000e+00  0.00000000e+00
  0.00000000e+00  0.00000000e+00  0.00000000e+00  0.00000000e+00
  0.00000000e+00  0.00000000e+00 -1.77994301e-07 -1.54658962e-08
  0.00000000e+00  0.00000000e+00  0.00000000e+00  2.98443320e-06]","[[-2.70317578e-05  2.00691381e-03]
 [-3.70287571e-05 -9.76547452e-04]]",[],0.0,0.0
1787210989.642221,1.933519001499429,1.2418349128326573,2.302111545595329,"[ 2.19208291e-06 -1.70979240e-07  0.00000000e+00  0.00000000e+00
  0.00000000e+00 -1.64755804e-07 -1.70979240e-07  1.83471044e-06
  0.00000000e+00  0.00000000e+00  0.00000000e+00 -1.07291452e-08
  0.00000000e+00  0.00000000e+00  0.00000000e+00  0.00000000e+00
  0.00000000e+00  0.00000000e+00  0.00000000e+00  0.00000000e+00
  0.00000000e+00  0.00000000e+00  0.00000000e+00  0.00000000e+00
  0.00000000e+00  0.00000000e+00  0.00000000e+00  0.00000000e+00
  0.00000000e+00  0.00000000e+00 -1.64755804e-07 -1.07291452e-08
  0.00000000e+00  0.00000000e+00  0.00000000e+00  2.67973775e-06]","[[-2.61081611e-05  1.94610673e-03]
 [-3.62309109e-05 -9.66598163e-04]]",[],0.0,0.0
1787210989.790584,1.9342065170633154,1.2379970375172789,2.3001766714152563,"[ 2.13446320e-06 -1.74319940e-07  0.00000000e+00  0.00000000e+00
  0.00000000e+00 -1.50194908e-07 -1.74319940e-07  1.79087546e-06
  0.00000000e+00  0.00000000e+00  0.00000000e+00 -1.12737302e-08
  0.00000000e+00  0.00000000e+00  0.00000000e+00  0.00000000e+00
  0.00000000e+00  0.00000000e+00  0.00000000e+00  0.00000000e+00
  0.00000000e+00  0.00000000e+00  0.00000000e+00  0.00000000e+00
  0.00000000e+00  0.00000000e+00  0.00000000e+00  0.00000000e+00
  0.00000000e+00  0.00000000e+00 -1.50194908e-07 -1.12737302e-08
  0.00000000e+00  0.00000000e+00  0.00000000e+00  2.49711339e-06]","[[ 3.58504386e-05  1.59329395e-03]
 [-3.82276029e-05  8.20546624e-04]]",[],0.0,0.0
1787210990.0674736,1.9342065170633154,1.2379970375172789,2.3001766714152563,"[ 2.13446320e-06 -1.74319940e-07  0.00000000e+00  0.00000000e+00
  0.00000000e+00 -1.50194908e-07 -1.74319940e-07  1.79087546e-06
  0.00000000e+00  0.00000000e+00  0.00000000e+00 -1.12737302e-08
  0.00000000e+00  0.00000000e+00  0.00000000e+00  0.00000000e+00
  0.00000000e+00  0.00000000e+00  0.00000000e+00  0.00000000e+00
  0.00000000e+00  0.00000000e+00  0.00000000e+00  0.00000000e+00
  0.00000000e+00  0.00000000e+00  0.00000000e+00  0.00000000e+00
  0.00000000e+00  0.00000000e+00 -1.50194908e-07 -1.12737302e-08
  0.00000000e+00  0.00000000e+00  0.00000000e+00  2.49711339e-06]","[[ 3.58504386e-05  1.59329395e-03]
 [-3.82276029e-05  8.20546624e-04]]",[],0.0,0.0
1787210990.0992432,1.935098192205158,1.2345296576969915,2.304491451182935,"[ 2.08713365e-06 -1.85932851e-07  0.00000000e+00  0.00000000e+00
  0.00000000e+00 -1.49923015e-07 -1.85932851e-07  1.76204906e-06
  0.00000000e+00  0.00000000e+00  0.00000000e+00  9.38199996e-09
  0.00000000e+00  0.00000000e+00  0.00000000e+00  0.00000000e+00
  0.00000000e+00  0.00000000e+00  0.00000000e+00  0.00000000e+00
  0.00000000e+00  0.00000000e+00  0.00000000e+00  0.00000000e+00
  0.00000000e+00  0.00000000e+00  0.00000000e+00  0.00000000e+00
  0.00000000e+00  0.00000000e+00 -1.49923015e-07  9.38199996e-09
  0.00000000e+00  0.00000000e+00  0.00000000e+00  2.63575980e-06]","[[ 3.58504386e-05  1.59329395e-03]
 [-3.82276029e-05  8.20546624e-04]]",[],0.0,0.0
1787210990.4805424,1.935098192205158,1.2345296576969915,2.304491451182935,"[ 2.08713365e-06 -1.85932851e-07  0.00000000e+00  0.00000000e+00
  0.00000000e+00 -1.49923015e-07 -1.85932851e-07  1.76204906e-06
  0.00000000e+00  0.00000000e+00  0.00000000e+00  9.38199996e-09
  0.00000000e+00  0.00000000e+00  0.00000000e+00  0.00000000e+00
  0.00000000e+00  0.00000000e+00  0.00000000e+00  0.00000000e+00
  0.00000000e+00  0.00000000e+00  0.00000000e+00  0.00000000e+00
  0.00000000e+00  0.00000000e+00  0.00000000e+00  0.00000000e+00
  0.00000000e+00  0.00000000e+00 -1.49923015e-07  9.38199996e-09
  0.00000000e+00  0.00000000e+00  0.00000000e+00  2.63575980e-06]","[[ 3.53278493e-05  1.55385222e-03]
 [-3.78520113e-05  7.61243854e-04]]",[],0.0,0.0
1787210990.8752499,1.9359371758166541,1.2310516802491673,2.3061463306564605,"[ 2.04177569e-06 -1.96362467e-07  0.00000000e+00  0.00000000e+00
  0.00000000e+00 -1.50944009e-07 -1.96362467e-07  1.73286886e-06
  0.00000000e+00  0.00000000e+00  0.00000000e+00  1.78062188e-08
  0.00000000e+00  0.00000000e+00  0.00000000e+00  0.00000000e+00
  0.00000000e+00  0.00000000e+00  0.00000000e+00  0.00000000e+00
  0.00000000e+00  0.00000000e+00  0.00000000e+00  0.00000000e+00
  0.00000000e+00  0.00000000e+00  0.00000000e+00  0.00000000e+00
  0.00000000e+00  0.00000000e+00 -1.50944009e-07  1.78062188e-08
  0.00000000e+00  0.00000000e+00  0.00000000e+00  2.63991307e-06]","[[ 3.48211043e-05  1.51845607e-03]
 [-3.74457506e-05  7.23215111e-04]]",[],0.0,0.0
1787210990.8838024,1.9359371758166541,1.2310516802491673,2.3061463306564605,"[ 2.04177569e-06 -1.96362467e-07  0.00000000e+00  0.00000000e+00
  0.00000000e+00 -1.50944009e-07 -1.96362467e-07  1.73286886e-06
  0.00000000e+00  0.00000000e+00  0.00000000e+00  1.78062188e-08
  0.00000000e+00  0.00000000e+00  0.00000000e+00  0.00000000e+00
  0.00000000e+00  0.00000000e+00  0.00000000e+00  0.00000000e+00
  0.00000000e+00  0.00000000e+00  0.00000000e+00  0.00000000e+00
  0.00000000e+00  0.00000000e+00  0.00000000e+00  0.00000000e+00
  0.00000000e+00  0.00000000e+00 -1.50944009e-07  1.78062188e-08
  0.00000000e+00  0.00000000e+00  0.00000000e+00  2.63991307e-06]","[[ 3.48211043e-05  1.51845607e-03]
 [-3.74457506e-05  7.23215111e-04]]",[],0.0,0.0
1787210991.058264,1.9363830300957814,1.228464769621146,2.304316231400515,"[ 1.99427326e-06 -2.01985336e-07  0.00000000e+00  0.00000000e+00
  0.00000000e+00 -1.22694305e-07 -2.01985336e-07  1.69976833e-06
  0.00000000e+00  0.00000000e+00  0.00000000e+00 -3.68792098e-09
  0.00000000e+00  0.00000000e+00  0.00000000e+00  0.00000000e+00
  0.00000000e+00  0.00000000e+00  0.00000000e+00  0.00000000e+00
  0.00000000e+00  0.00000000e+00  0.00000000e+00  0.00000000e+00
  0.00000000e+00  0.00000000e+00  0.00000000e+00  0.00000000e+00
  0.00000000e+00  0.00000000e+00 -1.22694305e-07 -3.68792098e-09
  0.00000000e+00  0.00000000e+00  0.00000000e+00  2.58836623e-06]","[[ 3.41869188e-05  1.43579752e-03]
 [-3.68882890e-05  7.35976143e-04]]",[],0.0,0.0
1787210991.2675266,1.9363830300957814,1.228464769621146,2.304316231400515,"[ 1.99427326e-06 -2.01985336e-07  0.00000000e+00  0.00000000e+00
  0.00000000e+00 -1.22694305e-07 -2.01985336e-07  1.69976833e-06
  0.00000000e+00  0.00000000e+00  0.00000000e+00 -3.68792098e-09
  0.00000000e+00  0.00000000e+00  0.00000000e+00  0.00000000e+00
  0.00000000e+00  0.00000000e+00  0.00000000e+00  0.00000000e+00
  0.00000000e+00  0.00000000e+00  0.00000000e+00  0.00000000e+00
  0.00000000e+00  0.00000000e+00  0.00000000e+00  0.00000000e+00
  0.00000000e+00  0.00000000e+00 -1.22694305e-07 -3.68792098e-09
  0.00000000e+00  0.00000000e+00  0.00000000e+00  2.58836623e-06]","[[ 3.41869188e-05  1.43579752e-03]
 [-3.68882890e-05  7.35976143e-04]]",[],0.0,0.0
1787210991.6191895,1.9375362589758482,1.2255599746237886,2.3024787249631213,"[ 1.94937816e-06 -2.09258891e-07  0.00000000e+00  0.00000000e+00
  0.00000000e+00 -1.24673177e-07 -2.09258891e-07  1.67150888e-06
  0.00000000e+00  0.00000000e+00  0.00000000e+00 -1.38512587e-09
  0.00000000e+00  0.00000000e+00  0.00000000e+00  0.00000000e+00
  0.00000000e+00  0.00000000e+00  0.00000000e+00  0.00000000e+00
  0.00000000e+00  0.00000000e+00  0.00000000e+00  0.00000000e+00
  0.00000000e+00  0.00000000e+00  0.00000000e+00  0.00000000e+00
  0.00000000e+00  0.00000000e+00 -1.24673177e-07 -1.38512587e-09
  0.00000000e+00  0.00000000e+00  0.00000000e+00  2.56666110e-06]","[[ 3.36306706e-05  1.40457578e-03]
 [-3.64488016e-05  7.11318201e-04]]",[],0.0,0.0
1787210991.9739013,1.938340348225591,1.222612948344181,2.2977032805943924,"[ 1.90572511e-06 -2.10747107e-07  0.00000000e+00  0.00000000e+00
  0.00000000e+00 -1.25892253e-07 -2.10747107e-07  1.63820621e-06
  0.00000000e+00  0.00000000e+00  0.00000000e+00  8.18984821e-09
  0.00000000e+00  0.00000000e+00  0.00000000e+00  0.00000000e+00
  0.00000000e+00  0.00000000e+00  0.00000000e+00  0.00000000e+00
  0.00000000e+00  0.00000000e+00  0.00000000e+00  0.00000000e+00
  0.00000000e+00  0.00000000e+00  0.00000000e+00  0.00000000e+00
  0.00000000e+00  0.00000000e+00 -1.25892253e-07  8.18984821e-09
  0.00000000e+00  0.00000000e+00  0.00000000e+00  2.49044617e-06]","[[ 3.29857480e-05  1.37530616e-03]
 [-3.58168468e-05  6.76002397e-04]]",[],0.0,0.0
1787210992.3197052,1.9394543261626005,1.2196690973798314,2.304189215881288,"[ 1.86267033e-06 -2.13724111e-07  0.00000000e+00  0.00000000e+00
  0.00000000e+00 -1.25064718e-07 -2.13724111e-07  1.60892439e-06
  0.00000000e+00  0.00000000e+00  0.00000000e+00  4.27167416e-09
  0.00000000e+00  0.00000000e+00  0.00000000e+00  0.00000000e+00
  0.00000000e+00  0.00000000e+00  0.00000000e+00  0.00000000e+00
  0.00000000e+00  0.00000000e+00  0.00000000e+00  0.00000000e+00
  0.00000000e+00  0.00000000e+00  0.00000000e+00  0.00000000e+00
  0.00000000e+00  0.00000000e+00 -1.25064718e-07  4.27167416e-09
  0.00000000e+00  0.00000000e+00  0.00000000e+00  2.45010048e-06]","[[ 3.23751052e-05  1.34264230e-03]
 [-3.52900875e-05  6.64001261e-04]]",[],0.0,0.0
1787210992.6614282,1.939818627097741,1.2167974647642172,2.3047967380928496,"[ 1.82082115e-06 -2.14511225e-07  0.00000000e+00  0.00000000e+00
