time,x,y,yaw,cov_prop,K_gain,innovation,v_ekf,omega_ekf
1787560300.5585945,1.5771408367520157,1.5392521289542966,2.1676728213015393,"[ 6.41848103e-05  4.37323855e-07  0.00000000e+00  0.00000000e+00
  0.00000000e+00 -8.11287810e-06  4.37323855e-07  5.16419306e-05
  0.00000000e+00  0.00000000e+00  0.00000000e+00 -4.63624828e-07
  0.00000000e+00  0.00000000e+00  0.00000000e+00  0.00000000e+00
  0.00000000e+00  0.00000000e+00  0.00000000e+00  0.00000000e+00
  0.00000000e+00  0.00000000e+00  0.00000000e+00  0.00000000e+00
  0.00000000e+00  0.00000000e+00  0.00000000e+00  0.00000000e+00
  0.00000000e+00  0.00000000e+00 -8.11287810e-06 -4.63624828e-07
  0.00000000e+00  0.00000000e+00  0.00000000e+00  5.22553913e-06]","[[-0.00115066  0.03146867]
 [-0.00091393 -0.01395072]]",[],0.0,0.0
1787560300.5766697,1.5771408367520157,1.5392521289542966,2.1676728213015393,"[ 6.41848103e-05  4.37323855e-07  0.00000000e+00  0.00000000e+00
  0.00000000e+00 -8.11287810e-06  4.37323855e-07  5.16419306e-05
  0.00000000e+00  0.00000000e+00  0.00000000e+00 -4.63624828e-07
  0.00000000e+00  0.00000000e+00  0.00000000e+00  0.00000000e+00
  0.00000000e+00  0.00000000e+00  0.00000000e+00  0.00000000e+00
  0.00000000e+00  0.00000000e+00  0.00000000e+00  0.00000000e+00
  0.00000000e+00  0.00000000e+00  0.00000000e+00  0.00000000e+00
  0.00000000e+00  0.00000000e+00 -8.11287810e-06 -4.63624828e-07
  0.00000000e+00  0.00000000e+00  0.00000000e+00  5.22553913e-06]","[[-0.00115066  0.03146867]
 [-0.00091393 -0.01395072]]",[],0.0,0.0
1787560301.273886,1.6019125365139473,1.4905998097487079,2.2163631497407845,"[ 3.37623613e-05  4.94442874e-07  0.00000000e+00  0.00000000e+00
  0.00000000e+00 -4.28252042e-06  4.94442874e-07  2.30224530e-05
  0.00000000e+00  0.00000000e+00  0.00000000e+00 -1.38723831e-06
  0.00000000e+00  0.00000000e+00  0.00000000e+00  0.00000000e+00
  0.00000000e+00  0.00000000e+00  0.00000000e+00  0.00000000e+00
  0.00000000e+00  0.00000000e+00  0.00000000e+00  0.00000000e+00
  0.00000000e+00  0.00000000e+00  0.00000000e+00  0.00000000e+00
  0.00000000e+00  0.00000000e+00 -4.28252042e-06 -1.38723831e-06
  0.00000000e+00  0.00000000e+00  0.00000000e+00  4.19427212e-06]","[[-0.00064415  0.0251184 ]
 [-0.00038769 -0.01177391]]",[],0.0,0.0
1787560301.3236964,1.6019125365139473,1.4905998097487079,2.2163631497407845,"[ 3.37623613e-05  4.94442874e-07  0.00000000e+00  0.00000000e+00
  0.00000000e+00 -4.28252042e-06  4.94442874e-07  2.30224530e-05
  0.00000000e+00  0.00000000e+00  0.00000000e+00 -1.38723831e-06
  0.00000000e+00  0.00000000e+00  0.00000000e+00  0.00000000e+00
  0.00000000e+00  0.00000000e+00  0.00000000e+00  0.00000000e+00
  0.00000000e+00  0.00000000e+00  0.00000000e+00  0.00000000e+00
  0.00000000e+00  0.00000000e+00  0.00000000e+00  0.00000000e+00
  0.00000000e+00  0.00000000e+00 -4.28252042e-06 -1.38723831e-06
  0.00000000e+00  0.00000000e+00  0.00000000e+00  4.19427212e-06]","[[-0.00064415  0.0251184 ]
 [-0.00038769 -0.01177391]]",[],0.0,0.0
1787560301.3752809,1.6293170064960953,1.469382730080059,2.252177084085316,"[ 2.29262332e-05  7.35308984e-07  0.00000000e+00  0.00000000e+00
  0.00000000e+00 -2.90979745e-06  7.35308984e-07  1.57432808e-05
  0.00000000e+00  0.00000000e+00  0.00000000e+00 -1.28621606e-06
  0.00000000e+00  0.00000000e+00  0.00000000e+00  0.00000000e+00
  0.00000000e+00  0.00000000e+00  0.00000000e+00  0.00000000e+00
  0.00000000e+00  0.00000000e+00  0.00000000e+00  0.00000000e+00
  0.00000000e+00  0.00000000e+00  0.00000000e+00  0.00000000e+00
  0.00000000e+00  0.00000000e+00 -2.90979745e-06 -1.28621606e-06
  0.00000000e+00  0.00000000e+00  0.00000000e+00  4.23760316e-06]","[[-3.87130668e-06  1.14527526e-02]
 [-3.92990722e-04  2.45551318e-03]]",[],0.0,0.0
1787560301.4424975,1.6293170064960953,1.469382730080059,2.252177084085316,"[ 2.29262332e-05  7.35308984e-07  0.00000000e+00  0.00000000e+00
  0.00000000e+00 -2.90979745e-06  7.35308984e-07  1.57432808e-05
  0.00000000e+00  0.00000000e+00  0.00000000e+00 -1.28621606e-06
  0.00000000e+00  0.00000000e+00  0.00000000e+00  0.00000000e+00
  0.00000000e+00  0.00000000e+00  0.00000000e+00  0.00000000e+00
  0.00000000e+00  0.00000000e+00  0.00000000e+00  0.00000000e+00
  0.00000000e+00  0.00000000e+00  0.00000000e+00  0.00000000e+00
  0.00000000e+00  0.00000000e+00 -2.90979745e-06 -1.28621606e-06
  0.00000000e+00  0.00000000e+00  0.00000000e+00  4.23760316e-06]","[[-3.87130668e-06  1.14527526e-02]
 [-3.92990722e-04  2.45551318e-03]]",[],0.0,0.0
1787560301.4759314,1.6293170064960953,1.469382730080059,2.252177084085316,"[ 2.29262332e-05  7.35308984e-07  0.00000000e+00  0.00000000e+00
  0.00000000e+00 -2.90979745e-06  7.35308984e-07  1.57432808e-05
  0.00000000e+00  0.00000000e+00  0.00000000e+00 -1.28621606e-06
  0.00000000e+00  0.00000000e+00  0.00000000e+00  0.00000000e+00
  0.00000000e+00  0.00000000e+00  0.00000000e+00  0.00000000e+00
  0.00000000e+00  0.00000000e+00  0.00000000e+00  0.00000000e+00
  0.00000000e+00  0.00000000e+00  0.00000000e+00  0.00000000e+00
  0.00000000e+00  0.00000000e+00 -2.90979745e-06 -1.28621606e-06
  0.00000000e+00  0.00000000e+00  0.00000000e+00  4.23760316e-06]","[[-3.87130668e-06  1.14527526e-02]
 [-3.92990722e-04  2.45551318e-03]]",[],0.0,0.0
1787560301.5367222,1.6293170064960953,1.469382730080059,2.252177084085316,"[ 2.29262332e-05  7.35308984e-07  0.00000000e+00  0.00000000e+00
  0.00000000e+00 -2.90979745e-06  7.35308984e-07  1.57432808e-05
  0.00000000e+00  0.00000000e+00  0.00000000e+00 -1.28621606e-06
  0.00000000e+00  0.00000000e+00  0.00000000e+00  0.00000000e+00
  0.00000000e+00  0.00000000e+00  0.00000000e+00  0.00000000e+00
  0.00000000e+00  0.00000000e+00  0.00000000e+00  0.00000000e+00
  0.00000000e+00  0.00000000e+00  0.00000000e+00  0.00000000e+00
  0.00000000e+00  0.00000000e+00 -2.90979745e-06 -1.28621606e-06
  0.00000000e+00  0.00000000e+00  0.00000000e+00  4.23760316e-06]","[[-3.87130668e-06  1.14527526e-02]
 [-3.92990722e-04  2.45551318e-03]]",[],0.0,0.0
1787560301.6786208,1.6293170064960953,1.469382730080059,2.252177084085316,"[ 2.29262332e-05  7.35308984e-07  0.00000000e+00  0.00000000e+00
  0.00000000e+00 -2.90979745e-06  7.35308984e-07  1.57432808e-05
  0.00000000e+00  0.00000000e+00  0.00000000e+00 -1.28621606e-06
  0.00000000e+00  0.00000000e+00  0.00000000e+00  0.00000000e+00
  0.00000000e+00  0.00000000e+00  0.00000000e+00  0.00000000e+00
  0.00000000e+00  0.00000000e+00  0.00000000e+00  0.00000000e+00
  0.00000000e+00  0.00000000e+00  0.00000000e+00  0.00000000e+00
  0.00000000e+00  0.00000000e+00 -2.90979745e-06 -1.28621606e-06
  0.00000000e+00  0.00000000e+00  0.00000000e+00  4.23760316e-06]","[[-3.87130668e-06  1.14527526e-02]
 [-3.92990722e-04  2.45551318e-03]]",[],0.0,0.0
1787560301.73226,1.6293170064960953,1.469382730080059,2.252177084085316,"[ 2.29262332e-05  7.35308984e-07  0.00000000e+00  0.00000000e+00
  0.00000000e+00 -2.90979745e-06  7.35308984e-07  1.57432808e-05
  0.00000000e+00  0.00000000e+00  0.00000000e+00 -1.28621606e-06
  0.00000000e+00  0.00000000e+00  0.00000000e+00  0.00000000e+00
  0.00000000e+00  0.00000000e+00  0.00000000e+00  0.00000000e+00
  0.00000000e+00  0.00000000e+00  0.00000000e+00  0.00000000e+00
  0.00000000e+00  0.00000000e+00  0.00000000e+00  0.00000000e+00
  0.00000000e+00  0.00000000e+00 -2.90979745e-06 -1.28621606e-06
  0.00000000e+00  0.00000000e+00  0.00000000e+00  4.23760316e-06]","[[-3.87130668e-06  1.14527526e-02]
 [-3.92990722e-04  2.45551318e-03]]",[],0.0,0.0
1787560301.774216,1.6293170064960953,1.469382730080059,2.252177084085316,"[ 2.29262332e-05  7.35308984e-07  0.00000000e+00  0.00000000e+00
  0.00000000e+00 -2.90979745e-06  7.35308984e-07  1.57432808e-05
  0.00000000e+00  0.00000000e+00  0.00000000e+00 -1.28621606e-06
  0.00000000e+00  0.00000000e+00  0.00000000e+00  0.00000000e+00
  0.00000000e+00  0.00000000e+00  0.00000000e+00  0.00000000e+00
  0.00000000e+00  0.00000000e+00  0.00000000e+00  0.00000000e+00
  0.00000000e+00  0.00000000e+00  0.00000000e+00  0.00000000e+00
  0.00000000e+00  0.00000000e+00 -2.90979745e-06 -1.28621606e-06
  0.00000000e+00  0.00000000e+00  0.00000000e+00  4.23760316e-06]","[[-3.87130668e-06  1.14527526e-02]
 [-3.92990722e-04  2.45551318e-03]]",[],0.0,0.0
1787560301.8256493,1.6293170064960953,1.469382730080059,2.252177084085316,"[ 2.29262332e-05  7.35308984e-07  0.00000000e+00  0.00000000e+00
  0.00000000e+00 -2.90979745e-06  7.35308984e-07  1.57432808e-05
  0.00000000e+00  0.00000000e+00  0.00000000e+00 -1.28621606e-06
  0.00000000e+00  0.00000000e+00  0.00000000e+00  0.00000000e+00
  0.00000000e+00  0.00000000e+00  0.00000000e+00  0.00000000e+00
  0.00000000e+00  0.00000000e+00  0.00000000e+00  0.00000000e+00
  0.00000000e+00  0.00000000e+00  0.00000000e+00  0.00000000e+00
  0.00000000e+00  0.00000000e+00 -2.90979745e-06 -1.28621606e-06
  0.00000000e+00  0.00000000e+00  0.00000000e+00  4.23760316e-06]","[[-3.87130668e-06  1.14527526e-02]
 [-3.92990722e-04  2.45551318e-03]]",[],0.0,0.0
1787560301.877456,1.6293170064960953,1.469382730080059,2.252177084085316,"[ 2.29262332e-05  7.35308984e-07  0.00000000e+00  0.00000000e+00
  0.00000000e+00 -2.90979745e-06  7.35308984e-07  1.57432808e-05
  0.00000000e+00  0.00000000e+00  0.00000000e+00 -1.28621606e-06
  0.00000000e+00  0.00000000e+00  0.00000000e+00  0.00000000e+00
  0.00000000e+00  0.00000000e+00  0.00000000e+00  0.00000000e+00
  0.00000000e+00  0.00000000e+00  0.00000000e+00  0.00000000e+00
  0.00000000e+00  0.00000000e+00  0.00000000e+00  0.00000000e+00
  0.00000000e+00  0.00000000e+00 -2.90979745e-06 -1.28621606e-06
  0.00000000e+00  0.00000000e+00  0.00000000e+00  4.23760316e-06]","[[-3.87130668e-06  1.14527526e-02]
 [-3.92990722e-04  2.45551318e-03]]",[],0.0,0.0
1787560301.9284256,1.6293170064960953,1.469382730080059,2.252177084085316,"[ 2.29262332e-05  7.35308984e-07  0.00000000e+00  0.00000000e+00
  0.00000000e+00 -2.90979745e-06  7.35308984e-07  1.57432808e-05
  0.00000000e+00  0.00000000e+00  0.00000000e+00 -1.28621606e-06
  0.00000000e+00  0.00000000e+00  0.00000000e+00  0.00000000e+00
  0.00000000e+00  0.00000000e+00  0.00000000e+00  0.00000000e+00
  0.00000000e+00  0.00000000e+00  0.00000000e+00  0.00000000e+00
  0.00000000e+00  0.00000000e+00  0.00000000e+00  0.00000000e+00
  0.00000000e+00  0.00000000e+00 -2.90979745e-06 -1.28621606e-06
  0.00000000e+00  0.00000000e+00  0.00000000e+00  4.23760316e-06]","[[-3.87130668e-06  1.14527526e-02]
 [-3.92990722e-04  2.45551318e-03]]",[],0.0,0.0
1787560301.9754117,1.6293170064960953,1.469382730080059,2.252177084085316,"[ 2.29262332e-05  7.35308984e-07  0.00000000e+00  0.00000000e+00
  0.00000000e+00 -2.90979745e-06  7.35308984e-07  1.57432808e-05
  0.00000000e+00  0.00000000e+00  0.00000000e+00 -1.28621606e-06
  0.00000000e+00  0.00000000e+00  0.00000000e+00  0.00000000e+00
  0.00000000e+00  0.00000000e+00  0.00000000e+00  0.00000000e+00
  0.00000000e+00  0.00000000e+00  0.00000000e+00  0.00000000e+00
  0.00000000e+00  0.00000000e+00  0.00000000e+00  0.00000000e+00
  0.00000000e+00  0.00000000e+00 -2.90979745e-06 -1.28621606e-06
  0.00000000e+00  0.00000000e+00  0.00000000e+00  4.23760316e-06]","[[-3.87130668e-06  1.14527526e-02]
 [-3.92990722e-04  2.45551318e-03]]",[],0.0,0.0
1787560302.0245454,1.6293170064960953,1.469382730080059,2.252177084085316,"[ 2.29262332e-05  7.35308984e-07  0.00000000e+00  0.00000000e+00
  0.00000000e+00 -2.90979745e-06  7.35308984e-07  1.57432808e-05
  0.00000000e+00  0.00000000e+00  0.00000000e+00 -1.28621606e-06
  0.00000000e+00  0.00000000e+00  0.00000000e+00  0.00000000e+00
  0.00000000e+00  0.00000000e+00  0.00000000e+00  0.00000000e+00
  0.00000000e+00  0.00000000e+00  0.00000000e+00  0.00000000e+00
  0.00000000e+00  0.00000000e+00  0.00000000e+00  0.00000000e+00
  0.00000000e+00  0.00000000e+00 -2.90979745e-06 -1.28621606e-06
  0.00000000e+00  0.00000000e+00  0.00000000e+00  4.23760316e-06]","[[-3.87130668e-06  1.14527526e-02]
 [-3.92990722e-04  2.45551318e-03]]",[],0.0,0.0
1787560302.0802884,1.6293170064960953,1.469382730080059,2.252177084085316,"[ 2.29262332e-05  7.35308984e-07  0.00000000e+00  0.00000000e+00
  0.00000000e+00 -2.90979745e-06  7.35308984e-07  1.57432808e-05
  0.00000000e+00  0.00000000e+00  0.00000000e+00 -1.28621606e-06
  0.00000000e+00  0.00000000e+00  0.00000000e+00  0.00000000e+00
  0.00000000e+00  0.00000000e+00  0.00000000e+00  0.00000000e+00
  0.00000000e+00  0.00000000e+00  0.00000000e+00  0.00000000e+00
  0.00000000e+00  0.00000000e+00  0.00000000e+00  0.00000000e+00
  0.00000000e+00  0.00000000e+00 -2.90979745e-06 -1.28621606e-06
  0.00000000e+00  0.00000000e+00  0.00000000e+00  4.23760316e-06]","[[-3.87130668e-06  1.14527526e-02]
 [-3.92990722e-04  2.45551318e-03]]",[],0.0,0.0
1787560302.1241786,1.6293170064960953,1.469382730080059,2.252177084085316,"[ 2.29262332e-05  7.35308984e-07  0.00000000e+00  0.00000000e+00
  0.00000000e+00 -2.90979745e-06  7.35308984e-07  1.57432808e-05
  0.00000000e+00  0.00000000e+00  0.00000000e+00 -1.28621606e-06
  0.00000000e+00  0.00000000e+00  0.00000000e+00  0.00000000e+00
  0.00000000e+00  0.00000000e+00  0.00000000e+00  0.00000000e+00
  0.00000000e+00  0.00000000e+00  0.00000000e+00  0.00000000e+00
  0.00000000e+00  0.00000000e+00  0.00000000e+00  0.00000000e+00
  0.00000000e+00  0.00000000e+00 -2.90979745e-06 -1.28621606e-06
  0.00000000e+00  0.00000000e+00  0.00000000e+00  4.23760316e-06]","[[-3.87130668e-06  1.14527526e-02]
 [-3.92990722e-04  2.45551318e-03]]",[],0.0,0.0
1787560302.182559,1.6293170064960953,1.469382730080059,2.252177084085316,"[ 2.29262332e-05  7.35308984e-07  0.00000000e+00  0.00000000e+00
  0.00000000e+00 -2.90979745e-06  7.35308984e-07  1.57432808e-05
  0.00000000e+00  0.00000000e+00  0.00000000e+00 -1.28621606e-06
  0.00000000e+00  0.00000000e+00  0.00000000e+00  0.00000000e+00
  0.00000000e+00  0.00000000e+00  0.00000000e+00  0.00000000e+00
  0.00000000e+00  0.00000000e+00  0.00000000e+00  0.00000000e+00
  0.00000000e+00  0.00000000e+00  0.00000000e+00  0.00000000e+00
  0.00000000e+00  0.00000000e+00 -2.90979745e-06 -1.28621606e-06
  0.00000000e+00  0.00000000e+00  0.00000000e+00  4.23760316e-06]","[[-3.87130668e-06  1.14527526e-02]
 [-3.92990722e-04  2.45551318e-03]]",[],0.0,0.0
1787560302.223887,1.6293170064960953,1.469382730080059,2.252177084085316,"[ 2.29262332e-05  7.35308984e-07  0.00000000e+00  0.00000000e+00
  0.00000000e+00 -2.90979745e-06  7.35308984e-07  1.57432808e-05
  0.00000000e+00  0.00000000e+00  0.00000000e+00 -1.28621606e-06
  0.00000000e+00  0.00000000e+00  0.00000000e+00  0.00000000e+00
  0.00000000e+00  0.00000000e+00  0.00000000e+00  0.00000000e+00
  0.00000000e+00  0.00000000e+00  0.00000000e+00  0.00000000e+00
  0.00000000e+00  0.00000000e+00  0.00000000e+00  0.00000000e+00
  0.00000000e+00  0.00000000e+00 -2.90979745e-06 -1.28621606e-06
  0.00000000e+00  0.00000000e+00  0.00000000e+00  4.23760316e-06]","[[-3.87130668e-06  1.14527526e-02]
 [-3.92990722e-04  2.45551318e-03]]",[],0.0,0.0
1787560302.2745385,1.6293170064960953,1.469382730080059,2.252177084085316,"[ 2.29262332e-05  7.35308984e-07  0.00000000e+00  0.00000000e+00
  0.00000000e+00 -2.90979745e-06  7.35308984e-07  1.57432808e-05
  0.00000000e+00  0.00000000e+00  0.00000000e+00 -1.28621606e-06
  0.00000000e+00  0.00000000e+00  0.00000000e+00  0.00000000e+00
  0.00000000e+00  0.00000000e+00  0.00000000e+00  0.00000000e+00
  0.00000000e+00  0.00000000e+00  0.00000000e+00  0.00000000e+00
  0.00000000e+00  0.00000000e+00  0.00000000e+00  0.00000000e+00
  0.00000000e+00  0.00000000e+00 -2.90979745e-06 -1.28621606e-06
  0.00000000e+00  0.00000000e+00  0.00000000e+00  4.23760316e-06]","[[-3.87130668e-06  1.14527526e-02]
 [-3.92990722e-04  2.45551318e-03]]",[],0.0,0.0
1787560302.326809,1.6293170064960953,1.469382730080059,2.252177084085316,"[ 2.29262332e-05  7.35308984e-07  0.00000000e+00  0.00000000e+00
  0.00000000e+00 -2.90979745e-06  7.35308984e-07  1.57432808e-05
  0.00000000e+00  0.00000000e+00  0.00000000e+00 -1.28621606e-06
  0.00000000e+00  0.00000000e+00  0.00000000e+00  0.00000000e+00
  0.00000000e+00  0.00000000e+00  0.00000000e+00  0.00000000e+00
  0.00000000e+00  0.00000000e+00  0.00000000e+00  0.00000000e+00
  0.00000000e+00  0.00000000e+00  0.00000000e+00  0.00000000e+00
  0.00000000e+00  0.00000000e+00 -2.90979745e-06 -1.28621606e-06
  0.00000000e+00  0.00000000e+00  0.00000000e+00  4.23760316e-06]","[[-3.87130668e-06  1.14527526e-02]
 [-3.92990722e-04  2.45551318e-03]]",[],0.0,0.0
1787560302.3828156,1.6293170064960953,1.469382730080059,2.252177084085316,"[ 2.29262332e-05  7.35308984e-07  0.00000000e+00  0.00000000e+00
  0.00000000e+00 -2.90979745e-06  7.35308984e-07  1.57432808e-05
  0.00000000e+00  0.00000000e+00  0.00000000e+00 -1.28621606e-06
  0.00000000e+00  0.00000000e+00  0.00000000e+00  0.00000000e+00
  0.00000000e+00  0.00000000e+00  0.00000000e+00  0.00000000e+00
  0.00000000e+00  0.00000000e+00  0.00000000e+00  0.00000000e+00
  0.00000000e+00  0.00000000e+00  0.00000000e+00  0.00000000e+00
  0.00000000e+00  0.00000000e+00 -2.90979745e-06 -1.28621606e-06
  0.00000000e+00  0.00000000e+00  0.00000000e+00  4.23760316e-06]","[[-3.87130668e-06  1.14527526e-02]
 [-3.92990722e-04  2.45551318e-03]]",[],0.0,0.0
1787560302.4331412,1.6483799969902562,1.4497594855380345,2.3262505601380408,"[ 1.74136400e-05  4.45702209e-07  0.00000000e+00  0.00000000e+00
  0.00000000e+00 -1.99056649e-06  4.45702209e-07  1.19137180e-05
  0.00000000e+00  0.00000000e+00  0.00000000e+00 -8.11970378e-07
  0.00000000e+00  0.00000000e+00  0.00000000e+00  0.00000000e+00
  0.00000000e+00  0.00000000e+00  0.00000000e+00  0.00000000e+00
  0.00000000e+00  0.00000000e+00  0.00000000e+00  0.00000000e+00
  0.00000000e+00  0.00000000e+00  0.00000000e+00  0.00000000e+00
  0.00000000e+00  0.00000000e+00 -1.99056649e-06 -8.11970378e-07
  0.00000000e+00  0.00000000e+00  0.00000000e+00  4.30945179e-06]","[[ 1.91799772e-06  8.31559037e-03]
 [-2.97374831e-04  1.57448931e-03]]",[],0.0,0.0
1787560302.474761,1.6483799969902562,1.4497594855380345,2.3262505601380408,"[ 1.74136400e-05  4.45702209e-07  0.00000000e+00  0.00000000e+00
  0.00000000e+00 -1.99056649e-06  4.45702209e-07  1.19137180e-05
  0.00000000e+00  0.00000000e+00  0.00000000e+00 -8.11970378e-07
  0.00000000e+00  0.00000000e+00  0.00000000e+00  0.00000000e+00
  0.00000000e+00  0.00000000e+00  0.00000000e+00  0.00000000e+00
  0.00000000e+00  0.00000000e+00  0.00000000e+00  0.00000000e+00
  0.00000000e+00  0.00000000e+00  0.00000000e+00  0.00000000e+00
  0.00000000e+00  0.00000000e+00 -1.99056649e-06 -8.11970378e-07
  0.00000000e+00  0.00000000e+00  0.00000000e+00  4.30945179e-06]","[[ 1.91799772e-06  8.31559037e-03]
 [-2.97374831e-04  1.57448931e-03]]",[],0.0,0.0
1787560302.5282805,1.6483799969902562,1.4497594855380345,2.3262505601380408,"[ 1.74136400e-05  4.45702209e-07  0.00000000e+00  0.00000000e+00
  0.00000000e+00 -1.99056649e-06  4.45702209e-07  1.19137180e-05
  0.00000000e+00  0.00000000e+00  0.00000000e+00 -8.11970378e-07
  0.00000000e+00  0.00000000e+00  0.00000000e+00  0.00000000e+00
  0.00000000e+00  0.00000000e+00  0.00000000e+00  0.00000000e+00
  0.00000000e+00  0.00000000e+00  0.00000000e+00  0.00000000e+00
  0.00000000e+00  0.00000000e+00  0.00000000e+00  0.00000000e+00
  0.00000000e+00  0.00000000e+00 -1.99056649e-06 -8.11970378e-07
  0.00000000e+00  0.00000000e+00  0.00000000e+00  4.30945179e-06]","[[ 1.91799772e-06  8.31559037e-03]
 [-2.97374831e-04  1.57448931e-03]]",[],0.0,0.0
1787560302.5770907,1.6483799969902562,1.4497594855380345,2.3262505601380408,"[ 1.74136400e-05  4.45702209e-07  0.00000000e+00  0.00000000e+00
  0.00000000e+00 -1.99056649e-06  4.45702209e-07  1.19137180e-05
  0.00000000e+00  0.00000000e+00  0.00000000e+00 -8.11970378e-07
  0.00000000e+00  0.00000000e+00  0.00000000e+00  0.00000000e+00
  0.00000000e+00  0.00000000e+00  0.00000000e+00  0.00000000e+00
  0.00000000e+00  0.00000000e+00  0.00000000e+00  0.00000000e+00
  0.00000000e+00  0.00000000e+00  0.00000000e+00  0.00000000e+00
  0.00000000e+00  0.00000000e+00 -1.99056649e-06 -8.11970378e-07
  0.00000000e+00  0.00000000e+00  0.00000000e+00  4.30945179e-06]","[[ 1.91799772e-06  8.31559037e-03]
 [-2.97374831e-04  1.57448931e-03]]",[],0.0,0.0
1787560302.6245177,1.6483799969902562,1.4497594855380345,2.3262505601380408,"[ 1.74136400e-05  4.45702209e-07  0.00000000e+00  0.00000000e+00
  0.00000000e+00 -1.99056649e-06  4.45702209e-07  1.19137180e-05
  0.00000000e+00  0.00000000e+00  0.00000000e+00 -8.11970378e-07
  0.00000000e+00  0.00000000e+00  0.00000000e+00  0.00000000e+00
  0.00000000e+00  0.00000000e+00  0.00000000e+00  0.00000000e+00
  0.00000000e+00  0.00000000e+00  0.00000000e+00  0.00000000e+00
  0.00000000e+00  0.00000000e+00  0.00000000e+00  0.00000000e+00
  0.00000000e+00  0.00000000e+00 -1.99056649e-06 -8.11970378e-07
  0.00000000e+00  0.00000000e+00  0.00000000e+00  4.30945179e-06]","[[ 1.91799772e-06  8.31559037e-03]
 [-2.97374831e-04  1.57448931e-03]]",[],0.0,0.0
1787560302.6744442,1.6483799969902562,1.4497594855380345,2.3262505601380408,"[ 1.74136400e-05  4.45702209e-07  0.00000000e+00  0.00000000e+00
  0.00000000e+00 -1.99056649e-06  4.45702209e-07  1.19137180e-05
  0.00000000e+00  0.00000000e+00  0.00000000e+00 -8.11970378e-07
  0.00000000e+00  0.00000000e+00  0.00000000e+00  0.00000000e+00
  0.00000000e+00  0.00000000e+00  0.00000000e+00  0.00000000e+00
  0.00000000e+00  0.00000000e+00  0.00000000e+00  0.00000000e+00
  0.00000000e+00  0.00000000e+00  0.00000000e+00  0.00000000e+00
  0.00000000e+00  0.00000000e+00 -1.99056649e-06 -8.11970378e-07
  0.00000000e+00  0.00000000e+00  0.00000000e+00  4.30945179e-06]","[[ 1.91799772e-06  8.31559037e-03]
 [-2.97374831e-04  1.57448931e-03]]",[],0.0,0.0
1787560302.7260492,1.6483799969902562,1.4497594855380345,2.3262505601380408,"[ 1.74136400e-05  4.45702209e-07  0.00000000e+00  0.00000000e+00
  0.00000000e+00 -1.99056649e-06  4.45702209e-07  1.19137180e-05
  0.00000000e+00  0.00000000e+00  0.00000000e+00 -8.11970378e-07
  0.00000000e+00  0.00000000e+00  0.00000000e+00  0.00000000e+00
  0.00000000e+00  0.00000000e+00  0.00000000e+00  0.00000000e+00
  0.00000000e+00  0.00000000e+00  0.00000000e+00  0.00000000e+00
  0.00000000e+00  0.00000000e+00  0.00000000e+00  0.00000000e+00
  0.00000000e+00  0.00000000e+00 -1.99056649e-06 -8.11970378e-07
  0.00000000e+00  0.00000000e+00  0.00000000e+00  4.30945179e-06]","[[ 1.91799772e-06  8.31559037e-03]
 [-2.97374831e-04  1.57448931e-03]]",[],0.0,0.0
1787560302.7757108,1.6483799969902562,1.4497594855380345,2.3262505601380408,"[ 1.74136400e-05  4.45702209e-07  0.00000000e+00  0.00000000e+00
  0.00000000e+00 -1.99056649e-06  4.45702209e-07  1.19137180e-05
  0.00000000e+00  0.00000000e+00  0.00000000e+00 -8.11970378e-07
  0.00000000e+00  0.00000000e+00  0.00000000e+00  0.00000000e+00
  0.00000000e+00  0.00000000e+00  0.00000000e+00  0.00000000e+00
  0.00000000e+00  0.00000000e+00  0.00000000e+00  0.00000000e+00
  0.00000000e+00  0.00000000e+00  0.00000000e+00  0.00000000e+00
  0.00000000e+00  0.00000000e+00 -1.99056649e-06 -8.11970378e-07
  0.00000000e+00  0.00000000e+00  0.00000000e+00  4.30945179e-06]","[[ 1.91799772e-06  8.31559037e-03]
 [-2.97374831e-04  1.57448931e-03]]",[],0.0,0.0
1787560302.8295841,1.6483799969902562,1.4497594855380345,2.3262505601380408,"[ 1.74136400e-05  4.45702209e-07  0.00000000e+00  0.00000000e+00
  0.00000000e+00 -1.99056649e-06  4.45702209e-07  1.19137180e-05
  0.00000000e+00  0.00000000e+00  0.00000000e+00 -8.11970378e-07
  0.00000000e+00  0.00000000e+00  0.00000000e+00  0.00000000e+00
  0.00000000e+00  0.00000000e+00  0.00000000e+00  0.00000000e+00
  0.00000000e+00  0.00000000e+00  0.00000000e+00  0.00000000e+00
  0.00000000e+00  0.00000000e+00  0.00000000e+00  0.00000000e+00
  0.00000000e+00  0.00000000e+00 -1.99056649e-06 -8.11970378e-07
  0.00000000e+00  0.00000000e+00  0.00000000e+00  4.30945179e-06]","[[ 1.91799772e-06  8.31559037e-03]
 [-2.97374831e-04  1.57448931e-03]]",[],0.0,0.0
1787560302.8754427,1.6483799969902562,1.4497594855380345,2.3262505601380408,"[ 1.74136400e-05  4.45702209e-07  0.00000000e+00  0.00000000e+00
  0.00000000e+00 -1.99056649e-06  4.45702209e-07  1.19137180e-05
  0.00000000e+00  0.00000000e+00  0.00000000e+00 -8.11970378e-07
  0.00000000e+00  0.00000000e+00  0.00000000e+00  0.00000000e+00
  0.00000000e+00  0.00000000e+00  0.00000000e+00  0.00000000e+00
  0.00000000e+00  0.00000000e+00  0.00000000e+00  0.00000000e+00
  0.00000000e+00  0.00000000e+00  0.00000000e+00  0.00000000e+00
  0.00000000e+00  0.00000000e+00 -1.99056649e-06 -8.11970378e-07
  0.00000000e+00  0.00000000e+00  0.00000000e+00  4.30945179e-06]","[[ 1.91799772e-06  8.31559037e-03]
 [-2.97374831e-04  1.57448931e-03]]",[],0.0,0.0
1787560302.9338126,1.6483799969902562,1.4497594855380345,2.3262505601380408,"[ 1.74136400e-05  4.45702209e-07  0.00000000e+00  0.00000000e+00
  0.00000000e+00 -1.99056649e-06  4.45702209e-07  1.19137180e-05
  0.00000000e+00  0.00000000e+00  0.00000000e+00 -8.11970378e-07
  0.00000000e+00  0.00000000e+00  0.00000000e+00  0.00000000e+00
  0.00000000e+00  0.00000000e+00  0.00000000e+00  0.00000000e+00
  0.00000000e+00  0.00000000e+00  0.00000000e+00  0.00000000e+00
  0.00000000e+00  0.00000000e+00  0.00000000e+00  0.00000000e+00
  0.00000000e+00  0.00000000e+00 -1.99056649e-06 -8.11970378e-07
  0.00000000e+00  0.00000000e+00  0.00000000e+00  4.30945179e-06]","[[ 1.91799772e-06  8.31559037e-03]
 [-2.97374831e-04  1.57448931e-03]]",[],0.0,0.0
1787560302.976352,1.6483799969902562,1.4497594855380345,2.3262505601380408,"[ 1.74136400e-05  4.45702209e-07  0.00000000e+00  0.00000000e+00
  0.00000000e+00 -1.99056649e-06  4.45702209e-07  1.19137180e-05
  0.00000000e+00  0.00000000e+00  0.00000000e+00 -8.11970378e-07
  0.00000000e+00  0.00000000e+00  0.00000000e+00  0.00000000e+00
  0.00000000e+00  0.00000000e+00  0.00000000e+00  0.00000000e+00
  0.00000000e+00  0.00000000e+00  0.00000000e+00  0.00000000e+00
  0.00000000e+00  0.00000000e+00  0.00000000e+00  0.00000000e+00
  0.00000000e+00  0.00000000e+00 -1.99056649e-06 -8.11970378e-07
  0.00000000e+00  0.00000000e+00  0.00000000e+00  4.30945179e-06]","[[ 1.91799772e-06  8.31559037e-03]
 [-2.97374831e-04  1.57448931e-03]]",[],0.0,0.0
1787560303.041312,1.6483799969902562,1.4497594855380345,2.3262505601380408,"[ 1.74136400e-05  4.45702209e-07  0.00000000e+00  0.00000000e+00
  0.00000000e+00 -1.99056649e-06  4.45702209e-07  1.19137180e-05
  0.00000000e+00  0.00000000e+00  0.00000000e+00 -8.11970378e-07
  0.00000000e+00  0.00000000e+00  0.00000000e+00  0.00000000e+00
  0.00000000e+00  0.00000000e+00  0.00000000e+00  0.00000000e+00
  0.00000000e+00  0.00000000e+00  0.00000000e+00  0.00000000e+00
  0.00000000e+00  0.00000000e+00  0.00000000e+00  0.00000000e+00
  0.00000000e+00  0.00000000e+00 -1.99056649e-06 -8.11970378e-07
  0.00000000e+00  0.00000000e+00  0.00000000e+00  4.30945179e-06]","[[ 1.91799772e-06  8.31559037e-03]
 [-2.97374831e-04  1.57448931e-03]]",[],0.0,0.0
1787560303.0749323,1.6483799969902562,1.4497594855380345,2.3262505601380408,"[ 1.74136400e-05  4.45702209e-07  0.00000000e+00  0.00000000e+00
  0.00000000e+00 -1.99056649e-06  4.45702209e-07  1.19137180e-05
  0.00000000e+00  0.00000000e+00  0.00000000e+00 -8.11970378e-07
  0.00000000e+00  0.00000000e+00  0.00000000e+00  0.00000000e+00
  0.00000000e+00  0.00000000e+00  0.00000000e+00  0.00000000e+00
  0.00000000e+00  0.00000000e+00  0.00000000e+00  0.00000000e+00
  0.00000000e+00  0.00000000e+00  0.00000000e+00  0.00000000e+00
  0.00000000e+00  0.00000000e+00 -1.99056649e-06 -8.11970378e-07
  0.00000000e+00  0.00000000e+00  0.00000000e+00  4.30945179e-06]","[[ 1.91799772e-06  8.31559037e-03]
 [-2.97374831e-04  1.57448931e-03]]",[],0.0,0.0
1787560303.1422336,1.6483799969902562,1.4497594855380345,2.3262505601380408,"[ 1.74136400e-05  4.45702209e-07  0.00000000e+00  0.00000000e+00
  0.00000000e+00 -1.99056649e-06  4.45702209e-07  1.19137180e-05
  0.00000000e+00  0.00000000e+00  0.00000000e+00 -8.11970378e-07
  0.00000000e+00  0.00000000e+00  0.00000000e+00  0.00000000e+00
  0.00000000e+00  0.00000000e+00  0.00000000e+00  0.00000000e+00
  0.00000000e+00  0.00000000e+00  0.00000000e+00  0.00000000e+00
  0.00000000e+00  0.00000000e+00  0.00000000e+00  0.00000000e+00
  0.00000000e+00  0.00000000e+00 -1.99056649e-06 -8.11970378e-07
  0.00000000e+00  0.00000000e+00  0.00000000e+00  4.30945179e-06]","[[ 1.91799772e-06  8.31559037e-03]
 [-2.97374831e-04  1.57448931e-03]]",[],0.0,0.0
1787560303.2011297,1.666144388106064,1.4403969182528005,2.3597817530979626,"[ 1.42053948e-05  3.97943551e-07  0.00000000e+00  0.00000000e+00
  0.00000000e+00 -1.57677289e-06  3.97943551e-07  9.45247289e-06
  0.00000000e+00  0.00000000e+00  0.00000000e+00 -7.52501188e-07
  0.00000000e+00  0.00000000e+00  0.00000000e+00  0.00000000e+00
  0.00000000e+00  0.00000000e+00  0.00000000e+00  0.00000000e+00
  0.00000000e+00  0.00000000e+00  0.00000000e+00  0.00000000e+00
  0.00000000e+00  0.00000000e+00  0.00000000e+00  0.00000000e+00
  0.00000000e+00  0.00000000e+00 -1.57677289e-06 -7.52501188e-07
  0.00000000e+00  0.00000000e+00  0.00000000e+00  3.95781754e-06]","[[ 1.84590397e-06  6.69157263e-03]
 [-2.35851330e-04  1.44908542e-03]]",[],0.0,0.0
1787560303.237055,1.666144388106064,1.4403969182528005,2.3597817530979626,"[ 1.42053948e-05  3.97943551e-07  0.00000000e+00  0.00000000e+00
  0.00000000e+00 -1.57677289e-06  3.97943551e-07  9.45247289e-06
  0.00000000e+00  0.00000000e+00  0.00000000e+00 -7.52501188e-07
  0.00000000e+00  0.00000000e+00  0.00000000e+00  0.00000000e+00
  0.00000000e+00  0.00000000e+00  0.00000000e+00  0.00000000e+00
  0.00000000e+00  0.00000000e+00  0.00000000e+00  0.00000000e+00
  0.00000000e+00  0.00000000e+00  0.00000000e+00  0.00000000e+00
  0.00000000e+00  0.00000000e+00 -1.57677289e-06 -7.52501188e-07
  0.00000000e+00  0.00000000e+00  0.00000000e+00  3.95781754e-06]","[[ 1.84590397e-06  6.69157263e-03]
 [-2.35851330e-04  1.44908542e-03]]",[],0.0,0.0
1787560303.2776558,1.666144388106064,1.4403969182528005,2.3597817530979626,"[ 1.42053948e-05  3.97943551e-07  0.00000000e+00  0.00000000e+00
  0.00000000e+00 -1.57677289e-06  3.97943551e-07  9.45247289e-06
  0.00000000e+00  0.00000000e+00  0.00000000e+00 -7.52501188e-07
  0.00000000e+00  0.00000000e+00  0.00000000e+00  0.00000000e+00
  0.00000000e+00  0.00000000e+00  0.00000000e+00  0.00000000e+00
  0.00000000e+00  0.00000000e+00  0.00000000e+00  0.00000000e+00
  0.00000000e+00  0.00000000e+00  0.00000000e+00  0.00000000e+00
  0.00000000e+00  0.00000000e+00 -1.57677289e-06 -7.52501188e-07
  0.00000000e+00  0.00000000e+00  0.00000000e+00  3.95781754e-06]","[[ 1.84590397e-06  6.69157263e-03]
 [-2.35851330e-04  1.44908542e-03]]",[],0.0,0.0
1787560303.3254967,1.666144388106064,1.4403969182528005,2.3597817530979626,"[ 1.42053948e-05  3.97943551e-07  0.00000000e+00  0.00000000e+00
  0.00000000e+00 -1.57677289e-06  3.97943551e-07  9.45247289e-06
  0.00000000e+00  0.00000000e+00  0.00000000e+00 -7.52501188e-07
  0.00000000e+00  0.00000000e+00  0.00000000e+00  0.00000000e+00
  0.00000000e+00  0.00000000e+00  0.00000000e+00  0.00000000e+00
  0.00000000e+00  0.00000000e+00  0.00000000e+00  0.00000000e+00
  0.00000000e+00  0.00000000e+00  0.00000000e+00  0.00000000e+00
  0.00000000e+00  0.00000000e+00 -1.57677289e-06 -7.52501188e-07
  0.00000000e+00  0.00000000e+00  0.00000000e+00  3.95781754e-06]","[[ 1.84590397e-06  6.69157263e-03]
 [-2.35851330e-04  1.44908542e-03]]",[],0.0,0.0
1787560303.3833992,1.666144388106064,1.4403969182528005,2.3597817530979626,"[ 1.42053948e-05  3.97943551e-07  0.00000000e+00  0.00000000e+00
  0.00000000e+00 -1.57677289e-06  3.97943551e-07  9.45247289e-06
  0.00000000e+00  0.00000000e+00  0.00000000e+00 -7.52501188e-07
  0.00000000e+00  0.00000000e+00  0.00000000e+00  0.00000000e+00
  0.00000000e+00  0.00000000e+00  0.00000000e+00  0.00000000e+00
  0.00000000e+00  0.00000000e+00  0.00000000e+00  0.00000000e+00
  0.00000000e+00  0.00000000e+00  0.00000000e+00  0.00000000e+00
  0.00000000e+00  0.00000000e+00 -1.57677289e-06 -7.52501188e-07
  0.00000000e+00  0.00000000e+00  0.00000000e+00  3.95781754e-06]","[[ 1.84590397e-06  6.69157263e-03]
 [-2.35851330e-04  1.44908542e-03]]",[],0.0,0.0
1787560303.4248233,1.666144388106064,1.4403969182528005,2.3597817530979626,"[ 1.42053948e-05  3.97943551e-07  0.00000000e+00  0.00000000e+00
  0.00000000e+00 -1.57677289e-06  3.97943551e-07  9.45247289e-06
  0.00000000e+00  0.00000000e+00  0.00000000e+00 -7.52501188e-07
  0.00000000e+00  0.00000000e+00  0.00000000e+00  0.00000000e+00
  0.00000000e+00  0.00000000e+00  0.00000000e+00  0.00000000e+00
  0.00000000e+00  0.00000000e+00  0.00000000e+00  0.00000000e+00
  0.00000000e+00  0.00000000e+00  0.00000000e+00  0.00000000e+00
  0.00000000e+00  0.00000000e+00 -1.57677289e-06 -7.52501188e-07
  0.00000000e+00  0.00000000e+00  0.00000000e+00  3.95781754e-06]","[[ 1.84590397e-06  6.69157263e-03]
 [-2.35851330e-04  1.44908542e-03]]",[],0.0,0.0
1787560303.4737759,1.666144388106064,1.4403969182528005,2.3597817530979626,"[ 1.42053948e-05  3.97943551e-07  0.00000000e+00  0.00000000e+00
  0.00000000e+00 -1.57677289e-06  3.97943551e-07  9.45247289e-06
  0.00000000e+00  0.00000000e+00  0.00000000e+00 -7.52501188e-07
  0.00000000e+00  0.00000000e+00  0.00000000e+00  0.00000000e+00
  0.00000000e+00  0.00000000e+00  0.00000000e+00  0.00000000e+00
  0.00000000e+00  0.00000000e+00  0.00000000e+00  0.00000000e+00
  0.00000000e+00  0.00000000e+00  0.00000000e+00  0.00000000e+00
  0.00000000e+00  0.00000000e+00 -1.57677289e-06 -7.52501188e-07
  0.00000000e+00  0.00000000e+00  0.00000000e+00  3.95781754e-06]","[[ 1.84590397e-06  6.69157263e-03]
 [-2.35851330e-04  1.44908542e-03]]",[],0.0,0.0
1787560303.5264862,1.666144388106064,1.4403969182528005,2.3597817530979626,"[ 1.42053948e-05  3.97943551e-07  0.00000000e+00  0.00000000e+00
  0.00000000e+00 -1.57677289e-06  3.97943551e-07  9.45247289e-06
  0.00000000e+00  0.00000000e+00  0.00000000e+00 -7.52501188e-07
  0.00000000e+00  0.00000000e+00  0.00000000e+00  0.00000000e+00
  0.00000000e+00  0.00000000e+00  0.00000000e+00  0.00000000e+00
  0.00000000e+00  0.00000000e+00  0.00000000e+00  0.00000000e+00
  0.00000000e+00  0.00000000e+00  0.00000000e+00  0.00000000e+00
  0.00000000e+00  0.00000000e+00 -1.57677289e-06 -7.52501188e-07
  0.00000000e+00  0.00000000e+00  0.00000000e+00  3.95781754e-06]","[[ 1.84590397e-06  6.69157263e-03]
 [-2.35851330e-04  1.44908542e-03]]",[],0.0,0.0
1787560303.5758271,1.666144388106064,1.4403969182528005,2.3597817530979626,"[ 1.42053948e-05  3.97943551e-07  0.00000000e+00  0.00000000e+00
  0.00000000e+00 -1.57677289e-06  3.97943551e-07  9.45247289e-06
  0.00000000e+00  0.00000000e+00  0.00000000e+00 -7.52501188e-07
  0.00000000e+00  0.00000000e+00  0.00000000e+00  0.00000000e+00
  0.00000000e+00  0.00000000e+00  0.00000000e+00  0.00000000e+00
  0.00000000e+00  0.00000000e+00  0.00000000e+00  0.00000000e+00
  0.00000000e+00  0.00000000e+00  0.00000000e+00  0.00000000e+00
  0.00000000e+00  0.00000000e+00 -1.57677289e-06 -7.52501188e-07
  0.00000000e+00  0.00000000e+00  0.00000000e+00  3.95781754e-06]","[[ 1.84590397e-06  6.69157263e-03]
 [-2.35851330e-04  1.44908542e-03]]",[],0.0,0.0
1787560303.6249692,1.666144388106064,1.4403969182528005,2.3597817530979626,"[ 1.42053948e-05  3.97943551e-07  0.00000000e+00  0.00000000e+00
  0.00000000e+00 -1.57677289e-06  3.97943551e-07  9.45247289e-06
  0.00000000e+00  0.00000000e+00  0.00000000e+00 -7.52501188e-07
  0.00000000e+00  0.00000000e+00  0.00000000e+00  0.00000000e+00
  0.00000000e+00  0.00000000e+00  0.00000000e+00  0.00000000e+00
  0.00000000e+00  0.00000000e+00  0.00000000e+00  0.00000000e+00
  0.00000000e+00  0.00000000e+00  0.00000000e+00  0.00000000e+00
  0.00000000e+00  0.00000000e+00 -1.57677289e-06 -7.52501188e-07
  0.00000000e+00  0.00000000e+00  0.00000000e+00  3.95781754e-06]","[[ 1.84590397e-06  6.69157263e-03]
 [-2.35851330e-04  1.44908542e-03]]",[],0.0,0.0
1787560303.674613,1.666144388106064,1.4403969182528005,2.3597817530979626,"[ 1.42053948e-05  3.97943551e-07  0.00000000e+00  0.00000000e+00
  0.00000000e+00 -1.57677289e-06  3.97943551e-07  9.45247289e-06
  0.00000000e+00  0.00000000e+00  0.00000000e+00 -7.52501188e-07
  0.00000000e+00  0.00000000e+00  0.00000000e+00  0.00000000e+00
  0.00000000e+00  0.00000000e+00  0.00000000e+00  0.00000000e+00
  0.00000000e+00  0.00000000e+00  0.00000000e+00  0.00000000e+00
  0.00000000e+00  0.00000000e+00  0.00000000e+00  0.00000000e+00
  0.00000000e+00  0.00000000e+00 -1.57677289e-06 -7.52501188e-07
  0.00000000e+00  0.00000000e+00  0.00000000e+00  3.95781754e-06]","[[ 1.84590397e-06  6.69157263e-03]
 [-2.35851330e-04  1.44908542e-03]]",[],0.0,0.0
1787560303.72568,1.666144388106064,1.4403969182528005,2.3597817530979626,"[ 1.42053948e-05  3.97943551e-07  0.00000000e+00  0.00000000e+00
  0.00000000e+00 -1.57677289e-06  3.97943551e-07  9.45247289e-06
  0.00000000e+00  0.00000000e+00  0.00000000e+00 -7.52501188e-07
  0.00000000e+00  0.00000000e+00  0.00000000e+00  0.00000000e+00
  0.00000000e+00  0.00000000e+00  0.00000000e+00  0.00000000e+00
  0.00000000e+00  0.00000000e+00  0.00000000e+00  0.00000000e+00
  0.00000000e+00  0.00000000e+00  0.00000000e+00  0.00000000e+00
  0.00000000e+00  0.00000000e+00 -1.57677289e-06 -7.52501188e-07
  0.00000000e+00  0.00000000e+00  0.00000000e+00  3.95781754e-06]","[[ 1.84590397e-06  6.69157263e-03]
 [-2.35851330e-04  1.44908542e-03]]",[],0.0,0.0
1787560303.774793,1.666144388106064,1.4403969182528005,2.3597817530979626,"[ 1.42053948e-05  3.97943551e-07  0.00000000e+00  0.00000000e+00
  0.00000000e+00 -1.57677289e-06  3.97943551e-07  9.45247289e-06
  0.00000000e+00  0.00000000e+00  0.00000000e+00 -7.52501188e-07
  0.00000000e+00  0.00000000e+00  0.00000000e+00  0.00000000e+00
  0.00000000e+00  0.00000000e+00  0.00000000e+00  0.00000000e+00
  0.00000000e+00  0.00000000e+00  0.00000000e+00  0.00000000e+00
  0.00000000e+00  0.00000000e+00  0.00000000e+00  0.00000000e+00
  0.00000000e+00  0.00000000e+00 -1.57677289e-06 -7.52501188e-07
  0.00000000e+00  0.00000000e+00  0.00000000e+00  3.95781754e-06]","[[ 1.84590397e-06  6.69157263e-03]
 [-2.35851330e-04  1.44908542e-03]]",[],0.0,0.0
1787560303.8275378,1.666144388106064,1.4403969182528005,2.3597817530979626,"[ 1.42053948e-05  3.97943551e-07  0.00000000e+00  0.00000000e+00
  0.00000000e+00 -1.57677289e-06  3.97943551e-07  9.45247289e-06
  0.00000000e+00  0.00000000e+00  0.00000000e+00 -7.52501188e-07
  0.00000000e+00  0.00000000e+00  0.00000000e+00  0.00000000e+00
  0.00000000e+00  0.00000000e+00  0.00000000e+00  0.00000000e+00
  0.00000000e+00  0.00000000e+00  0.00000000e+00  0.00000000e+00
  0.00000000e+00  0.00000000e+00  0.00000000e+00  0.00000000e+00
  0.00000000e+00  0.00000000e+00 -1.57677289e-06 -7.52501188e-07
  0.00000000e+00  0.00000000e+00  0.00000000e+00  3.95781754e-06]","[[ 1.84590397e-06  6.69157263e-03]
 [-2.35851330e-04  1.44908542e-03]]",[],0.0,0.0
1787560303.8826077,1.666144388106064,1.4403969182528005,2.3597817530979626,"[ 1.42053948e-05  3.97943551e-07  0.00000000e+00  0.00000000e+00
  0.00000000e+00 -1.57677289e-06  3.97943551e-07  9.45247289e-06
  0.00000000e+00  0.00000000e+00  0.00000000e+00 -7.52501188e-07
  0.00000000e+00  0.00000000e+00  0.00000000e+00  0.00000000e+00
  0.00000000e+00  0.00000000e+00  0.00000000e+00  0.00000000e+00
  0.00000000e+00  0.00000000e+00  0.00000000e+00  0.00000000e+00
  0.00000000e+00  0.00000000e+00  0.00000000e+00  0.00000000e+00
  0.00000000e+00  0.00000000e+00 -1.57677289e-06 -7.52501188e-07
  0.00000000e+00  0.00000000e+00  0.00000000e+00  3.95781754e-06]","[[ 1.84590397e-06  6.69157263e-03]
 [-2.35851330e-04  1.44908542e-03]]",[],0.0,0.0
1787560303.9269924,1.666144388106064,1.4403969182528005,2.3597817530979626,"[ 1.42053948e-05  3.97943551e-07  0.00000000e+00  0.00000000e+00
  0.00000000e+00 -1.57677289e-06  3.97943551e-07  9.45247289e-06
  0.00000000e+00  0.00000000e+00  0.00000000e+00 -7.52501188e-07
  0.00000000e+00  0.00000000e+00  0.00000000e+00  0.00000000e+00
  0.00000000e+00  0.00000000e+00  0.00000000e+00  0.00000000e+00
  0.00000000e+00  0.00000000e+00  0.00000000e+00  0.00000000e+00
  0.00000000e+00  0.00000000e+00  0.00000000e+00  0.00000000e+00
  0.00000000e+00  0.00000000e+00 -1.57677289e-06 -7.52501188e-07
  0.00000000e+00  0.00000000e+00  0.00000000e+00  3.95781754e-06]","[[ 1.84590397e-06  6.69157263e-03]
 [-2.35851330e-04  1.44908542e-03]]",[],0.0,0.0
1787560303.9762046,1.6859537605267354,1.4322134754479012,2.3930780040094817,"[ 1.17074911e-05  3.40122980e-07  0.00000000e+00  0.00000000e+00
  0.00000000e+00 -1.34582488e-06  3.40122980e-07  8.01010690e-06
  0.00000000e+00  0.00000000e+00  0.00000000e+00 -6.15063997e-07
  0.00000000e+00  0.00000000e+00  0.00000000e+00  0.00000000e+00
  0.00000000e+00  0.00000000e+00  0.00000000e+00  0.00000000e+00
  0.00000000e+00  0.00000000e+00  0.00000000e+00  0.00000000e+00
  0.00000000e+00  0.00000000e+00  0.00000000e+00  0.00000000e+00
  0.00000000e+00  0.00000000e+00 -1.34582488e-06 -6.15063997e-07
  0.00000000e+00  0.00000000e+00  0.00000000e+00  3.82876678e-06]","[[ 2.10347871e-06  5.58575412e-03]
 [-1.99813302e-04  1.19803729e-03]]",[],0.0,0.0
1787560304.0247476,1.6859537605267354,1.4322134754479012,2.3930780040094817,"[ 1.17074911e-05  3.40122980e-07  0.00000000e+00  0.00000000e+00
  0.00000000e+00 -1.34582488e-06  3.40122980e-07  8.01010690e-06
  0.00000000e+00  0.00000000e+00  0.00000000e+00 -6.15063997e-07
  0.00000000e+00  0.00000000e+00  0.00000000e+00  0.00000000e+00
  0.00000000e+00  0.00000000e+00  0.00000000e+00  0.00000000e+00
  0.00000000e+00  0.00000000e+00  0.00000000e+00  0.00000000e+00
  0.00000000e+00  0.00000000e+00  0.00000000e+00  0.00000000e+00
  0.00000000e+00  0.00000000e+00 -1.34582488e-06 -6.15063997e-07
  0.00000000e+00  0.00000000e+00  0.00000000e+00  3.82876678e-06]","[[ 2.10347871e-06  5.58575412e-03]
 [-1.99813302e-04  1.19803729e-03]]",[],0.0,0.0
1787560304.0753164,1.6859537605267354,1.4322134754479012,2.3930780040094817,"[ 1.17074911e-05  3.40122980e-07  0.00000000e+00  0.00000000e+00
  0.00000000e+00 -1.34582488e-06  3.40122980e-07  8.01010690e-06
  0.00000000e+00  0.00000000e+00  0.00000000e+00 -6.15063997e-07
  0.00000000e+00  0.00000000e+00  0.00000000e+00  0.00000000e+00
  0.00000000e+00  0.00000000e+00  0.00000000e+00  0.00000000e+00
  0.00000000e+00  0.00000000e+00  0.00000000e+00  0.00000000e+00
  0.00000000e+00  0.00000000e+00  0.00000000e+00  0.00000000e+00
  0.00000000e+00  0.00000000e+00 -1.34582488e-06 -6.15063997e-07
  0.00000000e+00  0.00000000e+00  0.00000000e+00  3.82876678e-06]","[[ 2.10347871e-06  5.58575412e-03]
 [-1.99813302e-04  1.19803729e-03]]",[],0.0,0.0
1787560304.1343148,1.6859537605267354,1.4322134754479012,2.3930780040094817,"[ 1.17074911e-05  3.40122980e-07  0.00000000e+00  0.00000000e+00
  0.00000000e+00 -1.34582488e-06  3.40122980e-07  8.01010690e-06
  0.00000000e+00  0.00000000e+00  0.00000000e+00 -6.15063997e-07
  0.00000000e+00  0.00000000e+00  0.00000000e+00  0.00000000e+00
  0.00000000e+00  0.00000000e+00  0.00000000e+00  0.00000000e+00
  0.00000000e+00  0.00000000e+00  0.00000000e+00  0.00000000e+00
  0.00000000e+00  0.00000000e+00  0.00000000e+00  0.00000000e+00
  0.00000000e+00  0.00000000e+00 -1.34582488e-06 -6.15063997e-07
  0.00000000e+00  0.00000000e+00  0.00000000e+00  3.82876678e-06]","[[ 2.10347871e-06  5.58575412e-03]
 [-1.99813302e-04  1.19803729e-03]]",[],0.0,0.0
1787560304.1748488,1.6859537605267354,1.4322134754479012,2.3930780040094817,"[ 1.17074911e-05  3.40122980e-07  0.00000000e+00  0.00000000e+00
  0.00000000e+00 -1.34582488e-06  3.40122980e-07  8.01010690e-06
  0.00000000e+00  0.00000000e+00  0.00000000e+00 -6.15063997e-07
  0.00000000e+00  0.00000000e+00  0.00000000e+00  0.00000000e+00
  0.00000000e+00  0.00000000e+00  0.00000000e+00  0.00000000e+00
  0.00000000e+00  0.00000000e+00  0.00000000e+00  0.00000000e+00
  0.00000000e+00  0.00000000e+00  0.00000000e+00  0.00000000e+00
  0.00000000e+00  0.00000000e+00 -1.34582488e-06 -6.15063997e-07
  0.00000000e+00  0.00000000e+00  0.00000000e+00  3.82876678e-06]","[[ 2.10347871e-06  5.58575412e-03]
 [-1.99813302e-04  1.19803729e-03]]",[],0.0,0.0
1787560304.2241082,1.6859537605267354,1.4322134754479012,2.3930780040094817,"[ 1.17074911e-05  3.40122980e-07  0.00000000e+00  0.00000000e+00
  0.00000000e+00 -1.34582488e-06  3.40122980e-07  8.01010690e-06
  0.00000000e+00  0.00000000e+00  0.00000000e+00 -6.15063997e-07
  0.00000000e+00  0.00000000e+00  0.00000000e+00  0.00000000e+00
  0.00000000e+00  0.00000000e+00  0.00000000e+00  0.00000000e+00
  0.00000000e+00  0.00000000e+00  0.00000000e+00  0.00000000e+00
  0.00000000e+00  0.00000000e+00  0.00000000e+00  0.00000000e+00
  0.00000000e+00  0.00000000e+00 -1.34582488e-06 -6.15063997e-07
  0.00000000e+00  0.00000000e+00  0.00000000e+00  3.82876678e-06]","[[ 2.10347871e-06  5.58575412e-03]
 [-1.99813302e-04  1.19803729e-03]]",[],0.0,0.0
1787560304.2745278,1.6859537605267354,1.4322134754479012,2.3930780040094817,"[ 1.17074911e-05  3.40122980e-07  0.00000000e+00  0.00000000e+00
  0.00000000e+00 -1.34582488e-06  3.40122980e-07  8.01010690e-06
  0.00000000e+00  0.00000000e+00  0.00000000e+00 -6.15063997e-07
  0.00000000e+00  0.00000000e+00  0.00000000e+00  0.00000000e+00
  0.00000000e+00  0.00000000e+00  0.00000000e+00  0.00000000e+00
  0.00000000e+00  0.00000000e+00  0.00000000e+00  0.00000000e+00
  0.00000000e+00  0.00000000e+00  0.00000000e+00  0.00000000e+00
  0.00000000e+00  0.00000000e+00 -1.34582488e-06 -6.15063997e-07
  0.00000000e+00  0.00000000e+00  0.00000000e+00  3.82876678e-06]","[[ 2.10347871e-06  5.58575412e-03]
 [-1.99813302e-04  1.19803729e-03]]",[],0.0,0.0
1787560304.3243454,1.6859537605267354,1.4322134754479012,2.3930780040094817,"[ 1.17074911e-05  3.40122980e-07  0.00000000e+00  0.00000000e+00
  0.00000000e+00 -1.34582488e-06  3.40122980e-07  8.01010690e-06
  0.00000000e+00  0.00000000e+00  0.00000000e+00 -6.15063997e-07
  0.00000000e+00  0.00000000e+00  0.00000000e+00  0.00000000e+00
  0.00000000e+00  0.00000000e+00  0.00000000e+00  0.00000000e+00
  0.00000000e+00  0.00000000e+00  0.00000000e+00  0.00000000e+00
  0.00000000e+00  0.00000000e+00  0.00000000e+00  0.00000000e+00
  0.00000000e+00  0.00000000e+00 -1.34582488e-06 -6.15063997e-07
  0.00000000e+00  0.00000000e+00  0.00000000e+00  3.82876678e-06]","[[ 2.10347871e-06  5.58575412e-03]
 [-1.99813302e-04  1.19803729e-03]]",[],0.0,0.0
1787560304.3837783,1.6859537605267354,1.4322134754479012,2.3930780040094817,"[ 1.17074911e-05  3.40122980e-07  0.00000000e+00  0.00000000e+00
  0.00000000e+00 -1.34582488e-06  3.40122980e-07  8.01010690e-06
  0.00000000e+00  0.00000000e+00  0.00000000e+00 -6.15063997e-07
  0.00000000e+00  0.00000000e+00  0.00000000e+00  0.00000000e+00
  0.00000000e+00  0.00000000e+00  0.00000000e+00  0.00000000e+00
  0.00000000e+00  0.00000000e+00  0.00000000e+00  0.00000000e+00
  0.00000000e+00  0.00000000e+00  0.00000000e+00  0.00000000e+00
  0.00000000e+00  0.00000000e+00 -1.34582488e-06 -6.15063997e-07
  0.00000000e+00  0.00000000e+00  0.00000000e+00  3.82876678e-06]","[[ 2.10347871e-06  5.58575412e-03]
 [-1.99813302e-04  1.19803729e-03]]",[],0.0,0.0
1787560304.4253707,1.6859537605267354,1.4322134754479012,2.3930780040094817,"[ 1.17074911e-05  3.40122980e-07  0.00000000e+00  0.00000000e+00
  0.00000000e+00 -1.34582488e-06  3.40122980e-07  8.01010690e-06
  0.00000000e+00  0.00000000e+00  0.00000000e+00 -6.15063997e-07
  0.00000000e+00  0.00000000e+00  0.00000000e+00  0.00000000e+00
  0.00000000e+00  0.00000000e+00  0.00000000e+00  0.00000000e+00
  0.00000000e+00  0.00000000e+00  0.00000000e+00  0.00000000e+00
  0.00000000e+00  0.00000000e+00  0.00000000e+00  0.00000000e+00
  0.00000000e+00  0.00000000e+00 -1.34582488e-06 -6.15063997e-07
  0.00000000e+00  0.00000000e+00  0.00000000e+00  3.82876678e-06]","[[ 2.10347871e-06  5.58575412e-03]
 [-1.99813302e-04  1.19803729e-03]]",[],0.0,0.0
1787560304.4747283,1.6859537605267354,1.4322134754479012,2.3930780040094817,"[ 1.17074911e-05  3.40122980e-07  0.00000000e+00  0.00000000e+00
  0.00000000e+00 -1.34582488e-06  3.40122980e-07  8.01010690e-06
  0.00000000e+00  0.00000000e+00  0.00000000e+00 -6.15063997e-07
  0.00000000e+00  0.00000000e+00  0.00000000e+00  0.00000000e+00
  0.00000000e+00  0.00000000e+00  0.00000000e+00  0.00000000e+00
  0.00000000e+00  0.00000000e+00  0.00000000e+00  0.00000000e+00
  0.00000000e+00  0.00000000e+00  0.00000000e+00  0.00000000e+00
  0.00000000e+00  0.00000000e+00 -1.34582488e-06 -6.15063997e-07
  0.00000000e+00  0.00000000e+00  0.00000000e+00  3.82876678e-06]","[[ 2.10347871e-06  5.58575412e-03]
 [-1.99813302e-04  1.19803729e-03]]",[],0.0,0.0
1787560304.5247247,1.6859537605267354,1.4322134754479012,2.3930780040094817,"[ 1.17074911e-05  3.40122980e-07  0.00000000e+00  0.00000000e+00
  0.00000000e+00 -1.34582488e-06  3.40122980e-07  8.01010690e-06
  0.00000000e+00  0.00000000e+00  0.00000000e+00 -6.15063997e-07
  0.00000000e+00  0.00000000e+00  0.00000000e+00  0.00000000e+00
  0.00000000e+00  0.00000000e+00  0.00000000e+00  0.00000000e+00
  0.00000000e+00  0.00000000e+00  0.00000000e+00  0.00000000e+00
  0.00000000e+00  0.00000000e+00  0.00000000e+00  0.00000000e+00
  0.00000000e+00  0.00000000e+00 -1.34582488e-06 -6.15063997e-07
  0.00000000e+00  0.00000000e+00  0.00000000e+00  3.82876678e-06]","[[ 2.10347871e-06  5.58575412e-03]
 [-1.99813302e-04  1.19803729e-03]]",[],0.0,0.0
1787560304.5867927,1.6859537605267354,1.4322134754479012,2.3930780040094817,"[ 1.17074911e-05  3.40122980e-07  0.00000000e+00  0.00000000e+00
  0.00000000e+00 -1.34582488e-06  3.40122980e-07  8.01010690e-06
  0.00000000e+00  0.00000000e+00  0.00000000e+00 -6.15063997e-07
  0.00000000e+00  0.00000000e+00  0.00000000e+00  0.00000000e+00
  0.00000000e+00  0.00000000e+00  0.00000000e+00  0.00000000e+00
  0.00000000e+00  0.00000000e+00  0.00000000e+00  0.00000000e+00
  0.00000000e+00  0.00000000e+00  0.00000000e+00  0.00000000e+00
  0.00000000e+00  0.00000000e+00 -1.34582488e-06 -6.15063997e-07
  0.00000000e+00  0.00000000e+00  0.00000000e+00  3.82876678e-06]","[[ 2.10347871e-06  5.58575412e-03]
 [-1.99813302e-04  1.19803729e-03]]",[],0.0,0.0
1787560304.6242466,1.6859537605267354,1.4322134754479012,2.3930780040094817,"[ 1.17074911e-05  3.40122980e-07  0.00000000e+00  0.00000000e+00
  0.00000000e+00 -1.34582488e-06  3.40122980e-07  8.01010690e-06
  0.00000000e+00  0.00000000e+00  0.00000000e+00 -6.15063997e-07
  0.00000000e+00  0.00000000e+00  0.00000000e+00  0.00000000e+00
  0.00000000e+00  0.00000000e+00  0.00000000e+00  0.00000000e+00
  0.00000000e+00  0.00000000e+00  0.00000000e+00  0.00000000e+00
  0.00000000e+00  0.00000000e+00  0.00000000e+00  0.00000000e+00
  0.00000000e+00  0.00000000e+00 -1.34582488e-06 -6.15063997e-07
  0.00000000e+00  0.00000000e+00  0.00000000e+00  3.82876678e-06]","[[ 2.10347871e-06  5.58575412e-03]
 [-1.99813302e-04  1.19803729e-03]]",[],0.0,0.0
1787560304.6746204,1.6859537605267354,1.4322134754479012,2.3930780040094817,"[ 1.17074911e-05  3.40122980e-07  0.00000000e+00  0.00000000e+00
  0.00000000e+00 -1.34582488e-06  3.40122980e-07  8.01010690e-06
  0.00000000e+00  0.00000000e+00  0.00000000e+00 -6.15063997e-07
  0.00000000e+00  0.00000000e+00  0.00000000e+00  0.00000000e+00
  0.00000000e+00  0.00000000e+00  0.00000000e+00  0.00000000e+00
  0.00000000e+00  0.00000000e+00  0.00000000e+00  0.00000000e+00
  0.00000000e+00  0.00000000e+00  0.00000000e+00  0.00000000e+00
  0.00000000e+00  0.00000000e+00 -1.34582488e-06 -6.15063997e-07
  0.00000000e+00  0.00000000e+00  0.00000000e+00  3.82876678e-06]","[[ 2.10347871e-06  5.58575412e-03]
 [-1.99813302e-04  1.19803729e-03]]",[],0.0,0.0
1787560304.7296216,1.6859537605267354,1.4322134754479012,2.3930780040094817,"[ 1.17074911e-05  3.40122980e-07  0.00000000e+00  0.00000000e+00
  0.00000000e+00 -1.34582488e-06  3.40122980e-07  8.01010690e-06
  0.00000000e+00  0.00000000e+00  0.00000000e+00 -6.15063997e-07
  0.00000000e+00  0.00000000e+00  0.00000000e+00  0.00000000e+00
  0.00000000e+00  0.00000000e+00  0.00000000e+00  0.00000000e+00
  0.00000000e+00  0.00000000e+00  0.00000000e+00  0.00000000e+00
  0.00000000e+00  0.00000000e+00  0.00000000e+00  0.00000000e+00
  0.00000000e+00  0.00000000e+00 -1.34582488e-06 -6.15063997e-07
  0.00000000e+00  0.00000000e+00  0.00000000e+00  3.82876678e-06]","[[ 2.10347871e-06  5.58575412e-03]
 [-1.99813302e-04  1.19803729e-03]]",[],0.0,0.0
1787560304.7754614,1.6995311873652315,1.4231682191392236,2.4236528188805293,"[ 1.00628480e-05  2.41203339e-07  0.00000000e+00  0.00000000e+00
  0.00000000e+00 -9.48000718e-07  2.41203339e-07  6.75480638e-06
  0.00000000e+00  0.00000000e+00  0.00000000e+00 -4.81578324e-07
  0.00000000e+00  0.00000000e+00  0.00000000e+00  0.00000000e+00
  0.00000000e+00  0.00000000e+00  0.00000000e+00  0.00000000e+00
  0.00000000e+00  0.00000000e+00  0.00000000e+00  0.00000000e+00
  0.00000000e+00  0.00000000e+00  0.00000000e+00  0.00000000e+00
  0.00000000e+00  0.00000000e+00 -9.48000718e-07 -4.81578324e-07
  0.00000000e+00  0.00000000e+00  0.00000000e+00  3.57046113e-06]","[[ 2.20295014e-04  4.28748627e-03]
 [-7.27108670e-05  4.20692944e-03]]",[],0.0,0.0
1787560304.8239207,1.6995311873652315,1.4231682191392236,2.4236528188805293,"[ 1.00628480e-05  2.41203339e-07  0.00000000e+00  0.00000000e+00
  0.00000000e+00 -9.48000718e-07  2.41203339e-07  6.75480638e-06
  0.00000000e+00  0.00000000e+00  0.00000000e+00 -4.81578324e-07
  0.00000000e+00  0.00000000e+00  0.00000000e+00  0.00000000e+00
  0.00000000e+00  0.00000000e+00  0.00000000e+00  0.00000000e+00
  0.00000000e+00  0.00000000e+00  0.00000000e+00  0.00000000e+00
  0.00000000e+00  0.00000000e+00  0.00000000e+00  0.00000000e+00
  0.00000000e+00  0.00000000e+00 -9.48000718e-07 -4.81578324e-07
  0.00000000e+00  0.00000000e+00  0.00000000e+00  3.57046113e-06]","[[ 2.20295014e-04  4.28748627e-03]
 [-7.27108670e-05  4.20692944e-03]]",[],0.0,0.0
1787560304.8785782,1.6995311873652315,1.4231682191392236,2.4236528188805293,"[ 1.00628480e-05  2.41203339e-07  0.00000000e+00  0.00000000e+00
  0.00000000e+00 -9.48000718e-07  2.41203339e-07  6.75480638e-06
  0.00000000e+00  0.00000000e+00  0.00000000e+00 -4.81578324e-07
  0.00000000e+00  0.00000000e+00  0.00000000e+00  0.00000000e+00
  0.00000000e+00  0.00000000e+00  0.00000000e+00  0.00000000e+00
  0.00000000e+00  0.00000000e+00  0.00000000e+00  0.00000000e+00
  0.00000000e+00  0.00000000e+00  0.00000000e+00  0.00000000e+00
  0.00000000e+00  0.00000000e+00 -9.48000718e-07 -4.81578324e-07
  0.00000000e+00  0.00000000e+00  0.00000000e+00  3.57046113e-06]","[[ 2.20295014e-04  4.28748627e-03]
 [-7.27108670e-05  4.20692944e-03]]",[],0.0,0.0
1787560304.9245825,1.6995311873652315,1.4231682191392236,2.4236528188805293,"[ 1.00628480e-05  2.41203339e-07  0.00000000e+00  0.00000000e+00
  0.00000000e+00 -9.48000718e-07  2.41203339e-07  6.75480638e-06
  0.00000000e+00  0.00000000e+00  0.00000000e+00 -4.81578324e-07
  0.00000000e+00  0.00000000e+00  0.00000000e+00  0.00000000e+00
  0.00000000e+00  0.00000000e+00  0.00000000e+00  0.00000000e+00
  0.00000000e+00  0.00000000e+00  0.00000000e+00  0.00000000e+00
  0.00000000e+00  0.00000000e+00  0.00000000e+00  0.00000000e+00
  0.00000000e+00  0.00000000e+00 -9.48000718e-07 -4.81578324e-07
  0.00000000e+00  0.00000000e+00  0.00000000e+00  3.57046113e-06]","[[ 2.20295014e-04  4.28748627e-03]
 [-7.27108670e-05  4.20692944e-03]]",[],0.0,0.0
1787560304.9788022,1.6995311873652315,1.4231682191392236,2.4236528188805293,"[ 1.00628480e-05  2.41203339e-07  0.00000000e+00  0.00000000e+00
  0.00000000e+00 -9.48000718e-07  2.41203339e-07  6.75480638e-06
  0.00000000e+00  0.00000000e+00  0.00000000e+00 -4.81578324e-07
  0.00000000e+00  0.00000000e+00  0.00000000e+00  0.00000000e+00
  0.00000000e+00  0.00000000e+00  0.00000000e+00  0.00000000e+00
  0.00000000e+00  0.00000000e+00  0.00000000e+00  0.00000000e+00
  0.00000000e+00  0.00000000e+00  0.00000000e+00  0.00000000e+00
  0.00000000e+00  0.00000000e+00 -9.48000718e-07 -4.81578324e-07
  0.00000000e+00  0.00000000e+00  0.00000000e+00  3.57046113e-06]","[[ 2.20295014e-04  4.28748627e-03]
 [-7.27108670e-05  4.20692944e-03]]",[],0.0,0.0
1787560305.0285952,1.6995311873652315,1.4231682191392236,2.4236528188805293,"[ 1.00628480e-05  2.41203339e-07  0.00000000e+00  0.00000000e+00
  0.00000000e+00 -9.48000718e-07  2.41203339e-07  6.75480638e-06
  0.00000000e+00  0.00000000e+00  0.00000000e+00 -4.81578324e-07
  0.00000000e+00  0.00000000e+00  0.00000000e+00  0.00000000e+00
  0.00000000e+00  0.00000000e+00  0.00000000e+00  0.00000000e+00
  0.00000000e+00  0.00000000e+00  0.00000000e+00  0.00000000e+00
  0.00000000e+00  0.00000000e+00  0.00000000e+00  0.00000000e+00
  0.00000000e+00  0.00000000e+00 -9.48000718e-07 -4.81578324e-07
  0.00000000e+00  0.00000000e+00  0.00000000e+00  3.57046113e-06]","[[ 2.20295014e-04  4.28748627e-03]
 [-7.27108670e-05  4.20692944e-03]]",[],0.0,0.0
1787560305.0741518,1.6995311873652315,1.4231682191392236,2.4236528188805293,"[ 1.00628480e-05  2.41203339e-07  0.00000000e+00  0.00000000e+00
  0.00000000e+00 -9.48000718e-07  2.41203339e-07  6.75480638e-06
  0.00000000e+00  0.00000000e+00  0.00000000e+00 -4.81578324e-07
  0.00000000e+00  0.00000000e+00  0.00000000e+00  0.00000000e+00
  0.00000000e+00  0.00000000e+00  0.00000000e+00  0.00000000e+00
  0.00000000e+00  0.00000000e+00  0.00000000e+00  0.00000000e+00
  0.00000000e+00  0.00000000e+00  0.00000000e+00  0.00000000e+00
  0.00000000e+00  0.00000000e+00 -9.48000718e-07 -4.81578324e-07
  0.00000000e+00  0.00000000e+00  0.00000000e+00  3.57046113e-06]","[[ 2.20295014e-04  4.28748627e-03]
 [-7.27108670e-05  4.20692944e-03]]",[],0.0,0.0
1787560305.1246767,1.6995311873652315,1.4231682191392236,2.4236528188805293,"[ 1.00628480e-05  2.41203339e-07  0.00000000e+00  0.00000000e+00
  0.00000000e+00 -9.48000718e-07  2.41203339e-07  6.75480638e-06
  0.00000000e+00  0.00000000e+00  0.00000000e+00 -4.81578324e-07
  0.00000000e+00  0.00000000e+00  0.00000000e+00  0.00000000e+00
  0.00000000e+00  0.00000000e+00  0.00000000e+00  0.00000000e+00
  0.00000000e+00  0.00000000e+00  0.00000000e+00  0.00000000e+00
  0.00000000e+00  0.00000000e+00  0.00000000e+00  0.00000000e+00
  0.00000000e+00  0.00000000e+00 -9.48000718e-07 -4.81578324e-07
  0.00000000e+00  0.00000000e+00  0.00000000e+00  3.57046113e-06]","[[ 2.20295014e-04  4.28748627e-03]
 [-7.27108670e-05  4.20692944e-03]]",[],0.0,0.0
1787560305.1825826,1.6995311873652315,1.4231682191392236,2.4236528188805293,"[ 1.00628480e-05  2.41203339e-07  0.00000000e+00  0.00000000e+00
  0.00000000e+00 -9.48000718e-07  2.41203339e-07  6.75480638e-06
  0.00000000e+00  0.00000000e+00  0.00000000e+00 -4.81578324e-07
  0.00000000e+00  0.00000000e+00  0.00000000e+00  0.00000000e+00
  0.00000000e+00  0.00000000e+00  0.00000000e+00  0.00000000e+00
  0.00000000e+00  0.00000000e+00  0.00000000e+00  0.00000000e+00
  0.00000000e+00  0.00000000e+00  0.00000000e+00  0.00000000e+00
  0.00000000e+00  0.00000000e+00 -9.48000718e-07 -4.81578324e-07
  0.00000000e+00  0.00000000e+00  0.00000000e+00  3.57046113e-06]","[[ 2.20295014e-04  4.28748627e-03]
 [-7.27108670e-05  4.20692944e-03]]",[],0.0,0.0
1787560305.2242846,1.6995311873652315,1.4231682191392236,2.4236528188805293,"[ 1.00628480e-05  2.41203339e-07  0.00000000e+00  0.00000000e+00
  0.00000000e+00 -9.48000718e-07  2.41203339e-07  6.75480638e-06
  0.00000000e+00  0.00000000e+00  0.00000000e+00 -4.81578324e-07
  0.00000000e+00  0.00000000e+00  0.00000000e+00  0.00000000e+00
  0.00000000e+00  0.00000000e+00  0.00000000e+00  0.00000000e+00
  0.00000000e+00  0.00000000e+00  0.00000000e+00  0.00000000e+00
  0.00000000e+00  0.00000000e+00  0.00000000e+00  0.00000000e+00
  0.00000000e+00  0.00000000e+00 -9.48000718e-07 -4.81578324e-07
  0.00000000e+00  0.00000000e+00  0.00000000e+00  3.57046113e-06]","[[ 2.20295014e-04  4.28748627e-03]
 [-7.27108670e-05  4.20692944e-03]]",[],0.0,0.0
1787560305.2763793,1.6995311873652315,1.4231682191392236,2.4236528188805293,"[ 1.00628480e-05  2.41203339e-07  0.00000000e+00  0.00000000e+00
  0.00000000e+00 -9.48000718e-07  2.41203339e-07  6.75480638e-06
  0.00000000e+00  0.00000000e+00  0.00000000e+00 -4.81578324e-07
  0.00000000e+00  0.00000000e+00  0.00000000e+00  0.00000000e+00
  0.00000000e+00  0.00000000e+00  0.00000000e+00  0.00000000e+00
  0.00000000e+00  0.00000000e+00  0.00000000e+00  0.00000000e+00
  0.00000000e+00  0.00000000e+00  0.00000000e+00  0.00000000e+00
  0.00000000e+00  0.00000000e+00 -9.48000718e-07 -4.81578324e-07
  0.00000000e+00  0.00000000e+00  0.00000000e+00  3.57046113e-06]","[[ 2.20295014e-04  4.28748627e-03]
 [-7.27108670e-05  4.20692944e-03]]",[],0.0,0.0
1787560305.3261123,1.6995311873652315,1.4231682191392236,2.4236528188805293,"[ 1.00628480e-05  2.41203339e-07  0.00000000e+00  0.00000000e+00
  0.00000000e+00 -9.48000718e-07  2.41203339e-07  6.75480638e-06
  0.00000000e+00  0.00000000e+00  0.00000000e+00 -4.81578324e-07
  0.00000000e+00  0.00000000e+00  0.00000000e+00  0.00000000e+00
  0.00000000e+00  0.00000000e+00  0.00000000e+00  0.00000000e+00
  0.00000000e+00  0.00000000e+00  0.00000000e+00  0.00000000e+00
  0.00000000e+00  0.00000000e+00  0.00000000e+00  0.00000000e+00
  0.00000000e+00  0.00000000e+00 -9.48000718e-07 -4.81578324e-07
  0.00000000e+00  0.00000000e+00  0.00000000e+00  3.57046113e-06]","[[ 2.20295014e-04  4.28748627e-03]
 [-7.27108670e-05  4.20692944e-03]]",[],0.0,0.0
1787560305.382153,1.6995311873652315,1.4231682191392236,2.4236528188805293,"[ 1.00628480e-05  2.41203339e-07  0.00000000e+00  0.00000000e+00
  0.00000000e+00 -9.48000718e-07  2.41203339e-07  6.75480638e-06
  0.00000000e+00  0.00000000e+00  0.00000000e+00 -4.81578324e-07
  0.00000000e+00  0.00000000e+00  0.00000000e+00  0.00000000e+00
  0.00000000e+00  0.00000000e+00  0.00000000e+00  0.00000000e+00
  0.00000000e+00  0.00000000e+00  0.00000000e+00  0.00000000e+00
  0.00000000e+00  0.00000000e+00  0.00000000e+00  0.00000000e+00
  0.00000000e+00  0.00000000e+00 -9.48000718e-07 -4.81578324e-07
  0.00000000e+00  0.00000000e+00  0.00000000e+00  3.57046113e-06]","[[ 2.20295014e-04  4.28748627e-03]
 [-7.27108670e-05  4.20692944e-03]]",[],0.0,0.0
1787560305.4277785,1.6995311873652315,1.4231682191392236,2.4236528188805293,"[ 1.00628480e-05  2.41203339e-07  0.00000000e+00  0.00000000e+00
  0.00000000e+00 -9.48000718e-07  2.41203339e-07  6.75480638e-06
  0.00000000e+00  0.00000000e+00  0.00000000e+00 -4.81578324e-07
  0.00000000e+00  0.00000000e+00  0.00000000e+00  0.00000000e+00
  0.00000000e+00  0.00000000e+00  0.00000000e+00  0.00000000e+00
  0.00000000e+00  0.00000000e+00  0.00000000e+00  0.00000000e+00
  0.00000000e+00  0.00000000e+00  0.00000000e+00  0.00000000e+00
  0.00000000e+00  0.00000000e+00 -9.48000718e-07 -4.81578324e-07
  0.00000000e+00  0.00000000e+00  0.00000000e+00  3.57046113e-06]","[[ 2.20295014e-04  4.28748627e-03]
 [-7.27108670e-05  4.20692944e-03]]",[],0.0,0.0
1787560305.991457,1.7161674234209436,1.416231315212421,2.4191587910162013,"[ 8.84218837e-06  1.98023634e-07  0.00000000e+00  0.00000000e+00
  0.00000000e+00 -9.50211523e-07  1.98023634e-07  6.03556482e-06
  0.00000000e+00  0.00000000e+00  0.00000000e+00 -4.76187803e-07
  0.00000000e+00  0.00000000e+00  0.00000000e+00  0.00000000e+00
  0.00000000e+00  0.00000000e+00  0.00000000e+00  0.00000000e+00
  0.00000000e+00  0.00000000e+00  0.00000000e+00  0.00000000e+00
  0.00000000e+00  0.00000000e+00  0.00000000e+00  0.00000000e+00
  0.00000000e+00  0.00000000e+00 -9.50211523e-07 -4.76187803e-07
  0.00000000e+00  0.00000000e+00  0.00000000e+00  3.78476938e-06]","[[ 4.31052302e-06  4.10016733e-03]
 [-1.50549458e-04  9.16452453e-04]]",[],0.0,0.0
1787560306.6111133,1.7265499379827827,1.4069251968454348,2.4141520612041774,"[ 7.89073140e-06  1.84293599e-07  0.00000000e+00  0.00000000e+00
  0.00000000e+00 -7.90342964e-07  1.84293599e-07  5.36956015e-06
  0.00000000e+00  0.00000000e+00  0.00000000e+00 -3.85308984e-07
  0.00000000e+00  0.00000000e+00  0.00000000e+00  0.00000000e+00
  0.00000000e+00  0.00000000e+00  0.00000000e+00  0.00000000e+00
  0.00000000e+00  0.00000000e+00  0.00000000e+00  0.00000000e+00
  0.00000000e+00  0.00000000e+00  0.00000000e+00  0.00000000e+00
  0.00000000e+00  0.00000000e+00 -7.90342964e-07 -3.85308984e-07
  0.00000000e+00  0.00000000e+00  0.00000000e+00  3.42598553e-06]","[[ 1.72792637e-04  3.41324190e-03]
 [-5.79730379e-05  3.31536319e-03]]",[],0.0,0.0
1787560306.6277874,1.7265499379827827,1.4069251968454348,2.4141520612041774,"[ 7.89073140e-06  1.84293599e-07  0.00000000e+00  0.00000000e+00
  0.00000000e+00 -7.90342964e-07  1.84293599e-07  5.36956015e-06
  0.00000000e+00  0.00000000e+00  0.00000000e+00 -3.85308984e-07
  0.00000000e+00  0.00000000e+00  0.00000000e+00  0.00000000e+00
  0.00000000e+00  0.00000000e+00  0.00000000e+00  0.00000000e+00
  0.00000000e+00  0.00000000e+00  0.00000000e+00  0.00000000e+00
  0.00000000e+00  0.00000000e+00  0.00000000e+00  0.00000000e+00
  0.00000000e+00  0.00000000e+00 -7.90342964e-07 -3.85308984e-07
  0.00000000e+00  0.00000000e+00  0.00000000e+00  3.42598553e-06]","[[ 1.72792637e-04  3.41324190e-03]
 [-5.79730379e-05  3.31536319e-03]]",[],0.0,0.0
1787560306.6771226,1.7359930185591037,1.399553351548301,2.41494038297994,"[ 7.16546487e-06  1.34505104e-07  0.00000000e+00  0.00000000e+00
  0.00000000e+00 -7.09076070e-07  1.34505104e-07  4.91159204e-06
  0.00000000e+00  0.00000000e+00  0.00000000e+00 -2.58504408e-07
  0.00000000e+00  0.00000000e+00  0.00000000e+00  0.00000000e+00
  0.00000000e+00  0.00000000e+00  0.00000000e+00  0.00000000e+00
  0.00000000e+00  0.00000000e+00  0.00000000e+00  0.00000000e+00
  0.00000000e+00  0.00000000e+00  0.00000000e+00  0.00000000e+00
  0.00000000e+00  0.00000000e+00 -7.09076070e-07 -2.58504408e-07
  0.00000000e+00  0.00000000e+00  0.00000000e+00  3.53583429e-06]","[[ 4.95414899e-06  3.21515568e-03]
 [-1.22501462e-04  5.30846961e-04]]",[],0.0,0.0
1787560306.7304153,1.7359930185591037,1.399553351548301,2.41494038297994,"[ 7.16546487e-06  1.34505104e-07  0.00000000e+00  0.00000000e+00
  0.00000000e+00 -7.09076070e-07  1.34505104e-07  4.91159204e-06
  0.00000000e+00  0.00000000e+00  0.00000000e+00 -2.58504408e-07
  0.00000000e+00  0.00000000e+00  0.00000000e+00  0.00000000e+00
  0.00000000e+00  0.00000000e+00  0.00000000e+00  0.00000000e+00
  0.00000000e+00  0.00000000e+00  0.00000000e+00  0.00000000e+00
  0.00000000e+00  0.00000000e+00  0.00000000e+00  0.00000000e+00
  0.00000000e+00  0.00000000e+00 -7.09076070e-07 -2.58504408e-07
  0.00000000e+00  0.00000000e+00  0.00000000e+00  3.53583429e-06]","[[ 4.95414899e-06  3.21515568e-03]
 [-1.22501462e-04  5.30846961e-04]]",[],0.0,0.0
1787560307.2276354,1.7359930185591037,1.399553351548301,2.41494038297994,"[ 7.16546487e-06  1.34505104e-07  0.00000000e+00  0.00000000e+00
  0.00000000e+00 -7.09076070e-07  1.34505104e-07  4.91159204e-06
  0.00000000e+00  0.00000000e+00  0.00000000e+00 -2.58504408e-07
  0.00000000e+00  0.00000000e+00  0.00000000e+00  0.00000000e+00
  0.00000000e+00  0.00000000e+00  0.00000000e+00  0.00000000e+00
  0.00000000e+00  0.00000000e+00  0.00000000e+00  0.00000000e+00
  0.00000000e+00  0.00000000e+00  0.00000000e+00  0.00000000e+00
  0.00000000e+00  0.00000000e+00 -7.09076070e-07 -2.58504408e-07
  0.00000000e+00  0.00000000e+00  0.00000000e+00  3.53583429e-06]","[[ 4.95414899e-06  3.21515568e-03]
 [-1.22501462e-04  5.30846961e-04]]",[],0.0,0.0
1787560307.6932826,1.745541324968965,1.3946077035290843,2.423301961555177,"[ 6.51569093e-06  8.47082013e-08  0.00000000e+00  0.00000000e+00
  0.00000000e+00 -7.26668453e-07  8.47082013e-08  4.50167121e-06
  0.00000000e+00  0.00000000e+00  0.00000000e+00 -2.71783870e-07
  0.00000000e+00  0.00000000e+00  0.00000000e+00  0.00000000e+00
  0.00000000e+00  0.00000000e+00  0.00000000e+00  0.00000000e+00
  0.00000000e+00  0.00000000e+00  0.00000000e+00  0.00000000e+00
  0.00000000e+00  0.00000000e+00  0.00000000e+00  0.00000000e+00
  0.00000000e+00  0.00000000e+00 -7.26668453e-07 -2.71783870e-07
  0.00000000e+00  0.00000000e+00  0.00000000e+00  3.46112331e-06]","[[ 5.69865081e-06  3.05595741e-03]
 [-1.12310634e-04  5.35095696e-04]]",[],0.0,0.0
1787560307.7298033,1.745541324968965,1.3946077035290843,2.423301961555177,"[ 6.51569093e-06  8.47082013e-08  0.00000000e+00  0.00000000e+00
  0.00000000e+00 -7.26668453e-07  8.47082013e-08  4.50167121e-06
  0.00000000e+00  0.00000000e+00  0.00000000e+00 -2.71783870e-07
  0.00000000e+00  0.00000000e+00  0.00000000e+00  0.00000000e+00
  0.00000000e+00  0.00000000e+00  0.00000000e+00  0.00000000e+00
  0.00000000e+00  0.00000000e+00  0.00000000e+00  0.00000000e+00
  0.00000000e+00  0.00000000e+00  0.00000000e+00  0.00000000e+00
  0.00000000e+00  0.00000000e+00 -7.26668453e-07 -2.71783870e-07
  0.00000000e+00  0.00000000e+00  0.00000000e+00  3.46112331e-06]","[[ 5.69865081e-06  3.05595741e-03]
 [-1.12310634e-04  5.35095696e-04]]",[],0.0,0.0
1787560307.88076,1.745541324968965,1.3946077035290843,2.423301961555177,"[ 6.51569093e-06  8.47082013e-08  0.00000000e+00  0.00000000e+00
  0.00000000e+00 -7.26668453e-07  8.47082013e-08  4.50167121e-06
  0.00000000e+00  0.00000000e+00  0.00000000e+00 -2.71783870e-07
  0.00000000e+00  0.00000000e+00  0.00000000e+00  0.00000000e+00
  0.00000000e+00  0.00000000e+00  0.00000000e+00  0.00000000e+00
  0.00000000e+00  0.00000000e+00  0.00000000e+00  0.00000000e+00
  0.00000000e+00  0.00000000e+00  0.00000000e+00  0.00000000e+00
  0.00000000e+00  0.00000000e+00 -7.26668453e-07 -2.71783870e-07
  0.00000000e+00  0.00000000e+00  0.00000000e+00  3.46112331e-06]","[[ 5.69865081e-06  3.05595741e-03]
 [-1.12310634e-04  5.35095696e-04]]",[],0.0,0.0
1787560308.5600471,1.7544796706216728,1.3897551813389573,2.425308525859408,"[ 5.98489258e-06  1.37354924e-08  0.00000000e+00  0.00000000e+00
  0.00000000e+00 -6.49295617e-07  1.37354924e-08  4.12978022e-06
  0.00000000e+00  0.00000000e+00  0.00000000e+00 -2.63774957e-07
  0.00000000e+00  0.00000000e+00  0.00000000e+00  0.00000000e+00
  0.00000000e+00  0.00000000e+00  0.00000000e+00  0.00000000e+00
  0.00000000e+00  0.00000000e+00  0.00000000e+00  0.00000000e+00
  0.00000000e+00  0.00000000e+00  0.00000000e+00  0.00000000e+00
  0.00000000e+00  0.00000000e+00 -6.49295617e-07 -2.63774957e-07
  0.00000000e+00  0.00000000e+00  0.00000000e+00  3.43898987e-06]","[[ 1.32386474e-04  2.59659440e-03]
 [-4.75945734e-05  2.43726977e-03]]",[],0.0,0.0
1787560308.5741289,1.7544796706216728,1.3897551813389573,2.425308525859408,"[ 5.98489258e-06  1.37354924e-08  0.00000000e+00  0.00000000e+00
  0.00000000e+00 -6.49295617e-07  1.37354924e-08  4.12978022e-06
  0.00000000e+00  0.00000000e+00  0.00000000e+00 -2.63774957e-07
  0.00000000e+00  0.00000000e+00  0.00000000e+00  0.00000000e+00
  0.00000000e+00  0.00000000e+00  0.00000000e+00  0.00000000e+00
  0.00000000e+00  0.00000000e+00  0.00000000e+00  0.00000000e+00
  0.00000000e+00  0.00000000e+00  0.00000000e+00  0.00000000e+00
  0.00000000e+00  0.00000000e+00 -6.49295617e-07 -2.63774957e-07
  0.00000000e+00  0.00000000e+00  0.00000000e+00  3.43898987e-06]","[[ 1.32386474e-04  2.59659440e-03]
 [-4.75945734e-05  2.43726977e-03]]",[],0.0,0.0
1787560308.627301,1.762700587354258,1.384756600661634,2.4357940308566715,"[ 5.56145387e-06 -5.30707741e-08  0.00000000e+00  0.00000000e+00
  0.00000000e+00 -5.95401878e-07 -5.30707741e-08  3.83260897e-06
  0.00000000e+00  0.00000000e+00  0.00000000e+00 -2.03552455e-07
  0.00000000e+00  0.00000000e+00  0.00000000e+00  0.00000000e+00
  0.00000000e+00  0.00000000e+00  0.00000000e+00  0.00000000e+00
  0.00000000e+00  0.00000000e+00  0.00000000e+00  0.00000000e+00
  0.00000000e+00  0.00000000e+00  0.00000000e+00  0.00000000e+00
  0.00000000e+00  0.00000000e+00 -5.95401878e-07 -2.03552455e-07
  0.00000000e+00  0.00000000e+00  0.00000000e+00  3.47652864e-06]","[[ 1.32386474e-04  2.59659440e-03]
 [-4.75945734e-05  2.43726977e-03]]",[],0.0,0.0
1787560308.674183,1.762700587354258,1.384756600661634,2.4357940308566715,"[ 5.56145387e-06 -5.30707741e-08  0.00000000e+00  0.00000000e+00
  0.00000000e+00 -5.95401878e-07 -5.30707741e-08  3.83260897e-06
  0.00000000e+00  0.00000000e+00  0.00000000e+00 -2.03552455e-07
  0.00000000e+00  0.00000000e+00  0.00000000e+00  0.00000000e+00
  0.00000000e+00  0.00000000e+00  0.00000000e+00  0.00000000e+00
  0.00000000e+00  0.00000000e+00  0.00000000e+00  0.00000000e+00
  0.00000000e+00  0.00000000e+00  0.00000000e+00  0.00000000e+00
  0.00000000e+00  0.00000000e+00 -5.95401878e-07 -2.03552455e-07
  0.00000000e+00  0.00000000e+00  0.00000000e+00  3.47652864e-06]","[[ 1.23780372e-04  2.36338813e-03]
 [-4.56316184e-05  2.17079582e-03]]",[],0.0,0.0
1787560309.1381783,1.762700587354258,1.384756600661634,2.4357940308566715,"[ 5.56145387e-06 -5.30707741e-08  0.00000000e+00  0.00000000e+00
  0.00000000e+00 -5.95401878e-07 -5.30707741e-08  3.83260897e-06
  0.00000000e+00  0.00000000e+00  0.00000000e+00 -2.03552455e-07
  0.00000000e+00  0.00000000e+00  0.00000000e+00  0.00000000e+00
  0.00000000e+00  0.00000000e+00  0.00000000e+00  0.00000000e+00
  0.00000000e+00  0.00000000e+00  0.00000000e+00  0.00000000e+00
  0.00000000e+00  0.00000000e+00  0.00000000e+00  0.00000000e+00
  0.00000000e+00  0.00000000e+00 -5.95401878e-07 -2.03552455e-07
  0.00000000e+00  0.00000000e+00  0.00000000e+00  3.47652864e-06]","[[ 1.23780372e-04  2.36338813e-03]
 [-4.56316184e-05  2.17079582e-03]]",[],0.0,0.0
1787560309.1774845,1.762700587354258,1.384756600661634,2.4357940308566715,"[ 5.56145387e-06 -5.30707741e-08  0.00000000e+00  0.00000000e+00
  0.00000000e+00 -5.95401878e-07 -5.30707741e-08  3.83260897e-06
  0.00000000e+00  0.00000000e+00  0.00000000e+00 -2.03552455e-07
  0.00000000e+00  0.00000000e+00  0.00000000e+00  0.00000000e+00
  0.00000000e+00  0.00000000e+00  0.00000000e+00  0.00000000e+00
  0.00000000e+00  0.00000000e+00  0.00000000e+00  0.00000000e+00
  0.00000000e+00  0.00000000e+00  0.00000000e+00  0.00000000e+00
  0.00000000e+00  0.00000000e+00 -5.95401878e-07 -2.03552455e-07
  0.00000000e+00  0.00000000e+00  0.00000000e+00  3.47652864e-06]","[[ 1.23780372e-04  2.36338813e-03]
 [-4.56316184e-05  2.17079582e-03]]",[],0.0,0.0
1787560309.2273624,1.762700587354258,1.384756600661634,2.4357940308566715,"[ 5.56145387e-06 -5.30707741e-08  0.00000000e+00  0.00000000e+00
  0.00000000e+00 -5.95401878e-07 -5.30707741e-08  3.83260897e-06
  0.00000000e+00  0.00000000e+00  0.00000000e+00 -2.03552455e-07
  0.00000000e+00  0.00000000e+00  0.00000000e+00  0.00000000e+00
  0.00000000e+00  0.00000000e+00  0.00000000e+00  0.00000000e+00
  0.00000000e+00  0.00000000e+00  0.00000000e+00  0.00000000e+00
  0.00000000e+00  0.00000000e+00  0.00000000e+00  0.00000000e+00
  0.00000000e+00  0.00000000e+00 -5.95401878e-07 -2.03552455e-07
  0.00000000e+00  0.00000000e+00  0.00000000e+00  3.47652864e-06]","[[ 1.23780372e-04  2.36338813e-03]
 [-4.56316184e-05  2.17079582e-03]]",[],0.0,0.0
1787560309.8132958,1.7684740621524768,1.3777919503418878,2.430074462856049,"[ 5.23885771e-06 -8.70848424e-08  0.00000000e+00  0.00000000e+00
  0.00000000e+00 -4.61202849e-07 -8.70848424e-08  3.57797200e-06
  0.00000000e+00  0.00000000e+00  0.00000000e+00 -2.03408506e-07
  0.00000000e+00  0.00000000e+00  0.00000000e+00  0.00000000e+00
  0.00000000e+00  0.00000000e+00  0.00000000e+00  0.00000000e+00
  0.00000000e+00  0.00000000e+00  0.00000000e+00  0.00000000e+00
  0.00000000e+00  0.00000000e+00  0.00000000e+00  0.00000000e+00
  0.00000000e+00  0.00000000e+00 -4.61202849e-07 -2.03408506e-07
  0.00000000e+00  0.00000000e+00  0.00000000e+00  3.53919378e-06]","[[ 1.17018812e-04  2.04005526e-03]
 [-4.34469832e-05  2.03366911e-03]]",[],0.0,0.0
1787560309.8344383,1.7684740621524768,1.3777919503418878,2.430074462856049,"[ 5.23885771e-06 -8.70848424e-08  0.00000000e+00  0.00000000e+00
  0.00000000e+00 -4.61202849e-07 -8.70848424e-08  3.57797200e-06
  0.00000000e+00  0.00000000e+00  0.00000000e+00 -2.03408506e-07
  0.00000000e+00  0.00000000e+00  0.00000000e+00  0.00000000e+00
  0.00000000e+00  0.00000000e+00  0.00000000e+00  0.00000000e+00
  0.00000000e+00  0.00000000e+00  0.00000000e+00  0.00000000e+00
  0.00000000e+00  0.00000000e+00  0.00000000e+00  0.00000000e+00
  0.00000000e+00  0.00000000e+00 -4.61202849e-07 -2.03408506e-07
  0.00000000e+00  0.00000000e+00  0.00000000e+00  3.53919378e-06]","[[ 1.17018812e-04  2.04005526e-03]
 [-4.34469832e-05  2.03366911e-03]]",[],0.0,0.0
1787560309.8787718,1.7684740621524768,1.3777919503418878,2.430074462856049,"[ 5.23885771e-06 -8.70848424e-08  0.00000000e+00  0.00000000e+00
  0.00000000e+00 -4.61202849e-07 -8.70848424e-08  3.57797200e-06
  0.00000000e+00  0.00000000e+00  0.00000000e+00 -2.03408506e-07
  0.00000000e+00  0.00000000e+00  0.00000000e+00  0.00000000e+00
  0.00000000e+00  0.00000000e+00  0.00000000e+00  0.00000000e+00
  0.00000000e+00  0.00000000e+00  0.00000000e+00  0.00000000e+00
  0.00000000e+00  0.00000000e+00  0.00000000e+00  0.00000000e+00
  0.00000000e+00  0.00000000e+00 -4.61202849e-07 -2.03408506e-07
  0.00000000e+00  0.00000000e+00  0.00000000e+00  3.53919378e-06]","[[ 1.17018812e-04  2.04005526e-03]
 [-4.34469832e-05  2.03366911e-03]]",[],0.0,0.0
1787560310.4131815,1.7760550768247239,1.3729498490992305,2.4220947144814993,"[ 4.92795956e-06 -1.06014720e-07  0.00000000e+00  0.00000000e+00
  0.00000000e+00 -4.11587110e-07 -1.06014720e-07  3.34780950e-06
  0.00000000e+00  0.00000000e+00  0.00000000e+00 -1.89583906e-07
  0.00000000e+00  0.00000000e+00  0.00000000e+00  0.00000000e+00
  0.00000000e+00  0.00000000e+00  0.00000000e+00  0.00000000e+00
  0.00000000e+00  0.00000000e+00  0.00000000e+00  0.00000000e+00
  0.00000000e+00  0.00000000e+00  0.00000000e+00  0.00000000e+00
  0.00000000e+00  0.00000000e+00 -4.11587110e-07 -1.89583906e-07
  0.00000000e+00  0.00000000e+00  0.00000000e+00  3.32844892e-06]","[[ 9.21878945e-06  2.07454722e-03]
 [-8.37174490e-05  3.34192340e-04]]",[],0.0,0.0
1787560310.424465,1.7760550768247239,1.3729498490992305,2.4220947144814993,"[ 4.92795956e-06 -1.06014720e-07  0.00000000e+00  0.00000000e+00
  0.00000000e+00 -4.11587110e-07 -1.06014720e-07  3.34780950e-06
  0.00000000e+00  0.00000000e+00  0.00000000e+00 -1.89583906e-07
  0.00000000e+00  0.00000000e+00  0.00000000e+00  0.00000000e+00
  0.00000000e+00  0.00000000e+00  0.00000000e+00  0.00000000e+00
  0.00000000e+00  0.00000000e+00  0.00000000e+00  0.00000000e+00
  0.00000000e+00  0.00000000e+00  0.00000000e+00  0.00000000e+00
  0.00000000e+00  0.00000000e+00 -4.11587110e-07 -1.89583906e-07
  0.00000000e+00  0.00000000e+00  0.00000000e+00  3.32844892e-06]","[[ 9.21878945e-06  2.07454722e-03]
 [-8.37174490e-05  3.34192340e-04]]",[],0.0,0.0
1787560310.4774578,1.7815947527703428,1.3678543854131595,2.4284606601840775,"[ 4.65360011e-06 -1.24896297e-07  0.00000000e+00  0.00000000e+00
  0.00000000e+00 -4.27960207e-07 -1.24896297e-07  3.16420477e-06
  0.00000000e+00  0.00000000e+00  0.00000000e+00 -1.59229653e-07
  0.00000000e+00  0.00000000e+00  0.00000000e+00  0.00000000e+00
  0.00000000e+00  0.00000000e+00  0.00000000e+00  0.00000000e+00
  0.00000000e+00  0.00000000e+00  0.00000000e+00  0.00000000e+00
  0.00000000e+00  0.00000000e+00  0.00000000e+00  0.00000000e+00
  0.00000000e+00  0.00000000e+00 -4.27960207e-07 -1.59229653e-07
  0.00000000e+00  0.00000000e+00  0.00000000e+00  3.40450309e-06]","[[ 1.04426472e-04  1.81639872e-03]
 [-3.95782152e-05  1.74267792e-03]]",[],0.0,0.0
1787560310.5246003,1.7815947527703428,1.3678543854131595,2.4284606601840775,"[ 4.65360011e-06 -1.24896297e-07  0.00000000e+00  0.00000000e+00
  0.00000000e+00 -4.27960207e-07 -1.24896297e-07  3.16420477e-06
  0.00000000e+00  0.00000000e+00  0.00000000e+00 -1.59229653e-07
  0.00000000e+00  0.00000000e+00  0.00000000e+00  0.00000000e+00
  0.00000000e+00  0.00000000e+00  0.00000000e+00  0.00000000e+00
  0.00000000e+00  0.00000000e+00  0.00000000e+00  0.00000000e+00
  0.00000000e+00  0.00000000e+00  0.00000000e+00  0.00000000e+00
  0.00000000e+00  0.00000000e+00 -4.27960207e-07 -1.59229653e-07
  0.00000000e+00  0.00000000e+00  0.00000000e+00  3.40450309e-06]","[[ 1.04426472e-04  1.81639872e-03]
 [-3.95782152e-05  1.74267792e-03]]",[],0.0,0.0
1787560310.574851,1.7815947527703428,1.3678543854131595,2.4284606601840775,"[ 4.65360011e-06 -1.24896297e-07  0.00000000e+00  0.00000000e+00
  0.00000000e+00 -4.27960207e-07 -1.24896297e-07  3.16420477e-06
  0.00000000e+00  0.00000000e+00  0.00000000e+00 -1.59229653e-07
  0.00000000e+00  0.00000000e+00  0.00000000e+00  0.00000000e+00
  0.00000000e+00  0.00000000e+00  0.00000000e+00  0.00000000e+00
  0.00000000e+00  0.00000000e+00  0.00000000e+00  0.00000000e+00
  0.00000000e+00  0.00000000e+00  0.00000000e+00  0.00000000e+00
  0.00000000e+00  0.00000000e+00 -4.27960207e-07 -1.59229653e-07
  0.00000000e+00  0.00000000e+00  0.00000000e+00  3.40450309e-06]","[[ 1.04426472e-04  1.81639872e-03]
 [-3.95782152e-05  1.74267792e-03]]",[],0.0,0.0
1787560310.628461,1.7815947527703428,1.3678543854131595,2.4284606601840775,"[ 4.65360011e-06 -1.24896297e-07  0.00000000e+00  0.00000000e+00
  0.00000000e+00 -4.27960207e-07 -1.24896297e-07  3.16420477e-06
  0.00000000e+00  0.00000000e+00  0.00000000e+00 -1.59229653e-07
  0.00000000e+00  0.00000000e+00  0.00000000e+00  0.00000000e+00
  0.00000000e+00  0.00000000e+00  0.00000000e+00  0.00000000e+00
  0.00000000e+00  0.00000000e+00  0.00000000e+00  0.00000000e+00
  0.00000000e+00  0.00000000e+00  0.00000000e+00  0.00000000e+00
  0.00000000e+00  0.00000000e+00 -4.27960207e-07 -1.59229653e-07
  0.00000000e+00  0.00000000e+00  0.00000000e+00  3.40450309e-06]","[[ 1.04426472e-04  1.81639872e-03]
 [-3.95782152e-05  1.74267792e-03]]",[],0.0,0.0
1787560310.6743653,1.7815947527703428,1.3678543854131595,2.4284606601840775,"[ 4.65360011e-06 -1.24896297e-07  0.00000000e+00  0.00000000e+00
  0.00000000e+00 -4.27960207e-07 -1.24896297e-07  3.16420477e-06
  0.00000000e+00  0.00000000e+00  0.00000000e+00 -1.59229653e-07
  0.00000000e+00  0.00000000e+00  0.00000000e+00  0.00000000e+00
  0.00000000e+00  0.00000000e+00  0.00000000e+00  0.00000000e+00
  0.00000000e+00  0.00000000e+00  0.00000000e+00  0.00000000e+00
  0.00000000e+00  0.00000000e+00  0.00000000e+00  0.00000000e+00
  0.00000000e+00  0.00000000e+00 -4.27960207e-07 -1.59229653e-07
  0.00000000e+00  0.00000000e+00  0.00000000e+00  3.40450309e-06]","[[ 1.04426472e-04  1.81639872e-03]
 [-3.95782152e-05  1.74267792e-03]]",[],0.0,0.0
1787560310.7236571,1.7815947527703428,1.3678543854131595,2.4284606601840775,"[ 4.65360011e-06 -1.24896297e-07  0.00000000e+00  0.00000000e+00
  0.00000000e+00 -4.27960207e-07 -1.24896297e-07  3.16420477e-06
  0.00000000e+00  0.00000000e+00  0.00000000e+00 -1.59229653e-07
  0.00000000e+00  0.00000000e+00  0.00000000e+00  0.00000000e+00
  0.00000000e+00  0.00000000e+00  0.00000000e+00  0.00000000e+00
  0.00000000e+00  0.00000000e+00  0.00000000e+00  0.00000000e+00
  0.00000000e+00  0.00000000e+00  0.00000000e+00  0.00000000e+00
  0.00000000e+00  0.00000000e+00 -4.27960207e-07 -1.59229653e-07
  0.00000000e+00  0.00000000e+00  0.00000000e+00  3.40450309e-06]","[[ 1.04426472e-04  1.81639872e-03]
 [-3.95782152e-05  1.74267792e-03]]",[],0.0,0.0
1787560310.7758882,1.7815947527703428,1.3678543854131595,2.4284606601840775,"[ 4.65360011e-06 -1.24896297e-07  0.00000000e+00  0.00000000e+00
  0.00000000e+00 -4.27960207e-07 -1.24896297e-07  3.16420477e-06
  0.00000000e+00  0.00000000e+00  0.00000000e+00 -1.59229653e-07
  0.00000000e+00  0.00000000e+00  0.00000000e+00  0.00000000e+00
  0.00000000e+00  0.00000000e+00  0.00000000e+00  0.00000000e+00
  0.00000000e+00  0.00000000e+00  0.00000000e+00  0.00000000e+00
  0.00000000e+00  0.00000000e+00  0.00000000e+00  0.00000000e+00
  0.00000000e+00  0.00000000e+00 -4.27960207e-07 -1.59229653e-07
  0.00000000e+00  0.00000000e+00  0.00000000e+00  3.40450309e-06]","[[ 1.04426472e-04  1.81639872e-03]
 [-3.95782152e-05  1.74267792e-03]]",[],0.0,0.0
1787560310.824037,1.7815947527703428,1.3678543854131595,2.4284606601840775,"[ 4.65360011e-06 -1.24896297e-07  0.00000000e+00  0.00000000e+00
  0.00000000e+00 -4.27960207e-07 -1.24896297e-07  3.16420477e-06
  0.00000000e+00  0.00000000e+00  0.00000000e+00 -1.59229653e-07
  0.00000000e+00  0.00000000e+00  0.00000000e+00  0.00000000e+00
  0.00000000e+00  0.00000000e+00  0.00000000e+00  0.00000000e+00
  0.00000000e+00  0.00000000e+00  0.00000000e+00  0.00000000e+00
  0.00000000e+00  0.00000000e+00  0.00000000e+00  0.00000000e+00
  0.00000000e+00  0.00000000e+00 -4.27960207e-07 -1.59229653e-07
  0.00000000e+00  0.00000000e+00  0.00000000e+00  3.40450309e-06]","[[ 1.04426472e-04  1.81639872e-03]
 [-3.95782152e-05  1.74267792e-03]]",[],0.0,0.0
1787560310.8764672,1.7815947527703428,1.3678543854131595,2.4284606601840775,"[ 4.65360011e-06 -1.24896297e-07  0.00000000e+00  0.00000000e+00
  0.00000000e+00 -4.27960207e-07 -1.24896297e-07  3.16420477e-06
  0.00000000e+00  0.00000000e+00  0.00000000e+00 -1.59229653e-07
  0.00000000e+00  0.00000000e+00  0.00000000e+00  0.00000000e+00
  0.00000000e+00  0.00000000e+00  0.00000000e+00  0.00000000e+00
  0.00000000e+00  0.00000000e+00  0.00000000e+00  0.00000000e+00
  0.00000000e+00  0.00000000e+00  0.00000000e+00  0.00000000e+00
  0.00000000e+00  0.00000000e+00 -4.27960207e-07 -1.59229653e-07
  0.00000000e+00  0.00000000e+00  0.00000000e+00  3.40450309e-06]","[[ 1.04426472e-04  1.81639872e-03]
 [-3.95782152e-05  1.74267792e-03]]",[],0.0,0.0
1787560310.9239838,1.7815947527703428,1.3678543854131595,2.4284606601840775,"[ 4.65360011e-06 -1.24896297e-07  0.00000000e+00  0.00000000e+00
  0.00000000e+00 -4.27960207e-07 -1.24896297e-07  3.16420477e-06
  0.00000000e+00  0.00000000e+00  0.00000000e+00 -1.59229653e-07
  0.00000000e+00  0.00000000e+00  0.00000000e+00  0.00000000e+00
  0.00000000e+00  0.00000000e+00  0.00000000e+00  0.00000000e+00
  0.00000000e+00  0.00000000e+00  0.00000000e+00  0.00000000e+00
  0.00000000e+00  0.00000000e+00  0.00000000e+00  0.00000000e+00
  0.00000000e+00  0.00000000e+00 -4.27960207e-07 -1.59229653e-07
  0.00000000e+00  0.00000000e+00  0.00000000e+00  3.40450309e-06]","[[ 1.04426472e-04  1.81639872e-03]
 [-3.95782152e-05  1.74267792e-03]]",[],0.0,0.0
1787560310.9784107,1.7815947527703428,1.3678543854131595,2.4284606601840775,"[ 4.65360011e-06 -1.24896297e-07  0.00000000e+00  0.00000000e+00
  0.00000000e+00 -4.27960207e-07 -1.24896297e-07  3.16420477e-06
  0.00000000e+00  0.00000000e+00  0.00000000e+00 -1.59229653e-07
  0.00000000e+00  0.00000000e+00  0.00000000e+00  0.00000000e+00
  0.00000000e+00  0.00000000e+00  0.00000000e+00  0.00000000e+00
  0.00000000e+00  0.00000000e+00  0.00000000e+00  0.00000000e+00
  0.00000000e+00  0.00000000e+00  0.00000000e+00  0.00000000e+00
  0.00000000e+00  0.00000000e+00 -4.27960207e-07 -1.59229653e-07
  0.00000000e+00  0.00000000e+00  0.00000000e+00  3.40450309e-06]","[[ 1.04426472e-04  1.81639872e-03]
 [-3.95782152e-05  1.74267792e-03]]",[],0.0,0.0
1787560311.0319836,1.7815947527703428,1.3678543854131595,2.4284606601840775,"[ 4.65360011e-06 -1.24896297e-07  0.00000000e+00  0.00000000e+00
  0.00000000e+00 -4.27960207e-07 -1.24896297e-07  3.16420477e-06
  0.00000000e+00  0.00000000e+00  0.00000000e+00 -1.59229653e-07
  0.00000000e+00  0.00000000e+00  0.00000000e+00  0.00000000e+00
  0.00000000e+00  0.00000000e+00  0.00000000e+00  0.00000000e+00
  0.00000000e+00  0.00000000e+00  0.00000000e+00  0.00000000e+00
  0.00000000e+00  0.00000000e+00  0.00000000e+00  0.00000000e+00
  0.00000000e+00  0.00000000e+00 -4.27960207e-07 -1.59229653e-07
  0.00000000e+00  0.00000000e+00  0.00000000e+00  3.40450309e-06]","[[ 1.04426472e-04  1.81639872e-03]
 [-3.95782152e-05  1.74267792e-03]]",[],0.0,0.0
1787560311.077565,1.7815947527703428,1.3678543854131595,2.4284606601840775,"[ 4.65360011e-06 -1.24896297e-07  0.00000000e+00  0.00000000e+00
  0.00000000e+00 -4.27960207e-07 -1.24896297e-07  3.16420477e-06
  0.00000000e+00  0.00000000e+00  0.00000000e+00 -1.59229653e-07
  0.00000000e+00  0.00000000e+00  0.00000000e+00  0.00000000e+00
  0.00000000e+00  0.00000000e+00  0.00000000e+00  0.00000000e+00
  0.00000000e+00  0.00000000e+00  0.00000000e+00  0.00000000e+00
  0.00000000e+00  0.00000000e+00  0.00000000e+00  0.00000000e+00
  0.00000000e+00  0.00000000e+00 -4.27960207e-07 -1.59229653e-07
  0.00000000e+00  0.00000000e+00  0.00000000e+00  3.40450309e-06]","[[ 1.04426472e-04  1.81639872e-03]
 [-3.95782152e-05  1.74267792e-03]]",[],0.0,0.0
1787560311.125478,1.7815947527703428,1.3678543854131595,2.4284606601840775,"[ 4.65360011e-06 -1.24896297e-07  0.00000000e+00  0.00000000e+00
  0.00000000e+00 -4.27960207e-07 -1.24896297e-07  3.16420477e-06
  0.00000000e+00  0.00000000e+00  0.00000000e+00 -1.59229653e-07
  0.00000000e+00  0.00000000e+00  0.00000000e+00  0.00000000e+00
  0.00000000e+00  0.00000000e+00  0.00000000e+00  0.00000000e+00
  0.00000000e+00  0.00000000e+00  0.00000000e+00  0.00000000e+00
  0.00000000e+00  0.00000000e+00  0.00000000e+00  0.00000000e+00
  0.00000000e+00  0.00000000e+00 -4.27960207e-07 -1.59229653e-07
  0.00000000e+00  0.00000000e+00  0.00000000e+00  3.40450309e-06]","[[ 1.04426472e-04  1.81639872e-03]
 [-3.95782152e-05  1.74267792e-03]]",[],0.0,0.0
1787560311.1747246,1.7815947527703428,1.3678543854131595,2.4284606601840775,"[ 4.65360011e-06 -1.24896297e-07  0.00000000e+00  0.00000000e+00
  0.00000000e+00 -4.27960207e-07 -1.24896297e-07  3.16420477e-06
  0.00000000e+00  0.00000000e+00  0.00000000e+00 -1.59229653e-07
  0.00000000e+00  0.00000000e+00  0.00000000e+00  0.00000000e+00
  0.00000000e+00  0.00000000e+00  0.00000000e+00  0.00000000e+00
  0.00000000e+00  0.00000000e+00  0.00000000e+00  0.00000000e+00
  0.00000000e+00  0.00000000e+00  0.00000000e+00  0.00000000e+00
  0.00000000e+00  0.00000000e+00 -4.27960207e-07 -1.59229653e-07
  0.00000000e+00  0.00000000e+00  0.00000000e+00  3.40450309e-06]","[[ 1.04426472e-04  1.81639872e-03]
 [-3.95782152e-05  1.74267792e-03]]",[],0.0,0.0
1787560311.2251968,1.7815947527703428,1.3678543854131595,2.4284606601840775,"[ 4.65360011e-06 -1.24896297e-07  0.00000000e+00  0.00000000e+00
  0.00000000e+00 -4.27960207e-07 -1.24896297e-07  3.16420477e-06
  0.00000000e+00  0.00000000e+00  0.00000000e+00 -1.59229653e-07
  0.00000000e+00  0.00000000e+00  0.00000000e+00  0.00000000e+00
  0.00000000e+00  0.00000000e+00  0.00000000e+00  0.00000000e+00
  0.00000000e+00  0.00000000e+00  0.00000000e+00  0.00000000e+00
  0.00000000e+00  0.00000000e+00  0.00000000e+00  0.00000000e+00
  0.00000000e+00  0.00000000e+00 -4.27960207e-07 -1.59229653e-07
  0.00000000e+00  0.00000000e+00  0.00000000e+00  3.40450309e-06]","[[ 1.04426472e-04  1.81639872e-03]
 [-3.95782152e-05  1.74267792e-03]]",[],0.0,0.0
1787560311.2739305,1.7815947527703428,1.3678543854131595,2.4284606601840775,"[ 4.65360011e-06 -1.24896297e-07  0.00000000e+00  0.00000000e+00
  0.00000000e+00 -4.27960207e-07 -1.24896297e-07  3.16420477e-06
  0.00000000e+00  0.00000000e+00  0.00000000e+00 -1.59229653e-07
  0.00000000e+00  0.00000000e+00  0.00000000e+00  0.00000000e+00
  0.00000000e+00  0.00000000e+00  0.00000000e+00  0.00000000e+00
  0.00000000e+00  0.00000000e+00  0.00000000e+00  0.00000000e+00
  0.00000000e+00  0.00000000e+00  0.00000000e+00  0.00000000e+00
  0.00000000e+00  0.00000000e+00 -4.27960207e-07 -1.59229653e-07
  0.00000000e+00  0.00000000e+00  0.00000000e+00  3.40450309e-06]","[[ 1.04426472e-04  1.81639872e-03]
 [-3.95782152e-05  1.74267792e-03]]",[],0.0,0.0
1787560311.3242097,1.7875405347984623,1.364109421419643,2.4345973070082056,"[ 4.46960293e-06 -2.12417682e-07  0.00000000e+00  0.00000000e+00
  0.00000000e+00 -4.76409482e-07 -2.12417682e-07  3.05643275e-06
  0.00000000e+00  0.00000000e+00  0.00000000e+00 -1.77388315e-07
  0.00000000e+00  0.00000000e+00  0.00000000e+00  0.00000000e+00
  0.00000000e+00  0.00000000e+00  0.00000000e+00  0.00000000e+00
  0.00000000e+00  0.00000000e+00  0.00000000e+00  0.00000000e+00
  0.00000000e+00  0.00000000e+00  0.00000000e+00  0.00000000e+00
  0.00000000e+00  0.00000000e+00 -4.76409482e-07 -1.77388315e-07
  0.00000000e+00  0.00000000e+00  0.00000000e+00  3.80581059e-06]","[[ 1.01343576e-04  1.80751542e-03]
 [-4.03019141e-05  1.69541611e-03]]",[],0.0,0.0
1787560311.3742924,1.7875405347984623,1.364109421419643,2.4345973070082056,"[ 4.46960293e-06 -2.12417682e-07  0.00000000e+00  0.00000000e+00
  0.00000000e+00 -4.76409482e-07 -2.12417682e-07  3.05643275e-06
  0.00000000e+00  0.00000000e+00  0.00000000e+00 -1.77388315e-07
  0.00000000e+00  0.00000000e+00  0.00000000e+00  0.00000000e+00
  0.00000000e+00  0.00000000e+00  0.00000000e+00  0.00000000e+00
  0.00000000e+00  0.00000000e+00  0.00000000e+00  0.00000000e+00
  0.00000000e+00  0.00000000e+00  0.00000000e+00  0.00000000e+00
  0.00000000e+00  0.00000000e+00 -4.76409482e-07 -1.77388315e-07
  0.00000000e+00  0.00000000e+00  0.00000000e+00  3.80581059e-06]","[[ 1.01343576e-04  1.80751542e-03]
 [-4.03019141e-05  1.69541611e-03]]",[],0.0,0.0
1787560311.4256787,1.7875405347984623,1.364109421419643,2.4345973070082056,"[ 4.46960293e-06 -2.12417682e-07  0.00000000e+00  0.00000000e+00
  0.00000000e+00 -4.76409482e-07 -2.12417682e-07  3.05643275e-06
  0.00000000e+00  0.00000000e+00  0.00000000e+00 -1.77388315e-07
  0.00000000e+00  0.00000000e+00  0.00000000e+00  0.00000000e+00
  0.00000000e+00  0.00000000e+00  0.00000000e+00  0.00000000e+00
  0.00000000e+00  0.00000000e+00  0.00000000e+00  0.00000000e+00
  0.00000000e+00  0.00000000e+00  0.00000000e+00  0.00000000e+00
  0.00000000e+00  0.00000000e+00 -4.76409482e-07 -1.77388315e-07
  0.00000000e+00  0.00000000e+00  0.00000000e+00  3.80581059e-06]","[[ 1.01343576e-04  1.80751542e-03]
 [-4.03019141e-05  1.69541611e-03]]",[],0.0,0.0
1787560311.4744322,1.7875405347984623,1.364109421419643,2.4345973070082056,"[ 4.46960293e-06 -2.12417682e-07  0.00000000e+00  0.00000000e+00
  0.00000000e+00 -4.76409482e-07 -2.12417682e-07  3.05643275e-06
  0.00000000e+00  0.00000000e+00  0.00000000e+00 -1.77388315e-07
  0.00000000e+00  0.00000000e+00  0.00000000e+00  0.00000000e+00
  0.00000000e+00  0.00000000e+00  0.00000000e+00  0.00000000e+00
  0.00000000e+00  0.00000000e+00  0.00000000e+00  0.00000000e+00
  0.00000000e+00  0.00000000e+00  0.00000000e+00  0.00000000e+00
  0.00000000e+00  0.00000000e+00 -4.76409482e-07 -1.77388315e-07
  0.00000000e+00  0.00000000e+00  0.00000000e+00  3.80581059e-06]","[[ 1.01343576e-04  1.80751542e-03]
 [-4.03019141e-05  1.69541611e-03]]",[],0.0,0.0
1787560311.5258882,1.7875405347984623,1.364109421419643,2.4345973070082056,"[ 4.46960293e-06 -2.12417682e-07  0.00000000e+00  0.00000000e+00
  0.00000000e+00 -4.76409482e-07 -2.12417682e-07  3.05643275e-06
  0.00000000e+00  0.00000000e+00  0.00000000e+00 -1.77388315e-07
  0.00000000e+00  0.00000000e+00  0.00000000e+00  0.00000000e+00
  0.00000000e+00  0.00000000e+00  0.00000000e+00  0.00000000e+00
  0.00000000e+00  0.00000000e+00  0.00000000e+00  0.00000000e+00
  0.00000000e+00  0.00000000e+00  0.00000000e+00  0.00000000e+00
  0.00000000e+00  0.00000000e+00 -4.76409482e-07 -1.77388315e-07
  0.00000000e+00  0.00000000e+00  0.00000000e+00  3.80581059e-06]","[[ 1.01343576e-04  1.80751542e-03]
 [-4.03019141e-05  1.69541611e-03]]",[],0.0,0.0
1787560311.5831382,1.7875405347984623,1.364109421419643,2.4345973070082056,"[ 4.46960293e-06 -2.12417682e-07  0.00000000e+00  0.00000000e+00
  0.00000000e+00 -4.76409482e-07 -2.12417682e-07  3.05643275e-06
  0.00000000e+00  0.00000000e+00  0.00000000e+00 -1.77388315e-07
  0.00000000e+00  0.00000000e+00  0.00000000e+00  0.00000000e+00
  0.00000000e+00  0.00000000e+00  0.00000000e+00  0.00000000e+00
  0.00000000e+00  0.00000000e+00  0.00000000e+00  0.00000000e+00
  0.00000000e+00  0.00000000e+00  0.00000000e+00  0.00000000e+00
  0.00000000e+00  0.00000000e+00 -4.76409482e-07 -1.77388315e-07
  0.00000000e+00  0.00000000e+00  0.00000000e+00  3.80581059e-06]","[[ 1.01343576e-04  1.80751542e-03]
 [-4.03019141e-05  1.69541611e-03]]",[],0.0,0.0
1787560311.625188,1.7875405347984623,1.364109421419643,2.4345973070082056,"[ 4.46960293e-06 -2.12417682e-07  0.00000000e+00  0.00000000e+00
  0.00000000e+00 -4.76409482e-07 -2.12417682e-07  3.05643275e-06
  0.00000000e+00  0.00000000e+00  0.00000000e+00 -1.77388315e-07
  0.00000000e+00  0.00000000e+00  0.00000000e+00  0.00000000e+00
  0.00000000e+00  0.00000000e+00  0.00000000e+00  0.00000000e+00
  0.00000000e+00  0.00000000e+00  0.00000000e+00  0.00000000e+00
  0.00000000e+00  0.00000000e+00  0.00000000e+00  0.00000000e+00
  0.00000000e+00  0.00000000e+00 -4.76409482e-07 -1.77388315e-07
  0.00000000e+00  0.00000000e+00  0.00000000e+00  3.80581059e-06]","[[ 1.01343576e-04  1.80751542e-03]
 [-4.03019141e-05  1.69541611e-03]]",[],0.0,0.0
1787560311.6744103,1.7875405347984623,1.364109421419643,2.4345973070082056,"[ 4.46960293e-06 -2.12417682e-07  0.00000000e+00  0.00000000e+00
  0.00000000e+00 -4.76409482e-07 -2.12417682e-07  3.05643275e-06
  0.00000000e+00  0.00000000e+00  0.00000000e+00 -1.77388315e-07
  0.00000000e+00  0.00000000e+00  0.00000000e+00  0.00000000e+00
  0.00000000e+00  0.00000000e+00  0.00000000e+00  0.00000000e+00
  0.00000000e+00  0.00000000e+00  0.00000000e+00  0.00000000e+00
  0.00000000e+00  0.00000000e+00  0.00000000e+00  0.00000000e+00
  0.00000000e+00  0.00000000e+00 -4.76409482e-07 -1.77388315e-07
  0.00000000e+00  0.00000000e+00  0.00000000e+00  3.80581059e-06]","[[ 1.01343576e-04  1.80751542e-03]
 [-4.03019141e-05  1.69541611e-03]]",[],0.0,0.0
1787560311.7272964,1.7875405347984623,1.364109421419643,2.4345973070082056,"[ 4.46960293e-06 -2.12417682e-07  0.00000000e+00  0.00000000e+00
  0.00000000e+00 -4.76409482e-07 -2.12417682e-07  3.05643275e-06
  0.00000000e+00  0.00000000e+00  0.00000000e+00 -1.77388315e-07
  0.00000000e+00  0.00000000e+00  0.00000000e+00  0.00000000e+00
  0.00000000e+00  0.00000000e+00  0.00000000e+00  0.00000000e+00
  0.00000000e+00  0.00000000e+00  0.00000000e+00  0.00000000e+00
  0.00000000e+00  0.00000000e+00  0.00000000e+00  0.00000000e+00
  0.00000000e+00  0.00000000e+00 -4.76409482e-07 -1.77388315e-07
  0.00000000e+00  0.00000000e+00  0.00000000e+00  3.80581059e-06]","[[ 1.01343576e-04  1.80751542e-03]
 [-4.03019141e-05  1.69541611e-03]]",[],0.0,0.0
1787560311.7742682,1.7875405347984623,1.364109421419643,2.4345973070082056,"[ 4.46960293e-06 -2.12417682e-07  0.00000000e+00  0.00000000e+00
  0.00000000e+00 -4.76409482e-07 -2.12417682e-07  3.05643275e-06
  0.00000000e+00  0.00000000e+00  0.00000000e+00 -1.77388315e-07
  0.00000000e+00  0.00000000e+00  0.00000000e+00  0.00000000e+00
  0.00000000e+00  0.00000000e+00  0.00000000e+00  0.00000000e+00
  0.00000000e+00  0.00000000e+00  0.00000000e+00  0.00000000e+00
  0.00000000e+00  0.00000000e+00  0.00000000e+00  0.00000000e+00
  0.00000000e+00  0.00000000e+00 -4.76409482e-07 -1.77388315e-07
  0.00000000e+00  0.00000000e+00  0.00000000e+00  3.80581059e-06]","[[ 1.01343576e-04  1.80751542e-03]
 [-4.03019141e-05  1.69541611e-03]]",[],0.0,0.0
1787560311.8283129,1.7875405347984623,1.364109421419643,2.4345973070082056,"[ 4.46960293e-06 -2.12417682e-07  0.00000000e+00  0.00000000e+00
  0.00000000e+00 -4.76409482e-07 -2.12417682e-07  3.05643275e-06
  0.00000000e+00  0.00000000e+00  0.00000000e+00 -1.77388315e-07
  0.00000000e+00  0.00000000e+00  0.00000000e+00  0.00000000e+00
  0.00000000e+00  0.00000000e+00  0.00000000e+00  0.00000000e+00
  0.00000000e+00  0.00000000e+00  0.00000000e+00  0.00000000e+00
  0.00000000e+00  0.00000000e+00  0.00000000e+00  0.00000000e+00
  0.00000000e+00  0.00000000e+00 -4.76409482e-07 -1.77388315e-07
  0.00000000e+00  0.00000000e+00  0.00000000e+00  3.80581059e-06]","[[ 1.01343576e-04  1.80751542e-03]
 [-4.03019141e-05  1.69541611e-03]]",[],0.0,0.0
1787560311.8750594,1.7875405347984623,1.364109421419643,2.4345973070082056,"[ 4.46960293e-06 -2.12417682e-07  0.00000000e+00  0.00000000e+00
  0.00000000e+00 -4.76409482e-07 -2.12417682e-07  3.05643275e-06
  0.00000000e+00  0.00000000e+00  0.00000000e+00 -1.77388315e-07
  0.00000000e+00  0.00000000e+00  0.00000000e+00  0.00000000e+00
  0.00000000e+00  0.00000000e+00  0.00000000e+00  0.00000000e+00
  0.00000000e+00  0.00000000e+00  0.00000000e+00  0.00000000e+00
  0.00000000e+00  0.00000000e+00  0.00000000e+00  0.00000000e+00
  0.00000000e+00  0.00000000e+00 -4.76409482e-07 -1.77388315e-07
  0.00000000e+00  0.00000000e+00  0.00000000e+00  3.80581059e-06]","[[ 1.01343576e-04  1.80751542e-03]
 [-4.03019141e-05  1.69541611e-03]]",[],0.0,0.0
1787560311.9245796,1.7875405347984623,1.364109421419643,2.4345973070082056,"[ 4.46960293e-06 -2.12417682e-07  0.00000000e+00  0.00000000e+00
  0.00000000e+00 -4.76409482e-07 -2.12417682e-07  3.05643275e-06
  0.00000000e+00  0.00000000e+00  0.00000000e+00 -1.77388315e-07
  0.00000000e+00  0.00000000e+00  0.00000000e+00  0.00000000e+00
  0.00000000e+00  0.00000000e+00  0.00000000e+00  0.00000000e+00
  0.00000000e+00  0.00000000e+00  0.00000000e+00  0.00000000e+00
  0.00000000e+00  0.00000000e+00  0.00000000e+00  0.00000000e+00
  0.00000000e+00  0.00000000e+00 -4.76409482e-07 -1.77388315e-07
  0.00000000e+00  0.00000000e+00  0.00000000e+00  3.80581059e-06]","[[ 1.01343576e-04  1.80751542e-03]
 [-4.03019141e-05  1.69541611e-03]]",[],0.0,0.0
1787560311.9754002,1.7875405347984623,1.364109421419643,2.4345973070082056,"[ 4.46960293e-06 -2.12417682e-07  0.00000000e+00  0.00000000e+00
  0.00000000e+00 -4.76409482e-07 -2.12417682e-07  3.05643275e-06
  0.00000000e+00  0.00000000e+00  0.00000000e+00 -1.77388315e-07
  0.00000000e+00  0.00000000e+00  0.00000000e+00  0.00000000e+00
  0.00000000e+00  0.00000000e+00  0.00000000e+00  0.00000000e+00
  0.00000000e+00  0.00000000e+00  0.00000000e+00  0.00000000e+00
  0.00000000e+00  0.00000000e+00  0.00000000e+00  0.00000000e+00
  0.00000000e+00  0.00000000e+00 -4.76409482e-07 -1.77388315e-07
  0.00000000e+00  0.00000000e+00  0.00000000e+00  3.80581059e-06]","[[ 1.01343576e-04  1.80751542e-03]
 [-4.03019141e-05  1.69541611e-03]]",[],0.0,0.0
1787560312.0265193,1.7875405347984623,1.364109421419643,2.4345973070082056,"[ 4.46960293e-06 -2.12417682e-07  0.00000000e+00  0.00000000e+00
  0.00000000e+00 -4.76409482e-07 -2.12417682e-07  3.05643275e-06
  0.00000000e+00  0.00000000e+00  0.00000000e+00 -1.77388315e-07
  0.00000000e+00  0.00000000e+00  0.00000000e+00  0.00000000e+00
  0.00000000e+00  0.00000000e+00  0.00000000e+00  0.00000000e+00
  0.00000000e+00  0.00000000e+00  0.00000000e+00  0.00000000e+00
  0.00000000e+00  0.00000000e+00  0.00000000e+00  0.00000000e+00
  0.00000000e+00  0.00000000e+00 -4.76409482e-07 -1.77388315e-07
  0.00000000e+00  0.00000000e+00  0.00000000e+00  3.80581059e-06]","[[ 1.01343576e-04  1.80751542e-03]
 [-4.03019141e-05  1.69541611e-03]]",[],0.0,0.0
1787560312.100729,1.7875405347984623,1.364109421419643,2.4345973070082056,"[ 4.46960293e-06 -2.12417682e-07  0.00000000e+00  0.00000000e+00
  0.00000000e+00 -4.76409482e-07 -2.12417682e-07  3.05643275e-06
  0.00000000e+00  0.00000000e+00  0.00000000e+00 -1.77388315e-07
  0.00000000e+00  0.00000000e+00  0.00000000e+00  0.00000000e+00
  0.00000000e+00  0.00000000e+00  0.00000000e+00  0.00000000e+00
  0.00000000e+00  0.00000000e+00  0.00000000e+00  0.00000000e+00
  0.00000000e+00  0.00000000e+00  0.00000000e+00  0.00000000e+00
  0.00000000e+00  0.00000000e+00 -4.76409482e-07 -1.77388315e-07
  0.00000000e+00  0.00000000e+00  0.00000000e+00  3.80581059e-06]","[[ 1.01343576e-04  1.80751542e-03]
 [-4.03019141e-05  1.69541611e-03]]",[],0.0,0.0
1787560312.124369,1.7875405347984623,1.364109421419643,2.4345973070082056,"[ 4.46960293e-06 -2.12417682e-07  0.00000000e+00  0.00000000e+00
  0.00000000e+00 -4.76409482e-07 -2.12417682e-07  3.05643275e-06
  0.00000000e+00  0.00000000e+00  0.00000000e+00 -1.77388315e-07
  0.00000000e+00  0.00000000e+00  0.00000000e+00  0.00000000e+00
  0.00000000e+00  0.00000000e+00  0.00000000e+00  0.00000000e+00
  0.00000000e+00  0.00000000e+00  0.00000000e+00  0.00000000e+00
  0.00000000e+00  0.00000000e+00  0.00000000e+00  0.00000000e+00
  0.00000000e+00  0.00000000e+00 -4.76409482e-07 -1.77388315e-07
  0.00000000e+00  0.00000000e+00  0.00000000e+00  3.80581059e-06]","[[ 1.01343576e-04  1.80751542e-03]
 [-4.03019141e-05  1.69541611e-03]]",[],0.0,0.0
1787560312.1934936,1.792451660988372,1.3576820862351255,2.4358712265304625,"[ 4.34442383e-06 -2.93670922e-07  0.00000000e+00  0.00000000e+00
  0.00000000e+00 -3.94361633e-07 -2.93670922e-07  2.94519522e-06
  0.00000000e+00  0.00000000e+00  0.00000000e+00 -1.29696521e-07
  0.00000000e+00  0.00000000e+00  0.00000000e+00  0.00000000e+00
  0.00000000e+00  0.00000000e+00  0.00000000e+00  0.00000000e+00
  0.00000000e+00  0.00000000e+00  0.00000000e+00  0.00000000e+00
  0.00000000e+00  0.00000000e+00  0.00000000e+00  0.00000000e+00
  0.00000000e+00  0.00000000e+00 -3.94361633e-07 -1.29696521e-07
  0.00000000e+00  0.00000000e+00  0.00000000e+00  3.67916768e-06]","[[ 9.95132766e-05  1.59995277e-03]
 [-4.08143869e-05  1.54002121e-03]]",[],0.0,0.0
1787560312.2252438,1.792451660988372,1.3576820862351255,2.4358712265304625,"[ 4.34442383e-06 -2.93670922e-07  0.00000000e+00  0.00000000e+00
  0.00000000e+00 -3.94361633e-07 -2.93670922e-07  2.94519522e-06
  0.00000000e+00  0.00000000e+00  0.00000000e+00 -1.29696521e-07
  0.00000000e+00  0.00000000e+00  0.00000000e+00  0.00000000e+00
  0.00000000e+00  0.00000000e+00  0.00000000e+00  0.00000000e+00
  0.00000000e+00  0.00000000e+00  0.00000000e+00  0.00000000e+00
  0.00000000e+00  0.00000000e+00  0.00000000e+00  0.00000000e+00
  0.00000000e+00  0.00000000e+00 -3.94361633e-07 -1.29696521e-07
  0.00000000e+00  0.00000000e+00  0.00000000e+00  3.67916768e-06]","[[ 9.95132766e-05  1.59995277e-03]
 [-4.08143869e-05  1.54002121e-03]]",[],0.0,0.0
1787560312.282902,1.792451660988372,1.3576820862351255,2.4358712265304625,"[ 4.34442383e-06 -2.93670922e-07  0.00000000e+00  0.00000000e+00
  0.00000000e+00 -3.94361633e-07 -2.93670922e-07  2.94519522e-06
  0.00000000e+00  0.00000000e+00  0.00000000e+00 -1.29696521e-07
  0.00000000e+00  0.00000000e+00  0.00000000e+00  0.00000000e+00
  0.00000000e+00  0.00000000e+00  0.00000000e+00  0.00000000e+00
  0.00000000e+00  0.00000000e+00  0.00000000e+00  0.00000000e+00
  0.00000000e+00  0.00000000e+00  0.00000000e+00  0.00000000e+00
  0.00000000e+00  0.00000000e+00 -3.94361633e-07 -1.29696521e-07
  0.00000000e+00  0.00000000e+00  0.00000000e+00  3.67916768e-06]","[[ 9.95132766e-05  1.59995277e-03]
 [-4.08143869e-05  1.54002121e-03]]",[],0.0,0.0
1787560312.3245294,1.792451660988372,1.3576820862351255,2.4358712265304625,"[ 4.34442383e-06 -2.93670922e-07  0.00000000e+00  0.00000000e+00
  0.00000000e+00 -3.94361633e-07 -2.93670922e-07  2.94519522e-06
  0.00000000e+00  0.00000000e+00  0.00000000e+00 -1.29696521e-07
  0.00000000e+00  0.00000000e+00  0.00000000e+00  0.00000000e+00
  0.00000000e+00  0.00000000e+00  0.00000000e+00  0.00000000e+00
  0.00000000e+00  0.00000000e+00  0.00000000e+00  0.00000000e+00
  0.00000000e+00  0.00000000e+00  0.00000000e+00  0.00000000e+00
  0.00000000e+00  0.00000000e+00 -3.94361633e-07 -1.29696521e-07
  0.00000000e+00  0.00000000e+00  0.00000000e+00  3.67916768e-06]","[[ 9.95132766e-05  1.59995277e-03]
 [-4.08143869e-05  1.54002121e-03]]",[],0.0,0.0
1787560312.3771691,1.792451660988372,1.3576820862351255,2.4358712265304625,"[ 4.34442383e-06 -2.93670922e-07  0.00000000e+00  0.00000000e+00
  0.00000000e+00 -3.94361633e-07 -2.93670922e-07  2.94519522e-06
  0.00000000e+00  0.00000000e+00  0.00000000e+00 -1.29696521e-07
  0.00000000e+00  0.00000000e+00  0.00000000e+00  0.00000000e+00
  0.00000000e+00  0.00000000e+00  0.00000000e+00  0.00000000e+00
  0.00000000e+00  0.00000000e+00  0.00000000e+00  0.00000000e+00
  0.00000000e+00  0.00000000e+00  0.00000000e+00  0.00000000e+00
  0.00000000e+00  0.00000000e+00 -3.94361633e-07 -1.29696521e-07
  0.00000000e+00  0.00000000e+00  0.00000000e+00  3.67916768e-06]","[[ 9.95132766e-05  1.59995277e-03]
 [-4.08143869e-05  1.54002121e-03]]",[],0.0,0.0
1787560312.436374,1.792451660988372,1.3576820862351255,2.4358712265304625,"[ 4.34442383e-06 -2.93670922e-07  0.00000000e+00  0.00000000e+00
  0.00000000e+00 -3.94361633e-07 -2.93670922e-07  2.94519522e-06
  0.00000000e+00  0.00000000e+00  0.00000000e+00 -1.29696521e-07
  0.00000000e+00  0.00000000e+00  0.00000000e+00  0.00000000e+00
  0.00000000e+00  0.00000000e+00  0.00000000e+00  0.00000000e+00
  0.00000000e+00  0.00000000e+00  0.00000000e+00  0.00000000e+00
  0.00000000e+00  0.00000000e+00  0.00000000e+00  0.00000000e+00
  0.00000000e+00  0.00000000e+00 -3.94361633e-07 -1.29696521e-07
  0.00000000e+00  0.00000000e+00  0.00000000e+00  3.67916768e-06]","[[ 9.95132766e-05  1.59995277e-03]
 [-4.08143869e-05  1.54002121e-03]]",[],0.0,0.0
1787560312.4745598,1.792451660988372,1.3576820862351255,2.4358712265304625,"[ 4.34442383e-06 -2.93670922e-07  0.00000000e+00  0.00000000e+00
  0.00000000e+00 -3.94361633e-07 -2.93670922e-07  2.94519522e-06
  0.00000000e+00  0.00000000e+00  0.00000000e+00 -1.29696521e-07
  0.00000000e+00  0.00000000e+00  0.00000000e+00  0.00000000e+00
  0.00000000e+00  0.00000000e+00  0.00000000e+00  0.00000000e+00
  0.00000000e+00  0.00000000e+00  0.00000000e+00  0.00000000e+00
  0.00000000e+00  0.00000000e+00  0.00000000e+00  0.00000000e+00
  0.00000000e+00  0.00000000e+00 -3.94361633e-07 -1.29696521e-07
  0.00000000e+00  0.00000000e+00  0.00000000e+00  3.67916768e-06]","[[ 9.95132766e-05  1.59995277e-03]
 [-4.08143869e-05  1.54002121e-03]]",[],0.0,0.0
1787560312.524677,1.792451660988372,1.3576820862351255,2.4358712265304625,"[ 4.34442383e-06 -2.93670922e-07  0.00000000e+00  0.00000000e+00
  0.00000000e+00 -3.94361633e-07 -2.93670922e-07  2.94519522e-06
  0.00000000e+00  0.00000000e+00  0.00000000e+00 -1.29696521e-07
  0.00000000e+00  0.00000000e+00  0.00000000e+00  0.00000000e+00
  0.00000000e+00  0.00000000e+00  0.00000000e+00  0.00000000e+00
  0.00000000e+00  0.00000000e+00  0.00000000e+00  0.00000000e+00
  0.00000000e+00  0.00000000e+00  0.00000000e+00  0.00000000e+00
  0.00000000e+00  0.00000000e+00 -3.94361633e-07 -1.29696521e-07
  0.00000000e+00  0.00000000e+00  0.00000000e+00  3.67916768e-06]","[[ 9.95132766e-05  1.59995277e-03]
 [-4.08143869e-05  1.54002121e-03]]",[],0.0,0.0
1787560312.582354,1.792451660988372,1.3576820862351255,2.4358712265304625,"[ 4.34442383e-06 -2.93670922e-07  0.00000000e+00  0.00000000e+00
  0.00000000e+00 -3.94361633e-07 -2.93670922e-07  2.94519522e-06
  0.00000000e+00  0.00000000e+00  0.00000000e+00 -1.29696521e-07
  0.00000000e+00  0.00000000e+00  0.00000000e+00  0.00000000e+00
  0.00000000e+00  0.00000000e+00  0.00000000e+00  0.00000000e+00
  0.00000000e+00  0.00000000e+00  0.00000000e+00  0.00000000e+00
  0.00000000e+00  0.00000000e+00  0.00000000e+00  0.00000000e+00
  0.00000000e+00  0.00000000e+00 -3.94361633e-07 -1.29696521e-07
  0.00000000e+00  0.00000000e+00  0.00000000e+00  3.67916768e-06]","[[ 9.95132766e-05  1.59995277e-03]
 [-4.08143869e-05  1.54002121e-03]]",[],0.0,0.0
1787560312.6346278,1.792451660988372,1.3576820862351255,2.4358712265304625,"[ 4.34442383e-06 -2.93670922e-07  0.00000000e+00  0.00000000e+00
  0.00000000e+00 -3.94361633e-07 -2.93670922e-07  2.94519522e-06
  0.00000000e+00  0.00000000e+00  0.00000000e+00 -1.29696521e-07
  0.00000000e+00  0.00000000e+00  0.00000000e+00  0.00000000e+00
  0.00000000e+00  0.00000000e+00  0.00000000e+00  0.00000000e+00
  0.00000000e+00  0.00000000e+00  0.00000000e+00  0.00000000e+00
  0.00000000e+00  0.00000000e+00  0.00000000e+00  0.00000000e+00
  0.00000000e+00  0.00000000e+00 -3.94361633e-07 -1.29696521e-07
  0.00000000e+00  0.00000000e+00  0.00000000e+00  3.67916768e-06]","[[ 9.95132766e-05  1.59995277e-03]
 [-4.08143869e-05  1.54002121e-03]]",[],0.0,0.0
1787560312.684458,1.792451660988372,1.3576820862351255,2.4358712265304625,"[ 4.34442383e-06 -2.93670922e-07  0.00000000e+00  0.00000000e+00
  0.00000000e+00 -3.94361633e-07 -2.93670922e-07  2.94519522e-06
  0.00000000e+00  0.00000000e+00  0.00000000e+00 -1.29696521e-07
  0.00000000e+00  0.00000000e+00  0.00000000e+00  0.00000000e+00
  0.00000000e+00  0.00000000e+00  0.00000000e+00  0.00000000e+00
  0.00000000e+00  0.00000000e+00  0.00000000e+00  0.00000000e+00
  0.00000000e+00  0.00000000e+00  0.00000000e+00  0.00000000e+00
  0.00000000e+00  0.00000000e+00 -3.94361633e-07 -1.29696521e-07
  0.00000000e+00  0.00000000e+00  0.00000000e+00  3.67916768e-06]","[[ 9.95132766e-05  1.59995277e-03]
 [-4.08143869e-05  1.54002121e-03]]",[],0.0,0.0
1787560312.7283866,1.792451660988372,1.3576820862351255,2.4358712265304625,"[ 4.34442383e-06 -2.93670922e-07  0.00000000e+00  0.00000000e+00
  0.00000000e+00 -3.94361633e-07 -2.93670922e-07  2.94519522e-06
  0.00000000e+00  0.00000000e+00  0.00000000e+00 -1.29696521e-07
  0.00000000e+00  0.00000000e+00  0.00000000e+00  0.00000000e+00
  0.00000000e+00  0.00000000e+00  0.00000000e+00  0.00000000e+00
  0.00000000e+00  0.00000000e+00  0.00000000e+00  0.00000000e+00
  0.00000000e+00  0.00000000e+00  0.00000000e+00  0.00000000e+00
  0.00000000e+00  0.00000000e+00 -3.94361633e-07 -1.29696521e-07
  0.00000000e+00  0.00000000e+00  0.00000000e+00  3.67916768e-06]","[[ 9.95132766e-05  1.59995277e-03]
 [-4.08143869e-05  1.54002121e-03]]",[],0.0,0.0
1787560312.7758346,1.792451660988372,1.3576820862351255,2.4358712265304625,"[ 4.34442383e-06 -2.93670922e-07  0.00000000e+00  0.00000000e+00
  0.00000000e+00 -3.94361633e-07 -2.93670922e-07  2.94519522e-06
  0.00000000e+00  0.00000000e+00  0.00000000e+00 -1.29696521e-07
  0.00000000e+00  0.00000000e+00  0.00000000e+00  0.00000000e+00
  0.00000000e+00  0.00000000e+00  0.00000000e+00  0.00000000e+00
  0.00000000e+00  0.00000000e+00  0.00000000e+00  0.00000000e+00
  0.00000000e+00  0.00000000e+00  0.00000000e+00  0.00000000e+00
  0.00000000e+00  0.00000000e+00 -3.94361633e-07 -1.29696521e-07
  0.00000000e+00  0.00000000e+00  0.00000000e+00  3.67916768e-06]","[[ 9.95132766e-05  1.59995277e-03]
 [-4.08143869e-05  1.54002121e-03]]",[],0.0,0.0
1787560312.825475,1.792451660988372,1.3576820862351255,2.4358712265304625,"[ 4.34442383e-06 -2.93670922e-07  0.00000000e+00  0.00000000e+00
  0.00000000e+00 -3.94361633e-07 -2.93670922e-07  2.94519522e-06
  0.00000000e+00  0.00000000e+00  0.00000000e+00 -1.29696521e-07
  0.00000000e+00  0.00000000e+00  0.00000000e+00  0.00000000e+00
  0.00000000e+00  0.00000000e+00  0.00000000e+00  0.00000000e+00
  0.00000000e+00  0.00000000e+00  0.00000000e+00  0.00000000e+00
  0.00000000e+00  0.00000000e+00  0.00000000e+00  0.00000000e+00
  0.00000000e+00  0.00000000e+00 -3.94361633e-07 -1.29696521e-07
  0.00000000e+00  0.00000000e+00  0.00000000e+00  3.67916768e-06]","[[ 9.95132766e-05  1.59995277e-03]
 [-4.08143869e-05  1.54002121e-03]]",[],0.0,0.0
1787560312.8764882,1.792451660988372,1.3576820862351255,2.4358712265304625,"[ 4.34442383e-06 -2.93670922e-07  0.00000000e+00  0.00000000e+00
  0.00000000e+00 -3.94361633e-07 -2.93670922e-07  2.94519522e-06
  0.00000000e+00  0.00000000e+00  0.00000000e+00 -1.29696521e-07
  0.00000000e+00  0.00000000e+00  0.00000000e+00  0.00000000e+00
  0.00000000e+00  0.00000000e+00  0.00000000e+00  0.00000000e+00
  0.00000000e+00  0.00000000e+00  0.00000000e+00  0.00000000e+00
  0.00000000e+00  0.00000000e+00  0.00000000e+00  0.00000000e+00
  0.00000000e+00  0.00000000e+00 -3.94361633e-07 -1.29696521e-07
  0.00000000e+00  0.00000000e+00  0.00000000e+00  3.67916768e-06]","[[ 9.95132766e-05  1.59995277e-03]
 [-4.08143869e-05  1.54002121e-03]]",[],0.0,0.0
1787560312.9245589,1.792451660988372,1.3576820862351255,2.4358712265304625,"[ 4.34442383e-06 -2.93670922e-07  0.00000000e+00  0.00000000e+00
  0.00000000e+00 -3.94361633e-07 -2.93670922e-07  2.94519522e-06
  0.00000000e+00  0.00000000e+00  0.00000000e+00 -1.29696521e-07
  0.00000000e+00  0.00000000e+00  0.00000000e+00  0.00000000e+00
  0.00000000e+00  0.00000000e+00  0.00000000e+00  0.00000000e+00
  0.00000000e+00  0.00000000e+00  0.00000000e+00  0.00000000e+00
  0.00000000e+00  0.00000000e+00  0.00000000e+00  0.00000000e+00
  0.00000000e+00  0.00000000e+00 -3.94361633e-07 -1.29696521e-07
  0.00000000e+00  0.00000000e+00  0.00000000e+00  3.67916768e-06]","[[ 9.95132766e-05  1.59995277e-03]
 [-4.08143869e-05  1.54002121e-03]]",[],0.0,0.0
1787560312.978115,1.792451660988372,1.3576820862351255,2.4358712265304625,"[ 4.34442383e-06 -2.93670922e-07  0.00000000e+00  0.00000000e+00
  0.00000000e+00 -3.94361633e-07 -2.93670922e-07  2.94519522e-06
  0.00000000e+00  0.00000000e+00  0.00000000e+00 -1.29696521e-07
  0.00000000e+00  0.00000000e+00  0.00000000e+00  0.00000000e+00
  0.00000000e+00  0.00000000e+00  0.00000000e+00  0.00000000e+00
  0.00000000e+00  0.00000000e+00  0.00000000e+00  0.00000000e+00
  0.00000000e+00  0.00000000e+00  0.00000000e+00  0.00000000e+00
  0.00000000e+00  0.00000000e+00 -3.94361633e-07 -1.29696521e-07
  0.00000000e+00  0.00000000e+00  0.00000000e+00  3.67916768e-06]","[[ 9.95132766e-05  1.59995277e-03]
 [-4.08143869e-05  1.54002121e-03]]",[],0.0,0.0
1787560313.0257204,1.7990448049575392,1.3535482606292386,2.4336736305139546,"[ 4.19484543e-06 -3.55779179e-07  0.00000000e+00  0.00000000e+00
  0.00000000e+00 -4.14859347e-07 -3.55779179e-07  2.85496997e-06
  0.00000000e+00  0.00000000e+00  0.00000000e+00 -9.02247003e-08
  0.00000000e+00  0.00000000e+00  0.00000000e+00  0.00000000e+00
  0.00000000e+00  0.00000000e+00  0.00000000e+00  0.00000000e+00
  0.00000000e+00  0.00000000e+00  0.00000000e+00  0.00000000e+00
  0.00000000e+00  0.00000000e+00  0.00000000e+00  0.00000000e+00
  0.00000000e+00  0.00000000e+00 -4.14859347e-07 -9.02247003e-08
  0.00000000e+00  0.00000000e+00  0.00000000e+00  3.71301579e-06]","[[ 9.68833937e-05  1.56711205e-03]
 [-4.12016545e-05  1.41235173e-03]]",[],0.0,0.0
1787560313.074674,1.7990448049575392,1.3535482606292386,2.4336736305139546,"[ 4.19484543e-06 -3.55779179e-07  0.00000000e+00  0.00000000e+00
  0.00000000e+00 -4.14859347e-07 -3.55779179e-07  2.85496997e-06
  0.00000000e+00  0.00000000e+00  0.00000000e+00 -9.02247003e-08
  0.00000000e+00  0.00000000e+00  0.00000000e+00  0.00000000e+00
  0.00000000e+00  0.00000000e+00  0.00000000e+00  0.00000000e+00
  0.00000000e+00  0.00000000e+00  0.00000000e+00  0.00000000e+00
  0.00000000e+00  0.00000000e+00  0.00000000e+00  0.00000000e+00
  0.00000000e+00  0.00000000e+00 -4.14859347e-07 -9.02247003e-08
  0.00000000e+00  0.00000000e+00  0.00000000e+00  3.71301579e-06]","[[ 9.68833937e-05  1.56711205e-03]
 [-4.12016545e-05  1.41235173e-03]]",[],0.0,0.0
1787560313.1386523,1.7990448049575392,1.3535482606292386,2.4336736305139546,"[ 4.19484543e-06 -3.55779179e-07  0.00000000e+00  0.00000000e+00
  0.00000000e+00 -4.14859347e-07 -3.55779179e-07  2.85496997e-06
  0.00000000e+00  0.00000000e+00  0.00000000e+00 -9.02247003e-08
  0.00000000e+00  0.00000000e+00  0.00000000e+00  0.00000000e+00
  0.00000000e+00  0.00000000e+00  0.00000000e+00  0.00000000e+00
  0.00000000e+00  0.00000000e+00  0.00000000e+00  0.00000000e+00
  0.00000000e+00  0.00000000e+00  0.00000000e+00  0.00000000e+00
  0.00000000e+00  0.00000000e+00 -4.14859347e-07 -9.02247003e-08
  0.00000000e+00  0.00000000e+00  0.00000000e+00  3.71301579e-06]","[[ 9.68833937e-05  1.56711205e-03]
 [-4.12016545e-05  1.41235173e-03]]",[],0.0,0.0
1787560313.1747665,1.7990448049575392,1.3535482606292386,2.4336736305139546,"[ 4.19484543e-06 -3.55779179e-07  0.00000000e+00  0.00000000e+00
  0.00000000e+00 -4.14859347e-07 -3.55779179e-07  2.85496997e-06
  0.00000000e+00  0.00000000e+00  0.00000000e+00 -9.02247003e-08
  0.00000000e+00  0.00000000e+00  0.00000000e+00  0.00000000e+00
  0.00000000e+00  0.00000000e+00  0.00000000e+00  0.00000000e+00
  0.00000000e+00  0.00000000e+00  0.00000000e+00  0.00000000e+00
  0.00000000e+00  0.00000000e+00  0.00000000e+00  0.00000000e+00
  0.00000000e+00  0.00000000e+00 -4.14859347e-07 -9.02247003e-08
  0.00000000e+00  0.00000000e+00  0.00000000e+00  3.71301579e-06]","[[ 9.68833937e-05  1.56711205e-03]
 [-4.12016545e-05  1.41235173e-03]]",[],0.0,0.0
1787560313.2253084,1.7990448049575392,1.3535482606292386,2.4336736305139546,"[ 4.19484543e-06 -3.55779179e-07  0.00000000e+00  0.00000000e+00
  0.00000000e+00 -4.14859347e-07 -3.55779179e-07  2.85496997e-06
  0.00000000e+00  0.00000000e+00  0.00000000e+00 -9.02247003e-08
