time,x,y,yaw,cov_prop,K_gain,innovation,v_ekf,omega_ekf
1787564003.1099448,2.4101546572295,1.3282826823331786,2.3055358988703816,"[ 5.58046962e-05  3.40841316e-06  0.00000000e+00  0.00000000e+00
  0.00000000e+00 -7.19350647e-06  3.40841316e-06  4.73683607e-05
  0.00000000e+00  0.00000000e+00  0.00000000e+00 -1.99398671e-06
  0.00000000e+00  0.00000000e+00  0.00000000e+00  0.00000000e+00
  0.00000000e+00  0.00000000e+00  0.00000000e+00  0.00000000e+00
  0.00000000e+00  0.00000000e+00  0.00000000e+00  0.00000000e+00
  0.00000000e+00  0.00000000e+00  0.00000000e+00  0.00000000e+00
  0.00000000e+00  0.00000000e+00 -7.19350647e-06 -1.99398671e-06
  0.00000000e+00  0.00000000e+00  0.00000000e+00  5.17537897e-06]","[[-0.00089594  0.03247529]
 [-0.00100405 -0.00885576]]",[],0.0,0.0
1787564003.1597528,2.4101546572295,1.3282826823331786,2.3055358988703816,"[ 5.58046962e-05  3.40841316e-06  0.00000000e+00  0.00000000e+00
  0.00000000e+00 -7.19350647e-06  3.40841316e-06  4.73683607e-05
  0.00000000e+00  0.00000000e+00  0.00000000e+00 -1.99398671e-06
  0.00000000e+00  0.00000000e+00  0.00000000e+00  0.00000000e+00
  0.00000000e+00  0.00000000e+00  0.00000000e+00  0.00000000e+00
  0.00000000e+00  0.00000000e+00  0.00000000e+00  0.00000000e+00
  0.00000000e+00  0.00000000e+00  0.00000000e+00  0.00000000e+00
  0.00000000e+00  0.00000000e+00 -7.19350647e-06 -1.99398671e-06
  0.00000000e+00  0.00000000e+00  0.00000000e+00  5.17537897e-06]","[[-0.00089594  0.03247529]
 [-0.00100405 -0.00885576]]",[],0.0,0.0
1787564003.209699,2.4101546572295,1.3282826823331786,2.3055358988703816,"[ 5.58046962e-05  3.40841316e-06  0.00000000e+00  0.00000000e+00
  0.00000000e+00 -7.19350647e-06  3.40841316e-06  4.73683607e-05
  0.00000000e+00  0.00000000e+00  0.00000000e+00 -1.99398671e-06
  0.00000000e+00  0.00000000e+00  0.00000000e+00  0.00000000e+00
  0.00000000e+00  0.00000000e+00  0.00000000e+00  0.00000000e+00
  0.00000000e+00  0.00000000e+00  0.00000000e+00  0.00000000e+00
  0.00000000e+00  0.00000000e+00  0.00000000e+00  0.00000000e+00
  0.00000000e+00  0.00000000e+00 -7.19350647e-06 -1.99398671e-06
  0.00000000e+00  0.00000000e+00  0.00000000e+00  5.17537897e-06]","[[-0.00089594  0.03247529]
 [-0.00100405 -0.00885576]]",[],0.0,0.0
1787564003.2658038,2.4101546572295,1.3282826823331786,2.3055358988703816,"[ 5.58046962e-05  3.40841316e-06  0.00000000e+00  0.00000000e+00
  0.00000000e+00 -7.19350647e-06  3.40841316e-06  4.73683607e-05
  0.00000000e+00  0.00000000e+00  0.00000000e+00 -1.99398671e-06
  0.00000000e+00  0.00000000e+00  0.00000000e+00  0.00000000e+00
  0.00000000e+00  0.00000000e+00  0.00000000e+00  0.00000000e+00
  0.00000000e+00  0.00000000e+00  0.00000000e+00  0.00000000e+00
  0.00000000e+00  0.00000000e+00  0.00000000e+00  0.00000000e+00
  0.00000000e+00  0.00000000e+00 -7.19350647e-06 -1.99398671e-06
  0.00000000e+00  0.00000000e+00  0.00000000e+00  5.17537897e-06]","[[-0.00089594  0.03247529]
 [-0.00100405 -0.00885576]]",[],0.0,0.0
1787564003.3110034,2.4101546572295,1.3282826823331786,2.3055358988703816,"[ 5.58046962e-05  3.40841316e-06  0.00000000e+00  0.00000000e+00
  0.00000000e+00 -7.19350647e-06  3.40841316e-06  4.73683607e-05
  0.00000000e+00  0.00000000e+00  0.00000000e+00 -1.99398671e-06
  0.00000000e+00  0.00000000e+00  0.00000000e+00  0.00000000e+00
  0.00000000e+00  0.00000000e+00  0.00000000e+00  0.00000000e+00
  0.00000000e+00  0.00000000e+00  0.00000000e+00  0.00000000e+00
  0.00000000e+00  0.00000000e+00  0.00000000e+00  0.00000000e+00
  0.00000000e+00  0.00000000e+00 -7.19350647e-06 -1.99398671e-06
  0.00000000e+00  0.00000000e+00  0.00000000e+00  5.17537897e-06]","[[-0.00089594  0.03247529]
 [-0.00100405 -0.00885576]]",[],0.0,0.0
1787564003.36389,2.4101546572295,1.3282826823331786,2.3055358988703816,"[ 5.58046962e-05  3.40841316e-06  0.00000000e+00  0.00000000e+00
  0.00000000e+00 -7.19350647e-06  3.40841316e-06  4.73683607e-05
  0.00000000e+00  0.00000000e+00  0.00000000e+00 -1.99398671e-06
  0.00000000e+00  0.00000000e+00  0.00000000e+00  0.00000000e+00
  0.00000000e+00  0.00000000e+00  0.00000000e+00  0.00000000e+00
  0.00000000e+00  0.00000000e+00  0.00000000e+00  0.00000000e+00
  0.00000000e+00  0.00000000e+00  0.00000000e+00  0.00000000e+00
  0.00000000e+00  0.00000000e+00 -7.19350647e-06 -1.99398671e-06
  0.00000000e+00  0.00000000e+00  0.00000000e+00  5.17537897e-06]","[[-0.00089594  0.03247529]
 [-0.00100405 -0.00885576]]",[],0.0,0.0
1787564003.4122345,2.4101546572295,1.3282826823331786,2.3055358988703816,"[ 5.58046962e-05  3.40841316e-06  0.00000000e+00  0.00000000e+00
  0.00000000e+00 -7.19350647e-06  3.40841316e-06  4.73683607e-05
  0.00000000e+00  0.00000000e+00  0.00000000e+00 -1.99398671e-06
  0.00000000e+00  0.00000000e+00  0.00000000e+00  0.00000000e+00
  0.00000000e+00  0.00000000e+00  0.00000000e+00  0.00000000e+00
  0.00000000e+00  0.00000000e+00  0.00000000e+00  0.00000000e+00
  0.00000000e+00  0.00000000e+00  0.00000000e+00  0.00000000e+00
  0.00000000e+00  0.00000000e+00 -7.19350647e-06 -1.99398671e-06
  0.00000000e+00  0.00000000e+00  0.00000000e+00  5.17537897e-06]","[[-0.00089594  0.03247529]
 [-0.00100405 -0.00885576]]",[],0.0,0.0
1787564003.4629874,2.4101546572295,1.3282826823331786,2.3055358988703816,"[ 5.58046962e-05  3.40841316e-06  0.00000000e+00  0.00000000e+00
  0.00000000e+00 -7.19350647e-06  3.40841316e-06  4.73683607e-05
  0.00000000e+00  0.00000000e+00  0.00000000e+00 -1.99398671e-06
  0.00000000e+00  0.00000000e+00  0.00000000e+00  0.00000000e+00
  0.00000000e+00  0.00000000e+00  0.00000000e+00  0.00000000e+00
  0.00000000e+00  0.00000000e+00  0.00000000e+00  0.00000000e+00
  0.00000000e+00  0.00000000e+00  0.00000000e+00  0.00000000e+00
  0.00000000e+00  0.00000000e+00 -7.19350647e-06 -1.99398671e-06
  0.00000000e+00  0.00000000e+00  0.00000000e+00  5.17537897e-06]","[[-0.00089594  0.03247529]
 [-0.00100405 -0.00885576]]",[],0.0,0.0
1787564003.512271,2.4101546572295,1.3282826823331786,2.3055358988703816,"[ 5.58046962e-05  3.40841316e-06  0.00000000e+00  0.00000000e+00
  0.00000000e+00 -7.19350647e-06  3.40841316e-06  4.73683607e-05
  0.00000000e+00  0.00000000e+00  0.00000000e+00 -1.99398671e-06
  0.00000000e+00  0.00000000e+00  0.00000000e+00  0.00000000e+00
  0.00000000e+00  0.00000000e+00  0.00000000e+00  0.00000000e+00
  0.00000000e+00  0.00000000e+00  0.00000000e+00  0.00000000e+00
  0.00000000e+00  0.00000000e+00  0.00000000e+00  0.00000000e+00
  0.00000000e+00  0.00000000e+00 -7.19350647e-06 -1.99398671e-06
  0.00000000e+00  0.00000000e+00  0.00000000e+00  5.17537897e-06]","[[-0.00089594  0.03247529]
 [-0.00100405 -0.00885576]]",[],0.0,0.0
1787564003.5607033,2.4101546572295,1.3282826823331786,2.3055358988703816,"[ 5.58046962e-05  3.40841316e-06  0.00000000e+00  0.00000000e+00
  0.00000000e+00 -7.19350647e-06  3.40841316e-06  4.73683607e-05
  0.00000000e+00  0.00000000e+00  0.00000000e+00 -1.99398671e-06
  0.00000000e+00  0.00000000e+00  0.00000000e+00  0.00000000e+00
  0.00000000e+00  0.00000000e+00  0.00000000e+00  0.00000000e+00
  0.00000000e+00  0.00000000e+00  0.00000000e+00  0.00000000e+00
  0.00000000e+00  0.00000000e+00  0.00000000e+00  0.00000000e+00
  0.00000000e+00  0.00000000e+00 -7.19350647e-06 -1.99398671e-06
  0.00000000e+00  0.00000000e+00  0.00000000e+00  5.17537897e-06]","[[-0.00089594  0.03247529]
 [-0.00100405 -0.00885576]]",[],0.0,0.0
1787564003.6118095,2.4101546572295,1.3282826823331786,2.3055358988703816,"[ 5.58046962e-05  3.40841316e-06  0.00000000e+00  0.00000000e+00
  0.00000000e+00 -7.19350647e-06  3.40841316e-06  4.73683607e-05
  0.00000000e+00  0.00000000e+00  0.00000000e+00 -1.99398671e-06
  0.00000000e+00  0.00000000e+00  0.00000000e+00  0.00000000e+00
  0.00000000e+00  0.00000000e+00  0.00000000e+00  0.00000000e+00
  0.00000000e+00  0.00000000e+00  0.00000000e+00  0.00000000e+00
  0.00000000e+00  0.00000000e+00  0.00000000e+00  0.00000000e+00
  0.00000000e+00  0.00000000e+00 -7.19350647e-06 -1.99398671e-06
  0.00000000e+00  0.00000000e+00  0.00000000e+00  5.17537897e-06]","[[-0.00089594  0.03247529]
 [-0.00100405 -0.00885576]]",[],0.0,0.0
1787564003.661943,2.4101546572295,1.3282826823331786,2.3055358988703816,"[ 5.58046962e-05  3.40841316e-06  0.00000000e+00  0.00000000e+00
  0.00000000e+00 -7.19350647e-06  3.40841316e-06  4.73683607e-05
  0.00000000e+00  0.00000000e+00  0.00000000e+00 -1.99398671e-06
  0.00000000e+00  0.00000000e+00  0.00000000e+00  0.00000000e+00
  0.00000000e+00  0.00000000e+00  0.00000000e+00  0.00000000e+00
  0.00000000e+00  0.00000000e+00  0.00000000e+00  0.00000000e+00
  0.00000000e+00  0.00000000e+00  0.00000000e+00  0.00000000e+00
  0.00000000e+00  0.00000000e+00 -7.19350647e-06 -1.99398671e-06
  0.00000000e+00  0.00000000e+00  0.00000000e+00  5.17537897e-06]","[[-0.00089594  0.03247529]
 [-0.00100405 -0.00885576]]",[],0.0,0.0
1787564003.7136328,2.4101546572295,1.3282826823331786,2.3055358988703816,"[ 5.58046962e-05  3.40841316e-06  0.00000000e+00  0.00000000e+00
  0.00000000e+00 -7.19350647e-06  3.40841316e-06  4.73683607e-05
  0.00000000e+00  0.00000000e+00  0.00000000e+00 -1.99398671e-06
  0.00000000e+00  0.00000000e+00  0.00000000e+00  0.00000000e+00
  0.00000000e+00  0.00000000e+00  0.00000000e+00  0.00000000e+00
  0.00000000e+00  0.00000000e+00  0.00000000e+00  0.00000000e+00
  0.00000000e+00  0.00000000e+00  0.00000000e+00  0.00000000e+00
  0.00000000e+00  0.00000000e+00 -7.19350647e-06 -1.99398671e-06
  0.00000000e+00  0.00000000e+00  0.00000000e+00  5.17537897e-06]","[[-0.00089594  0.03247529]
 [-0.00100405 -0.00885576]]",[],0.0,0.0
1787564003.7648463,2.4101546572295,1.3282826823331786,2.3055358988703816,"[ 5.58046962e-05  3.40841316e-06  0.00000000e+00  0.00000000e+00
  0.00000000e+00 -7.19350647e-06  3.40841316e-06  4.73683607e-05
  0.00000000e+00  0.00000000e+00  0.00000000e+00 -1.99398671e-06
  0.00000000e+00  0.00000000e+00  0.00000000e+00  0.00000000e+00
  0.00000000e+00  0.00000000e+00  0.00000000e+00  0.00000000e+00
  0.00000000e+00  0.00000000e+00  0.00000000e+00  0.00000000e+00
  0.00000000e+00  0.00000000e+00  0.00000000e+00  0.00000000e+00
  0.00000000e+00  0.00000000e+00 -7.19350647e-06 -1.99398671e-06
  0.00000000e+00  0.00000000e+00  0.00000000e+00  5.17537897e-06]","[[-0.00089594  0.03247529]
 [-0.00100405 -0.00885576]]",[],0.0,0.0
1787564003.809672,2.4101546572295,1.3282826823331786,2.3055358988703816,"[ 5.58046962e-05  3.40841316e-06  0.00000000e+00  0.00000000e+00
  0.00000000e+00 -7.19350647e-06  3.40841316e-06  4.73683607e-05
  0.00000000e+00  0.00000000e+00  0.00000000e+00 -1.99398671e-06
  0.00000000e+00  0.00000000e+00  0.00000000e+00  0.00000000e+00
  0.00000000e+00  0.00000000e+00  0.00000000e+00  0.00000000e+00
  0.00000000e+00  0.00000000e+00  0.00000000e+00  0.00000000e+00
  0.00000000e+00  0.00000000e+00  0.00000000e+00  0.00000000e+00
  0.00000000e+00  0.00000000e+00 -7.19350647e-06 -1.99398671e-06
  0.00000000e+00  0.00000000e+00  0.00000000e+00  5.17537897e-06]","[[-0.00089594  0.03247529]
 [-0.00100405 -0.00885576]]",[],0.0,0.0
1787564003.8614178,2.4101546572295,1.3282826823331786,2.3055358988703816,"[ 5.58046962e-05  3.40841316e-06  0.00000000e+00  0.00000000e+00
  0.00000000e+00 -7.19350647e-06  3.40841316e-06  4.73683607e-05
  0.00000000e+00  0.00000000e+00  0.00000000e+00 -1.99398671e-06
  0.00000000e+00  0.00000000e+00  0.00000000e+00  0.00000000e+00
  0.00000000e+00  0.00000000e+00  0.00000000e+00  0.00000000e+00
  0.00000000e+00  0.00000000e+00  0.00000000e+00  0.00000000e+00
  0.00000000e+00  0.00000000e+00  0.00000000e+00  0.00000000e+00
  0.00000000e+00  0.00000000e+00 -7.19350647e-06 -1.99398671e-06
  0.00000000e+00  0.00000000e+00  0.00000000e+00  5.17537897e-06]","[[-0.00089594  0.03247529]
 [-0.00100405 -0.00885576]]",[],0.0,0.0
1787564003.9122071,2.4101546572295,1.3282826823331786,2.3055358988703816,"[ 5.58046962e-05  3.40841316e-06  0.00000000e+00  0.00000000e+00
  0.00000000e+00 -7.19350647e-06  3.40841316e-06  4.73683607e-05
  0.00000000e+00  0.00000000e+00  0.00000000e+00 -1.99398671e-06
  0.00000000e+00  0.00000000e+00  0.00000000e+00  0.00000000e+00
  0.00000000e+00  0.00000000e+00  0.00000000e+00  0.00000000e+00
  0.00000000e+00  0.00000000e+00  0.00000000e+00  0.00000000e+00
  0.00000000e+00  0.00000000e+00  0.00000000e+00  0.00000000e+00
  0.00000000e+00  0.00000000e+00 -7.19350647e-06 -1.99398671e-06
  0.00000000e+00  0.00000000e+00  0.00000000e+00  5.17537897e-06]","[[-0.00089594  0.03247529]
 [-0.00100405 -0.00885576]]",[],0.0,0.0
1787564003.9600418,2.4101546572295,1.3282826823331786,2.3055358988703816,"[ 5.58046962e-05  3.40841316e-06  0.00000000e+00  0.00000000e+00
  0.00000000e+00 -7.19350647e-06  3.40841316e-06  4.73683607e-05
  0.00000000e+00  0.00000000e+00  0.00000000e+00 -1.99398671e-06
  0.00000000e+00  0.00000000e+00  0.00000000e+00  0.00000000e+00
  0.00000000e+00  0.00000000e+00  0.00000000e+00  0.00000000e+00
  0.00000000e+00  0.00000000e+00  0.00000000e+00  0.00000000e+00
  0.00000000e+00  0.00000000e+00  0.00000000e+00  0.00000000e+00
  0.00000000e+00  0.00000000e+00 -7.19350647e-06 -1.99398671e-06
  0.00000000e+00  0.00000000e+00  0.00000000e+00  5.17537897e-06]","[[-0.00089594  0.03247529]
 [-0.00100405 -0.00885576]]",[],0.0,0.0
1787564004.0097542,2.4101546572295,1.3282826823331786,2.3055358988703816,"[ 5.58046962e-05  3.40841316e-06  0.00000000e+00  0.00000000e+00
  0.00000000e+00 -7.19350647e-06  3.40841316e-06  4.73683607e-05
  0.00000000e+00  0.00000000e+00  0.00000000e+00 -1.99398671e-06
  0.00000000e+00  0.00000000e+00  0.00000000e+00  0.00000000e+00
  0.00000000e+00  0.00000000e+00  0.00000000e+00  0.00000000e+00
  0.00000000e+00  0.00000000e+00  0.00000000e+00  0.00000000e+00
  0.00000000e+00  0.00000000e+00  0.00000000e+00  0.00000000e+00
  0.00000000e+00  0.00000000e+00 -7.19350647e-06 -1.99398671e-06
  0.00000000e+00  0.00000000e+00  0.00000000e+00  5.17537897e-06]","[[-0.00089594  0.03247529]
 [-0.00100405 -0.00885576]]",[],0.0,0.0
1787564004.0697126,2.4101546572295,1.3282826823331786,2.3055358988703816,"[ 5.58046962e-05  3.40841316e-06  0.00000000e+00  0.00000000e+00
  0.00000000e+00 -7.19350647e-06  3.40841316e-06  4.73683607e-05
  0.00000000e+00  0.00000000e+00  0.00000000e+00 -1.99398671e-06
  0.00000000e+00  0.00000000e+00  0.00000000e+00  0.00000000e+00
  0.00000000e+00  0.00000000e+00  0.00000000e+00  0.00000000e+00
  0.00000000e+00  0.00000000e+00  0.00000000e+00  0.00000000e+00
  0.00000000e+00  0.00000000e+00  0.00000000e+00  0.00000000e+00
  0.00000000e+00  0.00000000e+00 -7.19350647e-06 -1.99398671e-06
  0.00000000e+00  0.00000000e+00  0.00000000e+00  5.17537897e-06]","[[-0.00089594  0.03247529]
 [-0.00100405 -0.00885576]]",[],0.0,0.0
1787564004.1095774,2.3741772506120604,1.3068135307444468,2.3310974439612977,"[ 2.89286615e-05  1.33243259e-06  0.00000000e+00  0.00000000e+00
  0.00000000e+00 -3.02909164e-06  1.33243259e-06  2.44341168e-05
  0.00000000e+00  0.00000000e+00  0.00000000e+00 -1.53468357e-06
  0.00000000e+00  0.00000000e+00  0.00000000e+00  0.00000000e+00
  0.00000000e+00  0.00000000e+00  0.00000000e+00  0.00000000e+00
  0.00000000e+00  0.00000000e+00  0.00000000e+00  0.00000000e+00
  0.00000000e+00  0.00000000e+00  0.00000000e+00  0.00000000e+00
  0.00000000e+00  0.00000000e+00 -3.02909164e-06 -1.53468357e-06
  0.00000000e+00  0.00000000e+00  0.00000000e+00  4.18216496e-06]","[[-0.00041626  0.01772356]
 [-0.0005333  -0.00389487]]",[],0.0,0.0
1787564004.1601582,2.3741772506120604,1.3068135307444468,2.3310974439612977,"[ 2.89286615e-05  1.33243259e-06  0.00000000e+00  0.00000000e+00
  0.00000000e+00 -3.02909164e-06  1.33243259e-06  2.44341168e-05
  0.00000000e+00  0.00000000e+00  0.00000000e+00 -1.53468357e-06
  0.00000000e+00  0.00000000e+00  0.00000000e+00  0.00000000e+00
  0.00000000e+00  0.00000000e+00  0.00000000e+00  0.00000000e+00
  0.00000000e+00  0.00000000e+00  0.00000000e+00  0.00000000e+00
  0.00000000e+00  0.00000000e+00  0.00000000e+00  0.00000000e+00
  0.00000000e+00  0.00000000e+00 -3.02909164e-06 -1.53468357e-06
  0.00000000e+00  0.00000000e+00  0.00000000e+00  4.18216496e-06]","[[-0.00041626  0.01772356]
 [-0.0005333  -0.00389487]]",[],0.0,0.0
1787564004.23652,2.3741772506120604,1.3068135307444468,2.3310974439612977,"[ 2.89286615e-05  1.33243259e-06  0.00000000e+00  0.00000000e+00
  0.00000000e+00 -3.02909164e-06  1.33243259e-06  2.44341168e-05
  0.00000000e+00  0.00000000e+00  0.00000000e+00 -1.53468357e-06
  0.00000000e+00  0.00000000e+00  0.00000000e+00  0.00000000e+00
  0.00000000e+00  0.00000000e+00  0.00000000e+00  0.00000000e+00
  0.00000000e+00  0.00000000e+00  0.00000000e+00  0.00000000e+00
  0.00000000e+00  0.00000000e+00  0.00000000e+00  0.00000000e+00
  0.00000000e+00  0.00000000e+00 -3.02909164e-06 -1.53468357e-06
  0.00000000e+00  0.00000000e+00  0.00000000e+00  4.18216496e-06]","[[-0.00041626  0.01772356]
 [-0.0005333  -0.00389487]]",[],0.0,0.0
1787564004.260329,2.3741772506120604,1.3068135307444468,2.3310974439612977,"[ 2.89286615e-05  1.33243259e-06  0.00000000e+00  0.00000000e+00
  0.00000000e+00 -3.02909164e-06  1.33243259e-06  2.44341168e-05
  0.00000000e+00  0.00000000e+00  0.00000000e+00 -1.53468357e-06
  0.00000000e+00  0.00000000e+00  0.00000000e+00  0.00000000e+00
  0.00000000e+00  0.00000000e+00  0.00000000e+00  0.00000000e+00
  0.00000000e+00  0.00000000e+00  0.00000000e+00  0.00000000e+00
  0.00000000e+00  0.00000000e+00  0.00000000e+00  0.00000000e+00
  0.00000000e+00  0.00000000e+00 -3.02909164e-06 -1.53468357e-06
  0.00000000e+00  0.00000000e+00  0.00000000e+00  4.18216496e-06]","[[-0.00041626  0.01772356]
 [-0.0005333  -0.00389487]]",[],0.0,0.0
1787564004.3111706,2.3741772506120604,1.3068135307444468,2.3310974439612977,"[ 2.89286615e-05  1.33243259e-06  0.00000000e+00  0.00000000e+00
  0.00000000e+00 -3.02909164e-06  1.33243259e-06  2.44341168e-05
  0.00000000e+00  0.00000000e+00  0.00000000e+00 -1.53468357e-06
  0.00000000e+00  0.00000000e+00  0.00000000e+00  0.00000000e+00
  0.00000000e+00  0.00000000e+00  0.00000000e+00  0.00000000e+00
  0.00000000e+00  0.00000000e+00  0.00000000e+00  0.00000000e+00
  0.00000000e+00  0.00000000e+00  0.00000000e+00  0.00000000e+00
  0.00000000e+00  0.00000000e+00 -3.02909164e-06 -1.53468357e-06
  0.00000000e+00  0.00000000e+00  0.00000000e+00  4.18216496e-06]","[[-0.00041626  0.01772356]
 [-0.0005333  -0.00389487]]",[],0.0,0.0
1787564004.361222,2.3741772506120604,1.3068135307444468,2.3310974439612977,"[ 2.89286615e-05  1.33243259e-06  0.00000000e+00  0.00000000e+00
  0.00000000e+00 -3.02909164e-06  1.33243259e-06  2.44341168e-05
  0.00000000e+00  0.00000000e+00  0.00000000e+00 -1.53468357e-06
  0.00000000e+00  0.00000000e+00  0.00000000e+00  0.00000000e+00
  0.00000000e+00  0.00000000e+00  0.00000000e+00  0.00000000e+00
  0.00000000e+00  0.00000000e+00  0.00000000e+00  0.00000000e+00
  0.00000000e+00  0.00000000e+00  0.00000000e+00  0.00000000e+00
  0.00000000e+00  0.00000000e+00 -3.02909164e-06 -1.53468357e-06
  0.00000000e+00  0.00000000e+00  0.00000000e+00  4.18216496e-06]","[[-0.00041626  0.01772356]
 [-0.0005333  -0.00389487]]",[],0.0,0.0
1787564004.4102376,2.3741772506120604,1.3068135307444468,2.3310974439612977,"[ 2.89286615e-05  1.33243259e-06  0.00000000e+00  0.00000000e+00
  0.00000000e+00 -3.02909164e-06  1.33243259e-06  2.44341168e-05
  0.00000000e+00  0.00000000e+00  0.00000000e+00 -1.53468357e-06
  0.00000000e+00  0.00000000e+00  0.00000000e+00  0.00000000e+00
  0.00000000e+00  0.00000000e+00  0.00000000e+00  0.00000000e+00
  0.00000000e+00  0.00000000e+00  0.00000000e+00  0.00000000e+00
  0.00000000e+00  0.00000000e+00  0.00000000e+00  0.00000000e+00
  0.00000000e+00  0.00000000e+00 -3.02909164e-06 -1.53468357e-06
  0.00000000e+00  0.00000000e+00  0.00000000e+00  4.18216496e-06]","[[-0.00041626  0.01772356]
 [-0.0005333  -0.00389487]]",[],0.0,0.0
1787564004.4600978,2.3741772506120604,1.3068135307444468,2.3310974439612977,"[ 2.89286615e-05  1.33243259e-06  0.00000000e+00  0.00000000e+00
  0.00000000e+00 -3.02909164e-06  1.33243259e-06  2.44341168e-05
  0.00000000e+00  0.00000000e+00  0.00000000e+00 -1.53468357e-06
  0.00000000e+00  0.00000000e+00  0.00000000e+00  0.00000000e+00
  0.00000000e+00  0.00000000e+00  0.00000000e+00  0.00000000e+00
  0.00000000e+00  0.00000000e+00  0.00000000e+00  0.00000000e+00
  0.00000000e+00  0.00000000e+00  0.00000000e+00  0.00000000e+00
  0.00000000e+00  0.00000000e+00 -3.02909164e-06 -1.53468357e-06
  0.00000000e+00  0.00000000e+00  0.00000000e+00  4.18216496e-06]","[[-0.00041626  0.01772356]
 [-0.0005333  -0.00389487]]",[],0.0,0.0
1787564004.51518,2.3741772506120604,1.3068135307444468,2.3310974439612977,"[ 2.89286615e-05  1.33243259e-06  0.00000000e+00  0.00000000e+00
  0.00000000e+00 -3.02909164e-06  1.33243259e-06  2.44341168e-05
  0.00000000e+00  0.00000000e+00  0.00000000e+00 -1.53468357e-06
  0.00000000e+00  0.00000000e+00  0.00000000e+00  0.00000000e+00
  0.00000000e+00  0.00000000e+00  0.00000000e+00  0.00000000e+00
  0.00000000e+00  0.00000000e+00  0.00000000e+00  0.00000000e+00
  0.00000000e+00  0.00000000e+00  0.00000000e+00  0.00000000e+00
  0.00000000e+00  0.00000000e+00 -3.02909164e-06 -1.53468357e-06
  0.00000000e+00  0.00000000e+00  0.00000000e+00  4.18216496e-06]","[[-0.00041626  0.01772356]
 [-0.0005333  -0.00389487]]",[],0.0,0.0
1787564004.5634284,2.3741772506120604,1.3068135307444468,2.3310974439612977,"[ 2.89286615e-05  1.33243259e-06  0.00000000e+00  0.00000000e+00
  0.00000000e+00 -3.02909164e-06  1.33243259e-06  2.44341168e-05
  0.00000000e+00  0.00000000e+00  0.00000000e+00 -1.53468357e-06
  0.00000000e+00  0.00000000e+00  0.00000000e+00  0.00000000e+00
  0.00000000e+00  0.00000000e+00  0.00000000e+00  0.00000000e+00
  0.00000000e+00  0.00000000e+00  0.00000000e+00  0.00000000e+00
  0.00000000e+00  0.00000000e+00  0.00000000e+00  0.00000000e+00
  0.00000000e+00  0.00000000e+00 -3.02909164e-06 -1.53468357e-06
  0.00000000e+00  0.00000000e+00  0.00000000e+00  4.18216496e-06]","[[-0.00041626  0.01772356]
 [-0.0005333  -0.00389487]]",[],0.0,0.0
1787564004.6204517,2.3741772506120604,1.3068135307444468,2.3310974439612977,"[ 2.89286615e-05  1.33243259e-06  0.00000000e+00  0.00000000e+00
  0.00000000e+00 -3.02909164e-06  1.33243259e-06  2.44341168e-05
  0.00000000e+00  0.00000000e+00  0.00000000e+00 -1.53468357e-06
  0.00000000e+00  0.00000000e+00  0.00000000e+00  0.00000000e+00
  0.00000000e+00  0.00000000e+00  0.00000000e+00  0.00000000e+00
  0.00000000e+00  0.00000000e+00  0.00000000e+00  0.00000000e+00
  0.00000000e+00  0.00000000e+00  0.00000000e+00  0.00000000e+00
  0.00000000e+00  0.00000000e+00 -3.02909164e-06 -1.53468357e-06
  0.00000000e+00  0.00000000e+00  0.00000000e+00  4.18216496e-06]","[[-0.00041626  0.01772356]
 [-0.0005333  -0.00389487]]",[],0.0,0.0
1787564004.68036,2.3741772506120604,1.3068135307444468,2.3310974439612977,"[ 2.89286615e-05  1.33243259e-06  0.00000000e+00  0.00000000e+00
  0.00000000e+00 -3.02909164e-06  1.33243259e-06  2.44341168e-05
  0.00000000e+00  0.00000000e+00  0.00000000e+00 -1.53468357e-06
  0.00000000e+00  0.00000000e+00  0.00000000e+00  0.00000000e+00
  0.00000000e+00  0.00000000e+00  0.00000000e+00  0.00000000e+00
  0.00000000e+00  0.00000000e+00  0.00000000e+00  0.00000000e+00
  0.00000000e+00  0.00000000e+00  0.00000000e+00  0.00000000e+00
  0.00000000e+00  0.00000000e+00 -3.02909164e-06 -1.53468357e-06
  0.00000000e+00  0.00000000e+00  0.00000000e+00  4.18216496e-06]","[[-0.00041626  0.01772356]
 [-0.0005333  -0.00389487]]",[],0.0,0.0
1787564004.9968896,2.3741772506120604,1.3068135307444468,2.3310974439612977,"[ 2.89286615e-05  1.33243259e-06  0.00000000e+00  0.00000000e+00
  0.00000000e+00 -3.02909164e-06  1.33243259e-06  2.44341168e-05
  0.00000000e+00  0.00000000e+00  0.00000000e+00 -1.53468357e-06
  0.00000000e+00  0.00000000e+00  0.00000000e+00  0.00000000e+00
  0.00000000e+00  0.00000000e+00  0.00000000e+00  0.00000000e+00
  0.00000000e+00  0.00000000e+00  0.00000000e+00  0.00000000e+00
  0.00000000e+00  0.00000000e+00  0.00000000e+00  0.00000000e+00
  0.00000000e+00  0.00000000e+00 -3.02909164e-06 -1.53468357e-06
  0.00000000e+00  0.00000000e+00  0.00000000e+00  4.18216496e-06]","[[-0.00041626  0.01772356]
 [-0.0005333  -0.00389487]]",[],0.0,0.0
1787564005.009799,2.3563985911780776,1.2932067776242422,2.3442717190540323,"[ 1.93948020e-05  8.59943708e-07  0.00000000e+00  0.00000000e+00
  0.00000000e+00 -1.72103453e-06  8.59943708e-07  1.62216638e-05
  0.00000000e+00  0.00000000e+00  0.00000000e+00 -1.01625207e-06
  0.00000000e+00  0.00000000e+00  0.00000000e+00  0.00000000e+00
  0.00000000e+00  0.00000000e+00  0.00000000e+00  0.00000000e+00
  0.00000000e+00  0.00000000e+00  0.00000000e+00  0.00000000e+00
  0.00000000e+00  0.00000000e+00  0.00000000e+00  0.00000000e+00
  0.00000000e+00  0.00000000e+00 -1.72103453e-06 -1.01625207e-06
  0.00000000e+00  0.00000000e+00  0.00000000e+00  3.81289368e-06]","[[-0.00028077  0.01124145]
 [-0.00035251 -0.00259503]]",[],0.0,0.0
1787564005.0611613,2.3563985911780776,1.2932067776242422,2.3442717190540323,"[ 1.93948020e-05  8.59943708e-07  0.00000000e+00  0.00000000e+00
  0.00000000e+00 -1.72103453e-06  8.59943708e-07  1.62216638e-05
  0.00000000e+00  0.00000000e+00  0.00000000e+00 -1.01625207e-06
  0.00000000e+00  0.00000000e+00  0.00000000e+00  0.00000000e+00
  0.00000000e+00  0.00000000e+00  0.00000000e+00  0.00000000e+00
  0.00000000e+00  0.00000000e+00  0.00000000e+00  0.00000000e+00
  0.00000000e+00  0.00000000e+00  0.00000000e+00  0.00000000e+00
  0.00000000e+00  0.00000000e+00 -1.72103453e-06 -1.01625207e-06
  0.00000000e+00  0.00000000e+00  0.00000000e+00  3.81289368e-06]","[[-0.00028077  0.01124145]
 [-0.00035251 -0.00259503]]",[],0.0,0.0
1787564005.1103961,2.3563985911780776,1.2932067776242422,2.3442717190540323,"[ 1.93948020e-05  8.59943708e-07  0.00000000e+00  0.00000000e+00
  0.00000000e+00 -1.72103453e-06  8.59943708e-07  1.62216638e-05
  0.00000000e+00  0.00000000e+00  0.00000000e+00 -1.01625207e-06
  0.00000000e+00  0.00000000e+00  0.00000000e+00  0.00000000e+00
  0.00000000e+00  0.00000000e+00  0.00000000e+00  0.00000000e+00
  0.00000000e+00  0.00000000e+00  0.00000000e+00  0.00000000e+00
  0.00000000e+00  0.00000000e+00  0.00000000e+00  0.00000000e+00
  0.00000000e+00  0.00000000e+00 -1.72103453e-06 -1.01625207e-06
  0.00000000e+00  0.00000000e+00  0.00000000e+00  3.81289368e-06]","[[-0.00028077  0.01124145]
 [-0.00035251 -0.00259503]]",[],0.0,0.0
1787564005.170926,2.3563985911780776,1.2932067776242422,2.3442717190540323,"[ 1.93948020e-05  8.59943708e-07  0.00000000e+00  0.00000000e+00
  0.00000000e+00 -1.72103453e-06  8.59943708e-07  1.62216638e-05
  0.00000000e+00  0.00000000e+00  0.00000000e+00 -1.01625207e-06
  0.00000000e+00  0.00000000e+00  0.00000000e+00  0.00000000e+00
  0.00000000e+00  0.00000000e+00  0.00000000e+00  0.00000000e+00
  0.00000000e+00  0.00000000e+00  0.00000000e+00  0.00000000e+00
  0.00000000e+00  0.00000000e+00  0.00000000e+00  0.00000000e+00
  0.00000000e+00  0.00000000e+00 -1.72103453e-06 -1.01625207e-06
  0.00000000e+00  0.00000000e+00  0.00000000e+00  3.81289368e-06]","[[-0.00028077  0.01124145]
 [-0.00035251 -0.00259503]]",[],0.0,0.0
1787564005.2134078,2.3563985911780776,1.2932067776242422,2.3442717190540323,"[ 1.93948020e-05  8.59943708e-07  0.00000000e+00  0.00000000e+00
  0.00000000e+00 -1.72103453e-06  8.59943708e-07  1.62216638e-05
  0.00000000e+00  0.00000000e+00  0.00000000e+00 -1.01625207e-06
  0.00000000e+00  0.00000000e+00  0.00000000e+00  0.00000000e+00
  0.00000000e+00  0.00000000e+00  0.00000000e+00  0.00000000e+00
  0.00000000e+00  0.00000000e+00  0.00000000e+00  0.00000000e+00
  0.00000000e+00  0.00000000e+00  0.00000000e+00  0.00000000e+00
  0.00000000e+00  0.00000000e+00 -1.72103453e-06 -1.01625207e-06
  0.00000000e+00  0.00000000e+00  0.00000000e+00  3.81289368e-06]","[[-0.00028077  0.01124145]
 [-0.00035251 -0.00259503]]",[],0.0,0.0
1787564005.2601662,2.3563985911780776,1.2932067776242422,2.3442717190540323,"[ 1.93948020e-05  8.59943708e-07  0.00000000e+00  0.00000000e+00
  0.00000000e+00 -1.72103453e-06  8.59943708e-07  1.62216638e-05
  0.00000000e+00  0.00000000e+00  0.00000000e+00 -1.01625207e-06
  0.00000000e+00  0.00000000e+00  0.00000000e+00  0.00000000e+00
  0.00000000e+00  0.00000000e+00  0.00000000e+00  0.00000000e+00
  0.00000000e+00  0.00000000e+00  0.00000000e+00  0.00000000e+00
  0.00000000e+00  0.00000000e+00  0.00000000e+00  0.00000000e+00
  0.00000000e+00  0.00000000e+00 -1.72103453e-06 -1.01625207e-06
  0.00000000e+00  0.00000000e+00  0.00000000e+00  3.81289368e-06]","[[-0.00028077  0.01124145]
 [-0.00035251 -0.00259503]]",[],0.0,0.0
1787564005.3113534,2.3563985911780776,1.2932067776242422,2.3442717190540323,"[ 1.93948020e-05  8.59943708e-07  0.00000000e+00  0.00000000e+00
  0.00000000e+00 -1.72103453e-06  8.59943708e-07  1.62216638e-05
  0.00000000e+00  0.00000000e+00  0.00000000e+00 -1.01625207e-06
  0.00000000e+00  0.00000000e+00  0.00000000e+00  0.00000000e+00
  0.00000000e+00  0.00000000e+00  0.00000000e+00  0.00000000e+00
  0.00000000e+00  0.00000000e+00  0.00000000e+00  0.00000000e+00
  0.00000000e+00  0.00000000e+00  0.00000000e+00  0.00000000e+00
  0.00000000e+00  0.00000000e+00 -1.72103453e-06 -1.01625207e-06
  0.00000000e+00  0.00000000e+00  0.00000000e+00  3.81289368e-06]","[[-0.00028077  0.01124145]
 [-0.00035251 -0.00259503]]",[],0.0,0.0
1787564005.3599699,2.3563985911780776,1.2932067776242422,2.3442717190540323,"[ 1.93948020e-05  8.59943708e-07  0.00000000e+00  0.00000000e+00
  0.00000000e+00 -1.72103453e-06  8.59943708e-07  1.62216638e-05
  0.00000000e+00  0.00000000e+00  0.00000000e+00 -1.01625207e-06
  0.00000000e+00  0.00000000e+00  0.00000000e+00  0.00000000e+00
  0.00000000e+00  0.00000000e+00  0.00000000e+00  0.00000000e+00
  0.00000000e+00  0.00000000e+00  0.00000000e+00  0.00000000e+00
  0.00000000e+00  0.00000000e+00  0.00000000e+00  0.00000000e+00
  0.00000000e+00  0.00000000e+00 -1.72103453e-06 -1.01625207e-06
  0.00000000e+00  0.00000000e+00  0.00000000e+00  3.81289368e-06]","[[-0.00028077  0.01124145]
 [-0.00035251 -0.00259503]]",[],0.0,0.0
1787564005.4098105,2.3563985911780776,1.2932067776242422,2.3442717190540323,"[ 1.93948020e-05  8.59943708e-07  0.00000000e+00  0.00000000e+00
  0.00000000e+00 -1.72103453e-06  8.59943708e-07  1.62216638e-05
  0.00000000e+00  0.00000000e+00  0.00000000e+00 -1.01625207e-06
  0.00000000e+00  0.00000000e+00  0.00000000e+00  0.00000000e+00
  0.00000000e+00  0.00000000e+00  0.00000000e+00  0.00000000e+00
  0.00000000e+00  0.00000000e+00  0.00000000e+00  0.00000000e+00
  0.00000000e+00  0.00000000e+00  0.00000000e+00  0.00000000e+00
  0.00000000e+00  0.00000000e+00 -1.72103453e-06 -1.01625207e-06
  0.00000000e+00  0.00000000e+00  0.00000000e+00  3.81289368e-06]","[[-0.00028077  0.01124145]
 [-0.00035251 -0.00259503]]",[],0.0,0.0
1787564005.4741998,2.3563985911780776,1.2932067776242422,2.3442717190540323,"[ 1.93948020e-05  8.59943708e-07  0.00000000e+00  0.00000000e+00
  0.00000000e+00 -1.72103453e-06  8.59943708e-07  1.62216638e-05
  0.00000000e+00  0.00000000e+00  0.00000000e+00 -1.01625207e-06
  0.00000000e+00  0.00000000e+00  0.00000000e+00  0.00000000e+00
  0.00000000e+00  0.00000000e+00  0.00000000e+00  0.00000000e+00
  0.00000000e+00  0.00000000e+00  0.00000000e+00  0.00000000e+00
  0.00000000e+00  0.00000000e+00  0.00000000e+00  0.00000000e+00
  0.00000000e+00  0.00000000e+00 -1.72103453e-06 -1.01625207e-06
  0.00000000e+00  0.00000000e+00  0.00000000e+00  3.81289368e-06]","[[-0.00028077  0.01124145]
 [-0.00035251 -0.00259503]]",[],0.0,0.0
1787564005.5106277,2.3563985911780776,1.2932067776242422,2.3442717190540323,"[ 1.93948020e-05  8.59943708e-07  0.00000000e+00  0.00000000e+00
  0.00000000e+00 -1.72103453e-06  8.59943708e-07  1.62216638e-05
  0.00000000e+00  0.00000000e+00  0.00000000e+00 -1.01625207e-06
  0.00000000e+00  0.00000000e+00  0.00000000e+00  0.00000000e+00
  0.00000000e+00  0.00000000e+00  0.00000000e+00  0.00000000e+00
  0.00000000e+00  0.00000000e+00  0.00000000e+00  0.00000000e+00
  0.00000000e+00  0.00000000e+00  0.00000000e+00  0.00000000e+00
  0.00000000e+00  0.00000000e+00 -1.72103453e-06 -1.01625207e-06
  0.00000000e+00  0.00000000e+00  0.00000000e+00  3.81289368e-06]","[[-0.00028077  0.01124145]
 [-0.00035251 -0.00259503]]",[],0.0,0.0
1787564005.567067,2.3563985911780776,1.2932067776242422,2.3442717190540323,"[ 1.93948020e-05  8.59943708e-07  0.00000000e+00  0.00000000e+00
  0.00000000e+00 -1.72103453e-06  8.59943708e-07  1.62216638e-05
  0.00000000e+00  0.00000000e+00  0.00000000e+00 -1.01625207e-06
  0.00000000e+00  0.00000000e+00  0.00000000e+00  0.00000000e+00
  0.00000000e+00  0.00000000e+00  0.00000000e+00  0.00000000e+00
  0.00000000e+00  0.00000000e+00  0.00000000e+00  0.00000000e+00
  0.00000000e+00  0.00000000e+00  0.00000000e+00  0.00000000e+00
  0.00000000e+00  0.00000000e+00 -1.72103453e-06 -1.01625207e-06
  0.00000000e+00  0.00000000e+00  0.00000000e+00  3.81289368e-06]","[[-0.00028077  0.01124145]
 [-0.00035251 -0.00259503]]",[],0.0,0.0
1787564005.610234,2.3563985911780776,1.2932067776242422,2.3442717190540323,"[ 1.93948020e-05  8.59943708e-07  0.00000000e+00  0.00000000e+00
  0.00000000e+00 -1.72103453e-06  8.59943708e-07  1.62216638e-05
  0.00000000e+00  0.00000000e+00  0.00000000e+00 -1.01625207e-06
  0.00000000e+00  0.00000000e+00  0.00000000e+00  0.00000000e+00
  0.00000000e+00  0.00000000e+00  0.00000000e+00  0.00000000e+00
  0.00000000e+00  0.00000000e+00  0.00000000e+00  0.00000000e+00
  0.00000000e+00  0.00000000e+00  0.00000000e+00  0.00000000e+00
  0.00000000e+00  0.00000000e+00 -1.72103453e-06 -1.01625207e-06
  0.00000000e+00  0.00000000e+00  0.00000000e+00  3.81289368e-06]","[[-0.00028077  0.01124145]
 [-0.00035251 -0.00259503]]",[],0.0,0.0
1787564005.660007,2.3563985911780776,1.2932067776242422,2.3442717190540323,"[ 1.93948020e-05  8.59943708e-07  0.00000000e+00  0.00000000e+00
  0.00000000e+00 -1.72103453e-06  8.59943708e-07  1.62216638e-05
  0.00000000e+00  0.00000000e+00  0.00000000e+00 -1.01625207e-06
  0.00000000e+00  0.00000000e+00  0.00000000e+00  0.00000000e+00
  0.00000000e+00  0.00000000e+00  0.00000000e+00  0.00000000e+00
  0.00000000e+00  0.00000000e+00  0.00000000e+00  0.00000000e+00
  0.00000000e+00  0.00000000e+00  0.00000000e+00  0.00000000e+00
  0.00000000e+00  0.00000000e+00 -1.72103453e-06 -1.01625207e-06
  0.00000000e+00  0.00000000e+00  0.00000000e+00  3.81289368e-06]","[[-0.00028077  0.01124145]
 [-0.00035251 -0.00259503]]",[],0.0,0.0
1787564005.920158,2.3563985911780776,1.2932067776242422,2.3442717190540323,"[ 1.93948020e-05  8.59943708e-07  0.00000000e+00  0.00000000e+00
  0.00000000e+00 -1.72103453e-06  8.59943708e-07  1.62216638e-05
  0.00000000e+00  0.00000000e+00  0.00000000e+00 -1.01625207e-06
  0.00000000e+00  0.00000000e+00  0.00000000e+00  0.00000000e+00
  0.00000000e+00  0.00000000e+00  0.00000000e+00  0.00000000e+00
  0.00000000e+00  0.00000000e+00  0.00000000e+00  0.00000000e+00
  0.00000000e+00  0.00000000e+00  0.00000000e+00  0.00000000e+00
  0.00000000e+00  0.00000000e+00 -1.72103453e-06 -1.01625207e-06
  0.00000000e+00  0.00000000e+00  0.00000000e+00  3.81289368e-06]","[[-0.00028077  0.01124145]
 [-0.00035251 -0.00259503]]",[],0.0,0.0
1787564006.5627582,2.3566063385663183,1.285413446408777,2.3356549185784514,"[ 1.47523326e-05  6.79823809e-07  0.00000000e+00  0.00000000e+00
  0.00000000e+00 -1.26942335e-06  6.79823809e-07  1.24427163e-05
  0.00000000e+00  0.00000000e+00  0.00000000e+00 -8.86563605e-07
  0.00000000e+00  0.00000000e+00  0.00000000e+00  0.00000000e+00
  0.00000000e+00  0.00000000e+00  0.00000000e+00  0.00000000e+00
  0.00000000e+00  0.00000000e+00  0.00000000e+00  0.00000000e+00
  0.00000000e+00  0.00000000e+00  0.00000000e+00  0.00000000e+00
  0.00000000e+00  0.00000000e+00 -1.26942335e-06 -8.86563605e-07
  0.00000000e+00  0.00000000e+00  0.00000000e+00  3.94839801e-06]","[[-0.00021482  0.00842396]
 [-0.00027029 -0.00179621]]",[],0.0,0.0
1787564007.2365294,2.354862858763101,1.2812571786375504,2.3335061375343837,"[ 1.18573659e-05  5.54103770e-07  0.00000000e+00  0.00000000e+00
  0.00000000e+00 -1.07017692e-06  5.54103770e-07  1.00304023e-05
  0.00000000e+00  0.00000000e+00  0.00000000e+00 -6.83242679e-07
  0.00000000e+00  0.00000000e+00  0.00000000e+00  0.00000000e+00
  0.00000000e+00  0.00000000e+00  0.00000000e+00  0.00000000e+00
  0.00000000e+00  0.00000000e+00  0.00000000e+00  0.00000000e+00
  0.00000000e+00  0.00000000e+00  0.00000000e+00  0.00000000e+00
  0.00000000e+00  0.00000000e+00 -1.07017692e-06 -6.83242679e-07
  0.00000000e+00  0.00000000e+00  0.00000000e+00  3.50253644e-06]","[[-0.00017249  0.00684584]
 [-0.00021815 -0.00148549]]",[],0.0,0.0
1787564007.9949098,2.3557720796265946,1.2760402010590661,2.3377901562138534,"[ 1.01492907e-05  4.00730651e-07  0.00000000e+00  0.00000000e+00
  0.00000000e+00 -8.66781193e-07  4.00730651e-07  8.56495149e-06
  0.00000000e+00  0.00000000e+00  0.00000000e+00 -3.85328761e-07
  0.00000000e+00  0.00000000e+00  0.00000000e+00  0.00000000e+00
  0.00000000e+00  0.00000000e+00  0.00000000e+00  0.00000000e+00
  0.00000000e+00  0.00000000e+00  0.00000000e+00  0.00000000e+00
  0.00000000e+00  0.00000000e+00  0.00000000e+00  0.00000000e+00
  0.00000000e+00  0.00000000e+00 -8.66781193e-07 -3.85328761e-07
  0.00000000e+00  0.00000000e+00  0.00000000e+00  3.67866754e-06]","[[-0.00014605  0.00579385]
 [-0.00018532 -0.0016239 ]]",[],0.0,0.0
1787564008.0101066,2.3557720796265946,1.2760402010590661,2.3377901562138534,"[ 1.01492907e-05  4.00730651e-07  0.00000000e+00  0.00000000e+00
  0.00000000e+00 -8.66781193e-07  4.00730651e-07  8.56495149e-06
  0.00000000e+00  0.00000000e+00  0.00000000e+00 -3.85328761e-07
  0.00000000e+00  0.00000000e+00  0.00000000e+00  0.00000000e+00
  0.00000000e+00  0.00000000e+00  0.00000000e+00  0.00000000e+00
  0.00000000e+00  0.00000000e+00  0.00000000e+00  0.00000000e+00
  0.00000000e+00  0.00000000e+00  0.00000000e+00  0.00000000e+00
  0.00000000e+00  0.00000000e+00 -8.66781193e-07 -3.85328761e-07
  0.00000000e+00  0.00000000e+00  0.00000000e+00  3.67866754e-06]","[[-0.00014605  0.00579385]
 [-0.00018532 -0.0016239 ]]",[],0.0,0.0
1787564008.6689122,2.3524699002978005,1.27131628783898,2.342026989534359,"[ 8.76683542e-06  2.48260149e-07  0.00000000e+00  0.00000000e+00
  0.00000000e+00 -7.48530134e-07  2.48260149e-07  7.38059617e-06
  0.00000000e+00  0.00000000e+00  0.00000000e+00 -3.79855264e-07
  0.00000000e+00  0.00000000e+00  0.00000000e+00  0.00000000e+00
  0.00000000e+00  0.00000000e+00  0.00000000e+00  0.00000000e+00
  0.00000000e+00  0.00000000e+00  0.00000000e+00  0.00000000e+00
  0.00000000e+00  0.00000000e+00  0.00000000e+00  0.00000000e+00
  0.00000000e+00  0.00000000e+00 -7.48530134e-07 -3.79855264e-07
  0.00000000e+00  0.00000000e+00  0.00000000e+00  3.63857377e-06]","[[-0.00012389  0.00503049]
 [-0.00015849 -0.00135682]]",[],0.0,0.0
1787564009.2817957,2.3495930584576006,1.267501066548851,2.3513387164771764,"[ 7.64125582e-06  1.54206084e-07  0.00000000e+00  0.00000000e+00
  0.00000000e+00 -5.97751126e-07  1.54206084e-07  6.43235487e-06
  0.00000000e+00  0.00000000e+00  0.00000000e+00 -3.18725583e-07
  0.00000000e+00  0.00000000e+00  0.00000000e+00  0.00000000e+00
  0.00000000e+00  0.00000000e+00  0.00000000e+00  0.00000000e+00
  0.00000000e+00  0.00000000e+00  0.00000000e+00  0.00000000e+00
  0.00000000e+00  0.00000000e+00  0.00000000e+00  0.00000000e+00
  0.00000000e+00  0.00000000e+00 -5.97751126e-07 -3.18725583e-07
  0.00000000e+00  0.00000000e+00  0.00000000e+00  3.33416281e-06]","[[-0.00010669  0.00430563]
 [-0.00013728 -0.00122727]]",[],0.0,0.0
1787564009.8938122,2.3460008962315118,1.2649153345343127,2.3490094617617387,"[ 6.82437299e-06  1.06276323e-07  0.00000000e+00  0.00000000e+00
  0.00000000e+00 -5.66560830e-07  1.06276323e-07  5.69889128e-06
  0.00000000e+00  0.00000000e+00  0.00000000e+00 -2.87235501e-07
  0.00000000e+00  0.00000000e+00  0.00000000e+00  0.00000000e+00
  0.00000000e+00  0.00000000e+00  0.00000000e+00  0.00000000e+00
  0.00000000e+00  0.00000000e+00  0.00000000e+00  0.00000000e+00
  0.00000000e+00  0.00000000e+00  0.00000000e+00  0.00000000e+00
  0.00000000e+00  0.00000000e+00 -5.66560830e-07 -2.87235501e-07
  0.00000000e+00  0.00000000e+00  0.00000000e+00  3.24734708e-06]","[[-9.46383188e-05  3.90366101e-03]
 [-1.21204872e-04 -1.09057351e-03]]",[],0.0,0.0
1787564010.4762995,2.34697626371528,1.2631300141856179,2.3504217981567352,"[ 6.13254648e-06  6.05260021e-08  0.00000000e+00  0.00000000e+00
  0.00000000e+00 -5.59643274e-07  6.05260021e-08  5.19540371e-06
  0.00000000e+00  0.00000000e+00  0.00000000e+00 -2.71108889e-07
  0.00000000e+00  0.00000000e+00  0.00000000e+00  0.00000000e+00
  0.00000000e+00  0.00000000e+00  0.00000000e+00  0.00000000e+00
  0.00000000e+00  0.00000000e+00  0.00000000e+00  0.00000000e+00
  0.00000000e+00  0.00000000e+00  0.00000000e+00  0.00000000e+00
  0.00000000e+00  0.00000000e+00 -5.59643274e-07 -2.71108889e-07
  0.00000000e+00  0.00000000e+00  0.00000000e+00  3.35948222e-06]","[[ 1.09696153e-04  4.12554475e-03]
 [-8.87292835e-05  3.28232776e-03]]",[],0.0,0.0
1787564011.0900967,2.346019133784538,1.2611131451028543,2.341390954305542,"[ 5.59413160e-06  1.84770697e-08  0.00000000e+00  0.00000000e+00
  0.00000000e+00 -5.16198098e-07  1.84770697e-08  4.74624394e-06
  0.00000000e+00  0.00000000e+00  0.00000000e+00 -2.34696819e-07
  0.00000000e+00  0.00000000e+00  0.00000000e+00  0.00000000e+00
  0.00000000e+00  0.00000000e+00  0.00000000e+00  0.00000000e+00
  0.00000000e+00  0.00000000e+00  0.00000000e+00  0.00000000e+00
  0.00000000e+00  0.00000000e+00  0.00000000e+00  0.00000000e+00
  0.00000000e+00  0.00000000e+00 -5.16198098e-07 -2.34696819e-07
  0.00000000e+00  0.00000000e+00  0.00000000e+00  3.22500183e-06]","[[ 1.00673407e-04  3.75122827e-03]
 [-8.17470468e-05  2.95516163e-03]]",[],0.0,0.0
1787564011.1343408,2.3456759036179933,1.258850869469727,2.3305928064417394,"[ 5.16917404e-06 -2.54382133e-08  0.00000000e+00  0.00000000e+00
  0.00000000e+00 -4.56938645e-07 -2.54382133e-08  4.39960667e-06
  0.00000000e+00  0.00000000e+00  0.00000000e+00 -2.53272349e-07
  0.00000000e+00  0.00000000e+00  0.00000000e+00  0.00000000e+00
  0.00000000e+00  0.00000000e+00  0.00000000e+00  0.00000000e+00
  0.00000000e+00  0.00000000e+00  0.00000000e+00  0.00000000e+00
  0.00000000e+00  0.00000000e+00  0.00000000e+00  0.00000000e+00
  0.00000000e+00  0.00000000e+00 -4.56938645e-07 -2.53272349e-07
  0.00000000e+00  0.00000000e+00  0.00000000e+00  3.43736802e-06]","[[ 1.97466713e-05  2.16228394e-03]
 [-1.08874014e-04  5.91181518e-04]]",[],0.0,0.0
1787564011.670282,2.3456759036179933,1.258850869469727,2.3305928064417394,"[ 5.16917404e-06 -2.54382133e-08  0.00000000e+00  0.00000000e+00
  0.00000000e+00 -4.56938645e-07 -2.54382133e-08  4.39960667e-06
  0.00000000e+00  0.00000000e+00  0.00000000e+00 -2.53272349e-07
  0.00000000e+00  0.00000000e+00  0.00000000e+00  0.00000000e+00
  0.00000000e+00  0.00000000e+00  0.00000000e+00  0.00000000e+00
  0.00000000e+00  0.00000000e+00  0.00000000e+00  0.00000000e+00
  0.00000000e+00  0.00000000e+00  0.00000000e+00  0.00000000e+00
  0.00000000e+00  0.00000000e+00 -4.56938645e-07 -2.53272349e-07
  0.00000000e+00  0.00000000e+00  0.00000000e+00  3.43736802e-06]","[[ 1.97466713e-05  2.16228394e-03]
 [-1.08874014e-04  5.91181518e-04]]",[],0.0,0.0
1787564012.249594,2.345019895766558,1.2556692297038212,2.339514213338129,"[ 4.80503428e-06 -6.42800410e-08  0.00000000e+00  0.00000000e+00
  0.00000000e+00 -4.49637503e-07 -6.42800410e-08  4.09654809e-06
  0.00000000e+00  0.00000000e+00  0.00000000e+00 -1.73580890e-07
  0.00000000e+00  0.00000000e+00  0.00000000e+00  0.00000000e+00
  0.00000000e+00  0.00000000e+00  0.00000000e+00  0.00000000e+00
  0.00000000e+00  0.00000000e+00  0.00000000e+00  0.00000000e+00
  0.00000000e+00  0.00000000e+00  0.00000000e+00  0.00000000e+00
  0.00000000e+00  0.00000000e+00 -4.49637503e-07 -1.73580890e-07
  0.00000000e+00  0.00000000e+00  0.00000000e+00  3.32459568e-06]","[[-6.36666233e-05  2.86610187e-03]
 [-8.52461017e-05 -8.95826330e-04]]",[],0.0,0.0
1787564012.2594538,2.3466350998825845,1.253070547772706,2.3333673361137386,"[ 4.50706623e-06 -8.80367991e-08  0.00000000e+00  0.00000000e+00
  0.00000000e+00 -4.32631673e-07 -8.80367991e-08  3.86867033e-06
  0.00000000e+00  0.00000000e+00  0.00000000e+00 -1.64584512e-07
  0.00000000e+00  0.00000000e+00  0.00000000e+00  0.00000000e+00
  0.00000000e+00  0.00000000e+00  0.00000000e+00  0.00000000e+00
  0.00000000e+00  0.00000000e+00  0.00000000e+00  0.00000000e+00
  0.00000000e+00  0.00000000e+00  0.00000000e+00  0.00000000e+00
  0.00000000e+00  0.00000000e+00 -4.32631673e-07 -1.64584512e-07
  0.00000000e+00  0.00000000e+00  0.00000000e+00  3.35577485e-06]","[[-5.91000246e-05  2.71272852e-03]
 [-8.01542456e-05 -8.55182996e-04]]",[],0.0,0.0
1787564012.8846405,2.3466350998825845,1.253070547772706,2.3333673361137386,"[ 4.50706623e-06 -8.80367991e-08  0.00000000e+00  0.00000000e+00
  0.00000000e+00 -4.32631673e-07 -8.80367991e-08  3.86867033e-06
  0.00000000e+00  0.00000000e+00  0.00000000e+00 -1.64584512e-07
  0.00000000e+00  0.00000000e+00  0.00000000e+00  0.00000000e+00
  0.00000000e+00  0.00000000e+00  0.00000000e+00  0.00000000e+00
  0.00000000e+00  0.00000000e+00  0.00000000e+00  0.00000000e+00
  0.00000000e+00  0.00000000e+00  0.00000000e+00  0.00000000e+00
  0.00000000e+00  0.00000000e+00 -4.32631673e-07 -1.64584512e-07
  0.00000000e+00  0.00000000e+00  0.00000000e+00  3.35577485e-06]","[[-5.91000246e-05  2.71272852e-03]
 [-8.01542456e-05 -8.55182996e-04]]",[],0.0,0.0
1787564013.5626724,2.346289132341781,1.25118614733563,2.3260672089387313,"[ 4.25468223e-06 -1.25109338e-07  0.00000000e+00  0.00000000e+00
  0.00000000e+00 -3.93714993e-07 -1.25109338e-07  3.66277101e-06
  0.00000000e+00  0.00000000e+00  0.00000000e+00 -1.59837405e-07
  0.00000000e+00  0.00000000e+00  0.00000000e+00  0.00000000e+00
  0.00000000e+00  0.00000000e+00  0.00000000e+00  0.00000000e+00
  0.00000000e+00  0.00000000e+00  0.00000000e+00  0.00000000e+00
  0.00000000e+00  0.00000000e+00  0.00000000e+00  0.00000000e+00
  0.00000000e+00  0.00000000e+00 -3.93714993e-07 -1.59837405e-07
  0.00000000e+00  0.00000000e+00  0.00000000e+00  3.40141501e-06]","[[-5.48281586e-05  2.54855583e-03]
 [-7.53688569e-05 -8.19495058e-04]]",[],0.0,0.0
1787564013.610372,2.3450131660048443,1.2492813269909986,2.330547445468169,"[ 4.02840260e-06 -1.65181924e-07  0.00000000e+00  0.00000000e+00
  0.00000000e+00 -3.81588988e-07 -1.65181924e-07  3.47873106e-06
  0.00000000e+00  0.00000000e+00  0.00000000e+00 -1.52553889e-07
  0.00000000e+00  0.00000000e+00  0.00000000e+00  0.00000000e+00
  0.00000000e+00  0.00000000e+00  0.00000000e+00  0.00000000e+00
  0.00000000e+00  0.00000000e+00  0.00000000e+00  0.00000000e+00
  0.00000000e+00  0.00000000e+00  0.00000000e+00  0.00000000e+00
  0.00000000e+00  0.00000000e+00 -3.81588988e-07 -1.52553889e-07
  0.00000000e+00  0.00000000e+00  0.00000000e+00  3.38519834e-06]","[[-5.09092824e-05  2.43995325e-03]
 [-7.09673050e-05 -7.96450610e-04]]",[],0.0,0.0
1787564013.660415,2.3450131660048443,1.2492813269909986,2.330547445468169,"[ 4.02840260e-06 -1.65181924e-07  0.00000000e+00  0.00000000e+00
  0.00000000e+00 -3.81588988e-07 -1.65181924e-07  3.47873106e-06
  0.00000000e+00  0.00000000e+00  0.00000000e+00 -1.52553889e-07
  0.00000000e+00  0.00000000e+00  0.00000000e+00  0.00000000e+00
  0.00000000e+00  0.00000000e+00  0.00000000e+00  0.00000000e+00
  0.00000000e+00  0.00000000e+00  0.00000000e+00  0.00000000e+00
  0.00000000e+00  0.00000000e+00  0.00000000e+00  0.00000000e+00
  0.00000000e+00  0.00000000e+00 -3.81588988e-07 -1.52553889e-07
  0.00000000e+00  0.00000000e+00  0.00000000e+00  3.38519834e-06]","[[-5.09092824e-05  2.43995325e-03]
 [-7.09673050e-05 -7.96450610e-04]]",[],0.0,0.0
1787564013.712019,2.3450131660048443,1.2492813269909986,2.330547445468169,"[ 4.02840260e-06 -1.65181924e-07  0.00000000e+00  0.00000000e+00
  0.00000000e+00 -3.81588988e-07 -1.65181924e-07  3.47873106e-06
  0.00000000e+00  0.00000000e+00  0.00000000e+00 -1.52553889e-07
  0.00000000e+00  0.00000000e+00  0.00000000e+00  0.00000000e+00
  0.00000000e+00  0.00000000e+00  0.00000000e+00  0.00000000e+00
  0.00000000e+00  0.00000000e+00  0.00000000e+00  0.00000000e+00
  0.00000000e+00  0.00000000e+00  0.00000000e+00  0.00000000e+00
  0.00000000e+00  0.00000000e+00 -3.81588988e-07 -1.52553889e-07
  0.00000000e+00  0.00000000e+00  0.00000000e+00  3.38519834e-06]","[[-5.09092824e-05  2.43995325e-03]
 [-7.09673050e-05 -7.96450610e-04]]",[],0.0,0.0
1787564013.7601938,2.3450131660048443,1.2492813269909986,2.330547445468169,"[ 4.02840260e-06 -1.65181924e-07  0.00000000e+00  0.00000000e+00
  0.00000000e+00 -3.81588988e-07 -1.65181924e-07  3.47873106e-06
  0.00000000e+00  0.00000000e+00  0.00000000e+00 -1.52553889e-07
  0.00000000e+00  0.00000000e+00  0.00000000e+00  0.00000000e+00
  0.00000000e+00  0.00000000e+00  0.00000000e+00  0.00000000e+00
  0.00000000e+00  0.00000000e+00  0.00000000e+00  0.00000000e+00
  0.00000000e+00  0.00000000e+00  0.00000000e+00  0.00000000e+00
  0.00000000e+00  0.00000000e+00 -3.81588988e-07 -1.52553889e-07
  0.00000000e+00  0.00000000e+00  0.00000000e+00  3.38519834e-06]","[[-5.09092824e-05  2.43995325e-03]
 [-7.09673050e-05 -7.96450610e-04]]",[],0.0,0.0
1787564013.8103726,2.3450131660048443,1.2492813269909986,2.330547445468169,"[ 4.02840260e-06 -1.65181924e-07  0.00000000e+00  0.00000000e+00
  0.00000000e+00 -3.81588988e-07 -1.65181924e-07  3.47873106e-06
  0.00000000e+00  0.00000000e+00  0.00000000e+00 -1.52553889e-07
  0.00000000e+00  0.00000000e+00  0.00000000e+00  0.00000000e+00
  0.00000000e+00  0.00000000e+00  0.00000000e+00  0.00000000e+00
  0.00000000e+00  0.00000000e+00  0.00000000e+00  0.00000000e+00
  0.00000000e+00  0.00000000e+00  0.00000000e+00  0.00000000e+00
  0.00000000e+00  0.00000000e+00 -3.81588988e-07 -1.52553889e-07
  0.00000000e+00  0.00000000e+00  0.00000000e+00  3.38519834e-06]","[[-5.09092824e-05  2.43995325e-03]
 [-7.09673050e-05 -7.96450610e-04]]",[],0.0,0.0
1787564013.861088,2.3450131660048443,1.2492813269909986,2.330547445468169,"[ 4.02840260e-06 -1.65181924e-07  0.00000000e+00  0.00000000e+00
  0.00000000e+00 -3.81588988e-07 -1.65181924e-07  3.47873106e-06
  0.00000000e+00  0.00000000e+00  0.00000000e+00 -1.52553889e-07
  0.00000000e+00  0.00000000e+00  0.00000000e+00  0.00000000e+00
  0.00000000e+00  0.00000000e+00  0.00000000e+00  0.00000000e+00
  0.00000000e+00  0.00000000e+00  0.00000000e+00  0.00000000e+00
  0.00000000e+00  0.00000000e+00  0.00000000e+00  0.00000000e+00
  0.00000000e+00  0.00000000e+00 -3.81588988e-07 -1.52553889e-07
  0.00000000e+00  0.00000000e+00  0.00000000e+00  3.38519834e-06]","[[-5.09092824e-05  2.43995325e-03]
 [-7.09673050e-05 -7.96450610e-04]]",[],0.0,0.0
1787564013.909645,2.3450131660048443,1.2492813269909986,2.330547445468169,"[ 4.02840260e-06 -1.65181924e-07  0.00000000e+00  0.00000000e+00
  0.00000000e+00 -3.81588988e-07 -1.65181924e-07  3.47873106e-06
  0.00000000e+00  0.00000000e+00  0.00000000e+00 -1.52553889e-07
  0.00000000e+00  0.00000000e+00  0.00000000e+00  0.00000000e+00
  0.00000000e+00  0.00000000e+00  0.00000000e+00  0.00000000e+00
  0.00000000e+00  0.00000000e+00  0.00000000e+00  0.00000000e+00
  0.00000000e+00  0.00000000e+00  0.00000000e+00  0.00000000e+00
  0.00000000e+00  0.00000000e+00 -3.81588988e-07 -1.52553889e-07
  0.00000000e+00  0.00000000e+00  0.00000000e+00  3.38519834e-06]","[[-5.09092824e-05  2.43995325e-03]
 [-7.09673050e-05 -7.96450610e-04]]",[],0.0,0.0
1787564013.9597201,2.3450131660048443,1.2492813269909986,2.330547445468169,"[ 4.02840260e-06 -1.65181924e-07  0.00000000e+00  0.00000000e+00
  0.00000000e+00 -3.81588988e-07 -1.65181924e-07  3.47873106e-06
  0.00000000e+00  0.00000000e+00  0.00000000e+00 -1.52553889e-07
  0.00000000e+00  0.00000000e+00  0.00000000e+00  0.00000000e+00
  0.00000000e+00  0.00000000e+00  0.00000000e+00  0.00000000e+00
  0.00000000e+00  0.00000000e+00  0.00000000e+00  0.00000000e+00
  0.00000000e+00  0.00000000e+00  0.00000000e+00  0.00000000e+00
  0.00000000e+00  0.00000000e+00 -3.81588988e-07 -1.52553889e-07
  0.00000000e+00  0.00000000e+00  0.00000000e+00  3.38519834e-06]","[[-5.09092824e-05  2.43995325e-03]
 [-7.09673050e-05 -7.96450610e-04]]",[],0.0,0.0
1787564014.0095932,2.3450131660048443,1.2492813269909986,2.330547445468169,"[ 4.02840260e-06 -1.65181924e-07  0.00000000e+00  0.00000000e+00
  0.00000000e+00 -3.81588988e-07 -1.65181924e-07  3.47873106e-06
  0.00000000e+00  0.00000000e+00  0.00000000e+00 -1.52553889e-07
  0.00000000e+00  0.00000000e+00  0.00000000e+00  0.00000000e+00
  0.00000000e+00  0.00000000e+00  0.00000000e+00  0.00000000e+00
  0.00000000e+00  0.00000000e+00  0.00000000e+00  0.00000000e+00
  0.00000000e+00  0.00000000e+00  0.00000000e+00  0.00000000e+00
  0.00000000e+00  0.00000000e+00 -3.81588988e-07 -1.52553889e-07
  0.00000000e+00  0.00000000e+00  0.00000000e+00  3.38519834e-06]","[[-5.09092824e-05  2.43995325e-03]
 [-7.09673050e-05 -7.96450610e-04]]",[],0.0,0.0
1787564014.0603588,2.3450131660048443,1.2492813269909986,2.330547445468169,"[ 4.02840260e-06 -1.65181924e-07  0.00000000e+00  0.00000000e+00
  0.00000000e+00 -3.81588988e-07 -1.65181924e-07  3.47873106e-06
  0.00000000e+00  0.00000000e+00  0.00000000e+00 -1.52553889e-07
  0.00000000e+00  0.00000000e+00  0.00000000e+00  0.00000000e+00
  0.00000000e+00  0.00000000e+00  0.00000000e+00  0.00000000e+00
  0.00000000e+00  0.00000000e+00  0.00000000e+00  0.00000000e+00
  0.00000000e+00  0.00000000e+00  0.00000000e+00  0.00000000e+00
  0.00000000e+00  0.00000000e+00 -3.81588988e-07 -1.52553889e-07
  0.00000000e+00  0.00000000e+00  0.00000000e+00  3.38519834e-06]","[[-5.09092824e-05  2.43995325e-03]
 [-7.09673050e-05 -7.96450610e-04]]",[],0.0,0.0
1787564014.1102092,2.3450131660048443,1.2492813269909986,2.330547445468169,"[ 4.02840260e-06 -1.65181924e-07  0.00000000e+00  0.00000000e+00
  0.00000000e+00 -3.81588988e-07 -1.65181924e-07  3.47873106e-06
  0.00000000e+00  0.00000000e+00  0.00000000e+00 -1.52553889e-07
  0.00000000e+00  0.00000000e+00  0.00000000e+00  0.00000000e+00
  0.00000000e+00  0.00000000e+00  0.00000000e+00  0.00000000e+00
  0.00000000e+00  0.00000000e+00  0.00000000e+00  0.00000000e+00
  0.00000000e+00  0.00000000e+00  0.00000000e+00  0.00000000e+00
  0.00000000e+00  0.00000000e+00 -3.81588988e-07 -1.52553889e-07
  0.00000000e+00  0.00000000e+00  0.00000000e+00  3.38519834e-06]","[[-5.09092824e-05  2.43995325e-03]
 [-7.09673050e-05 -7.96450610e-04]]",[],0.0,0.0
1787564014.1671338,2.3450131660048443,1.2492813269909986,2.330547445468169,"[ 4.02840260e-06 -1.65181924e-07  0.00000000e+00  0.00000000e+00
  0.00000000e+00 -3.81588988e-07 -1.65181924e-07  3.47873106e-06
  0.00000000e+00  0.00000000e+00  0.00000000e+00 -1.52553889e-07
  0.00000000e+00  0.00000000e+00  0.00000000e+00  0.00000000e+00
  0.00000000e+00  0.00000000e+00  0.00000000e+00  0.00000000e+00
  0.00000000e+00  0.00000000e+00  0.00000000e+00  0.00000000e+00
  0.00000000e+00  0.00000000e+00  0.00000000e+00  0.00000000e+00
  0.00000000e+00  0.00000000e+00 -3.81588988e-07 -1.52553889e-07
  0.00000000e+00  0.00000000e+00  0.00000000e+00  3.38519834e-06]","[[-5.09092824e-05  2.43995325e-03]
 [-7.09673050e-05 -7.96450610e-04]]",[],0.0,0.0
1787564014.2147071,2.3450131660048443,1.2492813269909986,2.330547445468169,"[ 4.02840260e-06 -1.65181924e-07  0.00000000e+00  0.00000000e+00
  0.00000000e+00 -3.81588988e-07 -1.65181924e-07  3.47873106e-06
  0.00000000e+00  0.00000000e+00  0.00000000e+00 -1.52553889e-07
  0.00000000e+00  0.00000000e+00  0.00000000e+00  0.00000000e+00
  0.00000000e+00  0.00000000e+00  0.00000000e+00  0.00000000e+00
  0.00000000e+00  0.00000000e+00  0.00000000e+00  0.00000000e+00
  0.00000000e+00  0.00000000e+00  0.00000000e+00  0.00000000e+00
  0.00000000e+00  0.00000000e+00 -3.81588988e-07 -1.52553889e-07
  0.00000000e+00  0.00000000e+00  0.00000000e+00  3.38519834e-06]","[[-5.09092824e-05  2.43995325e-03]
 [-7.09673050e-05 -7.96450610e-04]]",[],0.0,0.0
1787564014.2613175,2.3450131660048443,1.2492813269909986,2.330547445468169,"[ 4.02840260e-06 -1.65181924e-07  0.00000000e+00  0.00000000e+00
  0.00000000e+00 -3.81588988e-07 -1.65181924e-07  3.47873106e-06
  0.00000000e+00  0.00000000e+00  0.00000000e+00 -1.52553889e-07
  0.00000000e+00  0.00000000e+00  0.00000000e+00  0.00000000e+00
  0.00000000e+00  0.00000000e+00  0.00000000e+00  0.00000000e+00
  0.00000000e+00  0.00000000e+00  0.00000000e+00  0.00000000e+00
  0.00000000e+00  0.00000000e+00  0.00000000e+00  0.00000000e+00
  0.00000000e+00  0.00000000e+00 -3.81588988e-07 -1.52553889e-07
  0.00000000e+00  0.00000000e+00  0.00000000e+00  3.38519834e-06]","[[-5.09092824e-05  2.43995325e-03]
 [-7.09673050e-05 -7.96450610e-04]]",[],0.0,0.0
1787564014.3171165,2.3450131660048443,1.2492813269909986,2.330547445468169,"[ 4.02840260e-06 -1.65181924e-07  0.00000000e+00  0.00000000e+00
  0.00000000e+00 -3.81588988e-07 -1.65181924e-07  3.47873106e-06
  0.00000000e+00  0.00000000e+00  0.00000000e+00 -1.52553889e-07
  0.00000000e+00  0.00000000e+00  0.00000000e+00  0.00000000e+00
  0.00000000e+00  0.00000000e+00  0.00000000e+00  0.00000000e+00
  0.00000000e+00  0.00000000e+00  0.00000000e+00  0.00000000e+00
  0.00000000e+00  0.00000000e+00  0.00000000e+00  0.00000000e+00
  0.00000000e+00  0.00000000e+00 -3.81588988e-07 -1.52553889e-07
  0.00000000e+00  0.00000000e+00  0.00000000e+00  3.38519834e-06]","[[-5.09092824e-05  2.43995325e-03]
 [-7.09673050e-05 -7.96450610e-04]]",[],0.0,0.0
1787564014.365753,2.3450131660048443,1.2492813269909986,2.330547445468169,"[ 4.02840260e-06 -1.65181924e-07  0.00000000e+00  0.00000000e+00
  0.00000000e+00 -3.81588988e-07 -1.65181924e-07  3.47873106e-06
  0.00000000e+00  0.00000000e+00  0.00000000e+00 -1.52553889e-07
  0.00000000e+00  0.00000000e+00  0.00000000e+00  0.00000000e+00
  0.00000000e+00  0.00000000e+00  0.00000000e+00  0.00000000e+00
  0.00000000e+00  0.00000000e+00  0.00000000e+00  0.00000000e+00
  0.00000000e+00  0.00000000e+00  0.00000000e+00  0.00000000e+00
  0.00000000e+00  0.00000000e+00 -3.81588988e-07 -1.52553889e-07
  0.00000000e+00  0.00000000e+00  0.00000000e+00  3.38519834e-06]","[[-5.09092824e-05  2.43995325e-03]
 [-7.09673050e-05 -7.96450610e-04]]",[],0.0,0.0
1787564014.4120567,2.345515317301291,1.2477791691676134,2.324478054740192,"[ 3.88474489e-06 -2.46438100e-07  0.00000000e+00  0.00000000e+00
  0.00000000e+00 -4.09171956e-07 -2.46438100e-07  3.35959417e-06
  0.00000000e+00  0.00000000e+00  0.00000000e+00 -1.29690598e-07
  0.00000000e+00  0.00000000e+00  0.00000000e+00  0.00000000e+00
  0.00000000e+00  0.00000000e+00  0.00000000e+00  0.00000000e+00
  0.00000000e+00  0.00000000e+00  0.00000000e+00  0.00000000e+00
  0.00000000e+00  0.00000000e+00  0.00000000e+00  0.00000000e+00
  0.00000000e+00  0.00000000e+00 -4.09171956e-07 -1.29690598e-07
  0.00000000e+00  0.00000000e+00  0.00000000e+00  3.70585673e-06]","[[-4.72613171e-05  2.44424617e-03]
 [-6.73627921e-05 -8.35636896e-04]]",[],0.0,0.0
1787564014.4642925,2.345515317301291,1.2477791691676134,2.324478054740192,"[ 3.88474489e-06 -2.46438100e-07  0.00000000e+00  0.00000000e+00
  0.00000000e+00 -4.09171956e-07 -2.46438100e-07  3.35959417e-06
  0.00000000e+00  0.00000000e+00  0.00000000e+00 -1.29690598e-07
  0.00000000e+00  0.00000000e+00  0.00000000e+00  0.00000000e+00
  0.00000000e+00  0.00000000e+00  0.00000000e+00  0.00000000e+00
  0.00000000e+00  0.00000000e+00  0.00000000e+00  0.00000000e+00
  0.00000000e+00  0.00000000e+00  0.00000000e+00  0.00000000e+00
  0.00000000e+00  0.00000000e+00 -4.09171956e-07 -1.29690598e-07
  0.00000000e+00  0.00000000e+00  0.00000000e+00  3.70585673e-06]","[[-4.72613171e-05  2.44424617e-03]
 [-6.73627921e-05 -8.35636896e-04]]",[],0.0,0.0
1787564014.5125275,2.345515317301291,1.2477791691676134,2.324478054740192,"[ 3.88474489e-06 -2.46438100e-07  0.00000000e+00  0.00000000e+00
  0.00000000e+00 -4.09171956e-07 -2.46438100e-07  3.35959417e-06
  0.00000000e+00  0.00000000e+00  0.00000000e+00 -1.29690598e-07
  0.00000000e+00  0.00000000e+00  0.00000000e+00  0.00000000e+00
  0.00000000e+00  0.00000000e+00  0.00000000e+00  0.00000000e+00
  0.00000000e+00  0.00000000e+00  0.00000000e+00  0.00000000e+00
  0.00000000e+00  0.00000000e+00  0.00000000e+00  0.00000000e+00
  0.00000000e+00  0.00000000e+00 -4.09171956e-07 -1.29690598e-07
  0.00000000e+00  0.00000000e+00  0.00000000e+00  3.70585673e-06]","[[-4.72613171e-05  2.44424617e-03]
 [-6.73627921e-05 -8.35636896e-04]]",[],0.0,0.0
1787564014.5600271,2.345515317301291,1.2477791691676134,2.324478054740192,"[ 3.88474489e-06 -2.46438100e-07  0.00000000e+00  0.00000000e+00
  0.00000000e+00 -4.09171956e-07 -2.46438100e-07  3.35959417e-06
  0.00000000e+00  0.00000000e+00  0.00000000e+00 -1.29690598e-07
  0.00000000e+00  0.00000000e+00  0.00000000e+00  0.00000000e+00
  0.00000000e+00  0.00000000e+00  0.00000000e+00  0.00000000e+00
  0.00000000e+00  0.00000000e+00  0.00000000e+00  0.00000000e+00
  0.00000000e+00  0.00000000e+00  0.00000000e+00  0.00000000e+00
  0.00000000e+00  0.00000000e+00 -4.09171956e-07 -1.29690598e-07
  0.00000000e+00  0.00000000e+00  0.00000000e+00  3.70585673e-06]","[[-4.72613171e-05  2.44424617e-03]
 [-6.73627921e-05 -8.35636896e-04]]",[],0.0,0.0
1787564014.6203322,2.345515317301291,1.2477791691676134,2.324478054740192,"[ 3.88474489e-06 -2.46438100e-07  0.00000000e+00  0.00000000e+00
  0.00000000e+00 -4.09171956e-07 -2.46438100e-07  3.35959417e-06
  0.00000000e+00  0.00000000e+00  0.00000000e+00 -1.29690598e-07
  0.00000000e+00  0.00000000e+00  0.00000000e+00  0.00000000e+00
  0.00000000e+00  0.00000000e+00  0.00000000e+00  0.00000000e+00
  0.00000000e+00  0.00000000e+00  0.00000000e+00  0.00000000e+00
  0.00000000e+00  0.00000000e+00  0.00000000e+00  0.00000000e+00
  0.00000000e+00  0.00000000e+00 -4.09171956e-07 -1.29690598e-07
  0.00000000e+00  0.00000000e+00  0.00000000e+00  3.70585673e-06]","[[-4.72613171e-05  2.44424617e-03]
 [-6.73627921e-05 -8.35636896e-04]]",[],0.0,0.0
1787564014.6601336,2.345515317301291,1.2477791691676134,2.324478054740192,"[ 3.88474489e-06 -2.46438100e-07  0.00000000e+00  0.00000000e+00
  0.00000000e+00 -4.09171956e-07 -2.46438100e-07  3.35959417e-06
  0.00000000e+00  0.00000000e+00  0.00000000e+00 -1.29690598e-07
  0.00000000e+00  0.00000000e+00  0.00000000e+00  0.00000000e+00
  0.00000000e+00  0.00000000e+00  0.00000000e+00  0.00000000e+00
  0.00000000e+00  0.00000000e+00  0.00000000e+00  0.00000000e+00
  0.00000000e+00  0.00000000e+00  0.00000000e+00  0.00000000e+00
  0.00000000e+00  0.00000000e+00 -4.09171956e-07 -1.29690598e-07
  0.00000000e+00  0.00000000e+00  0.00000000e+00  3.70585673e-06]","[[-4.72613171e-05  2.44424617e-03]
 [-6.73627921e-05 -8.35636896e-04]]",[],0.0,0.0
1787564014.7132936,2.345515317301291,1.2477791691676134,2.324478054740192,"[ 3.88474489e-06 -2.46438100e-07  0.00000000e+00  0.00000000e+00
  0.00000000e+00 -4.09171956e-07 -2.46438100e-07  3.35959417e-06
  0.00000000e+00  0.00000000e+00  0.00000000e+00 -1.29690598e-07
  0.00000000e+00  0.00000000e+00  0.00000000e+00  0.00000000e+00
  0.00000000e+00  0.00000000e+00  0.00000000e+00  0.00000000e+00
  0.00000000e+00  0.00000000e+00  0.00000000e+00  0.00000000e+00
  0.00000000e+00  0.00000000e+00  0.00000000e+00  0.00000000e+00
  0.00000000e+00  0.00000000e+00 -4.09171956e-07 -1.29690598e-07
  0.00000000e+00  0.00000000e+00  0.00000000e+00  3.70585673e-06]","[[-4.72613171e-05  2.44424617e-03]
 [-6.73627921e-05 -8.35636896e-04]]",[],0.0,0.0
1787564014.7616143,2.345515317301291,1.2477791691676134,2.324478054740192,"[ 3.88474489e-06 -2.46438100e-07  0.00000000e+00  0.00000000e+00
  0.00000000e+00 -4.09171956e-07 -2.46438100e-07  3.35959417e-06
  0.00000000e+00  0.00000000e+00  0.00000000e+00 -1.29690598e-07
  0.00000000e+00  0.00000000e+00  0.00000000e+00  0.00000000e+00
  0.00000000e+00  0.00000000e+00  0.00000000e+00  0.00000000e+00
  0.00000000e+00  0.00000000e+00  0.00000000e+00  0.00000000e+00
  0.00000000e+00  0.00000000e+00  0.00000000e+00  0.00000000e+00
  0.00000000e+00  0.00000000e+00 -4.09171956e-07 -1.29690598e-07
  0.00000000e+00  0.00000000e+00  0.00000000e+00  3.70585673e-06]","[[-4.72613171e-05  2.44424617e-03]
 [-6.73627921e-05 -8.35636896e-04]]",[],0.0,0.0
1787564014.8172708,2.345515317301291,1.2477791691676134,2.324478054740192,"[ 3.88474489e-06 -2.46438100e-07  0.00000000e+00  0.00000000e+00
  0.00000000e+00 -4.09171956e-07 -2.46438100e-07  3.35959417e-06
  0.00000000e+00  0.00000000e+00  0.00000000e+00 -1.29690598e-07
  0.00000000e+00  0.00000000e+00  0.00000000e+00  0.00000000e+00
  0.00000000e+00  0.00000000e+00  0.00000000e+00  0.00000000e+00
  0.00000000e+00  0.00000000e+00  0.00000000e+00  0.00000000e+00
  0.00000000e+00  0.00000000e+00  0.00000000e+00  0.00000000e+00
  0.00000000e+00  0.00000000e+00 -4.09171956e-07 -1.29690598e-07
  0.00000000e+00  0.00000000e+00  0.00000000e+00  3.70585673e-06]","[[-4.72613171e-05  2.44424617e-03]
 [-6.73627921e-05 -8.35636896e-04]]",[],0.0,0.0
1787564014.8639836,2.345515317301291,1.2477791691676134,2.324478054740192,"[ 3.88474489e-06 -2.46438100e-07  0.00000000e+00  0.00000000e+00
  0.00000000e+00 -4.09171956e-07 -2.46438100e-07  3.35959417e-06
  0.00000000e+00  0.00000000e+00  0.00000000e+00 -1.29690598e-07
  0.00000000e+00  0.00000000e+00  0.00000000e+00  0.00000000e+00
  0.00000000e+00  0.00000000e+00  0.00000000e+00  0.00000000e+00
  0.00000000e+00  0.00000000e+00  0.00000000e+00  0.00000000e+00
  0.00000000e+00  0.00000000e+00  0.00000000e+00  0.00000000e+00
  0.00000000e+00  0.00000000e+00 -4.09171956e-07 -1.29690598e-07
  0.00000000e+00  0.00000000e+00  0.00000000e+00  3.70585673e-06]","[[-4.72613171e-05  2.44424617e-03]
 [-6.73627921e-05 -8.35636896e-04]]",[],0.0,0.0
1787564014.9101403,2.345515317301291,1.2477791691676134,2.324478054740192,"[ 3.88474489e-06 -2.46438100e-07  0.00000000e+00  0.00000000e+00
  0.00000000e+00 -4.09171956e-07 -2.46438100e-07  3.35959417e-06
  0.00000000e+00  0.00000000e+00  0.00000000e+00 -1.29690598e-07
  0.00000000e+00  0.00000000e+00  0.00000000e+00  0.00000000e+00
  0.00000000e+00  0.00000000e+00  0.00000000e+00  0.00000000e+00
  0.00000000e+00  0.00000000e+00  0.00000000e+00  0.00000000e+00
  0.00000000e+00  0.00000000e+00  0.00000000e+00  0.00000000e+00
  0.00000000e+00  0.00000000e+00 -4.09171956e-07 -1.29690598e-07
  0.00000000e+00  0.00000000e+00  0.00000000e+00  3.70585673e-06]","[[-4.72613171e-05  2.44424617e-03]
 [-6.73627921e-05 -8.35636896e-04]]",[],0.0,0.0
1787564014.961203,2.345515317301291,1.2477791691676134,2.324478054740192,"[ 3.88474489e-06 -2.46438100e-07  0.00000000e+00  0.00000000e+00
  0.00000000e+00 -4.09171956e-07 -2.46438100e-07  3.35959417e-06
  0.00000000e+00  0.00000000e+00  0.00000000e+00 -1.29690598e-07
  0.00000000e+00  0.00000000e+00  0.00000000e+00  0.00000000e+00
  0.00000000e+00  0.00000000e+00  0.00000000e+00  0.00000000e+00
  0.00000000e+00  0.00000000e+00  0.00000000e+00  0.00000000e+00
  0.00000000e+00  0.00000000e+00  0.00000000e+00  0.00000000e+00
  0.00000000e+00  0.00000000e+00 -4.09171956e-07 -1.29690598e-07
  0.00000000e+00  0.00000000e+00  0.00000000e+00  3.70585673e-06]","[[-4.72613171e-05  2.44424617e-03]
 [-6.73627921e-05 -8.35636896e-04]]",[],0.0,0.0
1787564015.016726,2.345515317301291,1.2477791691676134,2.324478054740192,"[ 3.88474489e-06 -2.46438100e-07  0.00000000e+00  0.00000000e+00
  0.00000000e+00 -4.09171956e-07 -2.46438100e-07  3.35959417e-06
  0.00000000e+00  0.00000000e+00  0.00000000e+00 -1.29690598e-07
  0.00000000e+00  0.00000000e+00  0.00000000e+00  0.00000000e+00
  0.00000000e+00  0.00000000e+00  0.00000000e+00  0.00000000e+00
  0.00000000e+00  0.00000000e+00  0.00000000e+00  0.00000000e+00
  0.00000000e+00  0.00000000e+00  0.00000000e+00  0.00000000e+00
  0.00000000e+00  0.00000000e+00 -4.09171956e-07 -1.29690598e-07
  0.00000000e+00  0.00000000e+00  0.00000000e+00  3.70585673e-06]","[[-4.72613171e-05  2.44424617e-03]
 [-6.73627921e-05 -8.35636896e-04]]",[],0.0,0.0
1787564015.0629466,2.345515317301291,1.2477791691676134,2.324478054740192,"[ 3.88474489e-06 -2.46438100e-07  0.00000000e+00  0.00000000e+00
  0.00000000e+00 -4.09171956e-07 -2.46438100e-07  3.35959417e-06
  0.00000000e+00  0.00000000e+00  0.00000000e+00 -1.29690598e-07
  0.00000000e+00  0.00000000e+00  0.00000000e+00  0.00000000e+00
  0.00000000e+00  0.00000000e+00  0.00000000e+00  0.00000000e+00
  0.00000000e+00  0.00000000e+00  0.00000000e+00  0.00000000e+00
  0.00000000e+00  0.00000000e+00  0.00000000e+00  0.00000000e+00
  0.00000000e+00  0.00000000e+00 -4.09171956e-07 -1.29690598e-07
  0.00000000e+00  0.00000000e+00  0.00000000e+00  3.70585673e-06]","[[-4.72613171e-05  2.44424617e-03]
 [-6.73627921e-05 -8.35636896e-04]]",[],0.0,0.0
1787564015.109961,2.344251919974649,1.2458469106301433,2.3359249277751317,"[ 3.72741348e-06 -2.94881591e-07  0.00000000e+00  0.00000000e+00
  0.00000000e+00 -3.43306950e-07 -2.94881591e-07  3.23869848e-06
  0.00000000e+00  0.00000000e+00  0.00000000e+00 -8.93774401e-08
  0.00000000e+00  0.00000000e+00  0.00000000e+00  0.00000000e+00
  0.00000000e+00  0.00000000e+00  0.00000000e+00  0.00000000e+00
  0.00000000e+00  0.00000000e+00  0.00000000e+00  0.00000000e+00
  0.00000000e+00  0.00000000e+00  0.00000000e+00  0.00000000e+00
  0.00000000e+00  0.00000000e+00 -3.43306950e-07 -8.93774401e-08
  0.00000000e+00  0.00000000e+00  0.00000000e+00  3.70747068e-06]","[[-4.40860017e-05  2.27993320e-03]
 [-6.41843190e-05 -8.88740570e-04]]",[],0.0,0.0
1787564015.159867,2.344251919974649,1.2458469106301433,2.3359249277751317,"[ 3.72741348e-06 -2.94881591e-07  0.00000000e+00  0.00000000e+00
  0.00000000e+00 -3.43306950e-07 -2.94881591e-07  3.23869848e-06
  0.00000000e+00  0.00000000e+00  0.00000000e+00 -8.93774401e-08
  0.00000000e+00  0.00000000e+00  0.00000000e+00  0.00000000e+00
  0.00000000e+00  0.00000000e+00  0.00000000e+00  0.00000000e+00
  0.00000000e+00  0.00000000e+00  0.00000000e+00  0.00000000e+00
  0.00000000e+00  0.00000000e+00  0.00000000e+00  0.00000000e+00
  0.00000000e+00  0.00000000e+00 -3.43306950e-07 -8.93774401e-08
  0.00000000e+00  0.00000000e+00  0.00000000e+00  3.70747068e-06]","[[-4.40860017e-05  2.27993320e-03]
 [-6.41843190e-05 -8.88740570e-04]]",[],0.0,0.0
1787564015.2110827,2.344251919974649,1.2458469106301433,2.3359249277751317,"[ 3.72741348e-06 -2.94881591e-07  0.00000000e+00  0.00000000e+00
  0.00000000e+00 -3.43306950e-07 -2.94881591e-07  3.23869848e-06
  0.00000000e+00  0.00000000e+00  0.00000000e+00 -8.93774401e-08
  0.00000000e+00  0.00000000e+00  0.00000000e+00  0.00000000e+00
  0.00000000e+00  0.00000000e+00  0.00000000e+00  0.00000000e+00
  0.00000000e+00  0.00000000e+00  0.00000000e+00  0.00000000e+00
  0.00000000e+00  0.00000000e+00  0.00000000e+00  0.00000000e+00
  0.00000000e+00  0.00000000e+00 -3.43306950e-07 -8.93774401e-08
  0.00000000e+00  0.00000000e+00  0.00000000e+00  3.70747068e-06]","[[-4.40860017e-05  2.27993320e-03]
 [-6.41843190e-05 -8.88740570e-04]]",[],0.0,0.0
1787564015.267685,2.344251919974649,1.2458469106301433,2.3359249277751317,"[ 3.72741348e-06 -2.94881591e-07  0.00000000e+00  0.00000000e+00
  0.00000000e+00 -3.43306950e-07 -2.94881591e-07  3.23869848e-06
  0.00000000e+00  0.00000000e+00  0.00000000e+00 -8.93774401e-08
  0.00000000e+00  0.00000000e+00  0.00000000e+00  0.00000000e+00
  0.00000000e+00  0.00000000e+00  0.00000000e+00  0.00000000e+00
  0.00000000e+00  0.00000000e+00  0.00000000e+00  0.00000000e+00
  0.00000000e+00  0.00000000e+00  0.00000000e+00  0.00000000e+00
  0.00000000e+00  0.00000000e+00 -3.43306950e-07 -8.93774401e-08
  0.00000000e+00  0.00000000e+00  0.00000000e+00  3.70747068e-06]","[[-4.40860017e-05  2.27993320e-03]
 [-6.41843190e-05 -8.88740570e-04]]",[],0.0,0.0
1787564015.3102987,2.344251919974649,1.2458469106301433,2.3359249277751317,"[ 3.72741348e-06 -2.94881591e-07  0.00000000e+00  0.00000000e+00
  0.00000000e+00 -3.43306950e-07 -2.94881591e-07  3.23869848e-06
  0.00000000e+00  0.00000000e+00  0.00000000e+00 -8.93774401e-08
  0.00000000e+00  0.00000000e+00  0.00000000e+00  0.00000000e+00
  0.00000000e+00  0.00000000e+00  0.00000000e+00  0.00000000e+00
  0.00000000e+00  0.00000000e+00  0.00000000e+00  0.00000000e+00
  0.00000000e+00  0.00000000e+00  0.00000000e+00  0.00000000e+00
  0.00000000e+00  0.00000000e+00 -3.43306950e-07 -8.93774401e-08
  0.00000000e+00  0.00000000e+00  0.00000000e+00  3.70747068e-06]","[[-4.40860017e-05  2.27993320e-03]
 [-6.41843190e-05 -8.88740570e-04]]",[],0.0,0.0
1787564015.3611982,2.344251919974649,1.2458469106301433,2.3359249277751317,"[ 3.72741348e-06 -2.94881591e-07  0.00000000e+00  0.00000000e+00
  0.00000000e+00 -3.43306950e-07 -2.94881591e-07  3.23869848e-06
  0.00000000e+00  0.00000000e+00  0.00000000e+00 -8.93774401e-08
  0.00000000e+00  0.00000000e+00  0.00000000e+00  0.00000000e+00
  0.00000000e+00  0.00000000e+00  0.00000000e+00  0.00000000e+00
  0.00000000e+00  0.00000000e+00  0.00000000e+00  0.00000000e+00
  0.00000000e+00  0.00000000e+00  0.00000000e+00  0.00000000e+00
  0.00000000e+00  0.00000000e+00 -3.43306950e-07 -8.93774401e-08
  0.00000000e+00  0.00000000e+00  0.00000000e+00  3.70747068e-06]","[[-4.40860017e-05  2.27993320e-03]
 [-6.41843190e-05 -8.88740570e-04]]",[],0.0,0.0
1787564015.4098454,2.344251919974649,1.2458469106301433,2.3359249277751317,"[ 3.72741348e-06 -2.94881591e-07  0.00000000e+00  0.00000000e+00
  0.00000000e+00 -3.43306950e-07 -2.94881591e-07  3.23869848e-06
  0.00000000e+00  0.00000000e+00  0.00000000e+00 -8.93774401e-08
  0.00000000e+00  0.00000000e+00  0.00000000e+00  0.00000000e+00
  0.00000000e+00  0.00000000e+00  0.00000000e+00  0.00000000e+00
  0.00000000e+00  0.00000000e+00  0.00000000e+00  0.00000000e+00
  0.00000000e+00  0.00000000e+00  0.00000000e+00  0.00000000e+00
  0.00000000e+00  0.00000000e+00 -3.43306950e-07 -8.93774401e-08
  0.00000000e+00  0.00000000e+00  0.00000000e+00  3.70747068e-06]","[[-4.40860017e-05  2.27993320e-03]
 [-6.41843190e-05 -8.88740570e-04]]",[],0.0,0.0
1787564015.4659188,2.344251919974649,1.2458469106301433,2.3359249277751317,"[ 3.72741348e-06 -2.94881591e-07  0.00000000e+00  0.00000000e+00
  0.00000000e+00 -3.43306950e-07 -2.94881591e-07  3.23869848e-06
  0.00000000e+00  0.00000000e+00  0.00000000e+00 -8.93774401e-08
  0.00000000e+00  0.00000000e+00  0.00000000e+00  0.00000000e+00
  0.00000000e+00  0.00000000e+00  0.00000000e+00  0.00000000e+00
  0.00000000e+00  0.00000000e+00  0.00000000e+00  0.00000000e+00
  0.00000000e+00  0.00000000e+00  0.00000000e+00  0.00000000e+00
  0.00000000e+00  0.00000000e+00 -3.43306950e-07 -8.93774401e-08
  0.00000000e+00  0.00000000e+00  0.00000000e+00  3.70747068e-06]","[[-4.40860017e-05  2.27993320e-03]
 [-6.41843190e-05 -8.88740570e-04]]",[],0.0,0.0
1787564015.5105367,2.344251919974649,1.2458469106301433,2.3359249277751317,"[ 3.72741348e-06 -2.94881591e-07  0.00000000e+00  0.00000000e+00
  0.00000000e+00 -3.43306950e-07 -2.94881591e-07  3.23869848e-06
  0.00000000e+00  0.00000000e+00  0.00000000e+00 -8.93774401e-08
  0.00000000e+00  0.00000000e+00  0.00000000e+00  0.00000000e+00
  0.00000000e+00  0.00000000e+00  0.00000000e+00  0.00000000e+00
  0.00000000e+00  0.00000000e+00  0.00000000e+00  0.00000000e+00
  0.00000000e+00  0.00000000e+00  0.00000000e+00  0.00000000e+00
  0.00000000e+00  0.00000000e+00 -3.43306950e-07 -8.93774401e-08
  0.00000000e+00  0.00000000e+00  0.00000000e+00  3.70747068e-06]","[[-4.40860017e-05  2.27993320e-03]
 [-6.41843190e-05 -8.88740570e-04]]",[],0.0,0.0
1787564015.5642846,2.344251919974649,1.2458469106301433,2.3359249277751317,"[ 3.72741348e-06 -2.94881591e-07  0.00000000e+00  0.00000000e+00
  0.00000000e+00 -3.43306950e-07 -2.94881591e-07  3.23869848e-06
  0.00000000e+00  0.00000000e+00  0.00000000e+00 -8.93774401e-08
  0.00000000e+00  0.00000000e+00  0.00000000e+00  0.00000000e+00
  0.00000000e+00  0.00000000e+00  0.00000000e+00  0.00000000e+00
  0.00000000e+00  0.00000000e+00  0.00000000e+00  0.00000000e+00
  0.00000000e+00  0.00000000e+00  0.00000000e+00  0.00000000e+00
  0.00000000e+00  0.00000000e+00 -3.43306950e-07 -8.93774401e-08
  0.00000000e+00  0.00000000e+00  0.00000000e+00  3.70747068e-06]","[[-4.40860017e-05  2.27993320e-03]
 [-6.41843190e-05 -8.88740570e-04]]",[],0.0,0.0
1787564015.6099353,2.344251919974649,1.2458469106301433,2.3359249277751317,"[ 3.72741348e-06 -2.94881591e-07  0.00000000e+00  0.00000000e+00
  0.00000000e+00 -3.43306950e-07 -2.94881591e-07  3.23869848e-06
  0.00000000e+00  0.00000000e+00  0.00000000e+00 -8.93774401e-08
  0.00000000e+00  0.00000000e+00  0.00000000e+00  0.00000000e+00
  0.00000000e+00  0.00000000e+00  0.00000000e+00  0.00000000e+00
  0.00000000e+00  0.00000000e+00  0.00000000e+00  0.00000000e+00
  0.00000000e+00  0.00000000e+00  0.00000000e+00  0.00000000e+00
  0.00000000e+00  0.00000000e+00 -3.43306950e-07 -8.93774401e-08
  0.00000000e+00  0.00000000e+00  0.00000000e+00  3.70747068e-06]","[[-4.40860017e-05  2.27993320e-03]
 [-6.41843190e-05 -8.88740570e-04]]",[],0.0,0.0
1787564015.6667562,2.344251919974649,1.2458469106301433,2.3359249277751317,"[ 3.72741348e-06 -2.94881591e-07  0.00000000e+00  0.00000000e+00
  0.00000000e+00 -3.43306950e-07 -2.94881591e-07  3.23869848e-06
  0.00000000e+00  0.00000000e+00  0.00000000e+00 -8.93774401e-08
  0.00000000e+00  0.00000000e+00  0.00000000e+00  0.00000000e+00
  0.00000000e+00  0.00000000e+00  0.00000000e+00  0.00000000e+00
  0.00000000e+00  0.00000000e+00  0.00000000e+00  0.00000000e+00
  0.00000000e+00  0.00000000e+00  0.00000000e+00  0.00000000e+00
  0.00000000e+00  0.00000000e+00 -3.43306950e-07 -8.93774401e-08
  0.00000000e+00  0.00000000e+00  0.00000000e+00  3.70747068e-06]","[[-4.40860017e-05  2.27993320e-03]
 [-6.41843190e-05 -8.88740570e-04]]",[],0.0,0.0
1787564015.7146227,2.344251919974649,1.2458469106301433,2.3359249277751317,"[ 3.72741348e-06 -2.94881591e-07  0.00000000e+00  0.00000000e+00
  0.00000000e+00 -3.43306950e-07 -2.94881591e-07  3.23869848e-06
  0.00000000e+00  0.00000000e+00  0.00000000e+00 -8.93774401e-08
  0.00000000e+00  0.00000000e+00  0.00000000e+00  0.00000000e+00
  0.00000000e+00  0.00000000e+00  0.00000000e+00  0.00000000e+00
  0.00000000e+00  0.00000000e+00  0.00000000e+00  0.00000000e+00
  0.00000000e+00  0.00000000e+00  0.00000000e+00  0.00000000e+00
  0.00000000e+00  0.00000000e+00 -3.43306950e-07 -8.93774401e-08
  0.00000000e+00  0.00000000e+00  0.00000000e+00  3.70747068e-06]","[[-4.40860017e-05  2.27993320e-03]
 [-6.41843190e-05 -8.88740570e-04]]",[],0.0,0.0
1787564015.7600808,2.344251919974649,1.2458469106301433,2.3359249277751317,"[ 3.72741348e-06 -2.94881591e-07  0.00000000e+00  0.00000000e+00
  0.00000000e+00 -3.43306950e-07 -2.94881591e-07  3.23869848e-06
  0.00000000e+00  0.00000000e+00  0.00000000e+00 -8.93774401e-08
  0.00000000e+00  0.00000000e+00  0.00000000e+00  0.00000000e+00
  0.00000000e+00  0.00000000e+00  0.00000000e+00  0.00000000e+00
  0.00000000e+00  0.00000000e+00  0.00000000e+00  0.00000000e+00
  0.00000000e+00  0.00000000e+00  0.00000000e+00  0.00000000e+00
  0.00000000e+00  0.00000000e+00 -3.43306950e-07 -8.93774401e-08
  0.00000000e+00  0.00000000e+00  0.00000000e+00  3.70747068e-06]","[[-4.40860017e-05  2.27993320e-03]
 [-6.41843190e-05 -8.88740570e-04]]",[],0.0,0.0
1787564015.8096287,2.344764516053481,1.2445204782189612,2.325024291029367,"[ 3.57427749e-06 -3.11993696e-07  0.00000000e+00  0.00000000e+00
  0.00000000e+00 -3.09818277e-07 -3.11993696e-07  3.11894598e-06
  0.00000000e+00  0.00000000e+00  0.00000000e+00 -8.89287021e-08
  0.00000000e+00  0.00000000e+00  0.00000000e+00  0.00000000e+00
  0.00000000e+00  0.00000000e+00  0.00000000e+00  0.00000000e+00
  0.00000000e+00  0.00000000e+00  0.00000000e+00  0.00000000e+00
  0.00000000e+00  0.00000000e+00  0.00000000e+00  0.00000000e+00
  0.00000000e+00  0.00000000e+00 -3.09818277e-07 -8.89287021e-08
  0.00000000e+00  0.00000000e+00  0.00000000e+00  3.49770568e-06]","[[-4.16601799e-05  2.16119400e-03]
 [-6.14327551e-05 -8.62678731e-04]]",[],0.0,0.0
1787564015.8668346,2.344764516053481,1.2445204782189612,2.325024291029367,"[ 3.57427749e-06 -3.11993696e-07  0.00000000e+00  0.00000000e+00
  0.00000000e+00 -3.09818277e-07 -3.11993696e-07  3.11894598e-06
  0.00000000e+00  0.00000000e+00  0.00000000e+00 -8.89287021e-08
  0.00000000e+00  0.00000000e+00  0.00000000e+00  0.00000000e+00
  0.00000000e+00  0.00000000e+00  0.00000000e+00  0.00000000e+00
  0.00000000e+00  0.00000000e+00  0.00000000e+00  0.00000000e+00
  0.00000000e+00  0.00000000e+00  0.00000000e+00  0.00000000e+00
  0.00000000e+00  0.00000000e+00 -3.09818277e-07 -8.89287021e-08
  0.00000000e+00  0.00000000e+00  0.00000000e+00  3.49770568e-06]","[[-4.16601799e-05  2.16119400e-03]
 [-6.14327551e-05 -8.62678731e-04]]",[],0.0,0.0
1787564015.9099233,2.344764516053481,1.2445204782189612,2.325024291029367,"[ 3.57427749e-06 -3.11993696e-07  0.00000000e+00  0.00000000e+00
  0.00000000e+00 -3.09818277e-07 -3.11993696e-07  3.11894598e-06
  0.00000000e+00  0.00000000e+00  0.00000000e+00 -8.89287021e-08
  0.00000000e+00  0.00000000e+00  0.00000000e+00  0.00000000e+00
  0.00000000e+00  0.00000000e+00  0.00000000e+00  0.00000000e+00
  0.00000000e+00  0.00000000e+00  0.00000000e+00  0.00000000e+00
  0.00000000e+00  0.00000000e+00  0.00000000e+00  0.00000000e+00
  0.00000000e+00  0.00000000e+00 -3.09818277e-07 -8.89287021e-08
  0.00000000e+00  0.00000000e+00  0.00000000e+00  3.49770568e-06]","[[-4.16601799e-05  2.16119400e-03]
 [-6.14327551e-05 -8.62678731e-04]]",[],0.0,0.0
1787564015.9689982,2.344764516053481,1.2445204782189612,2.325024291029367,"[ 3.57427749e-06 -3.11993696e-07  0.00000000e+00  0.00000000e+00
  0.00000000e+00 -3.09818277e-07 -3.11993696e-07  3.11894598e-06
  0.00000000e+00  0.00000000e+00  0.00000000e+00 -8.89287021e-08
  0.00000000e+00  0.00000000e+00  0.00000000e+00  0.00000000e+00
  0.00000000e+00  0.00000000e+00  0.00000000e+00  0.00000000e+00
  0.00000000e+00  0.00000000e+00  0.00000000e+00  0.00000000e+00
  0.00000000e+00  0.00000000e+00  0.00000000e+00  0.00000000e+00
  0.00000000e+00  0.00000000e+00 -3.09818277e-07 -8.89287021e-08
  0.00000000e+00  0.00000000e+00  0.00000000e+00  3.49770568e-06]","[[-4.16601799e-05  2.16119400e-03]
 [-6.14327551e-05 -8.62678731e-04]]",[],0.0,0.0
1787564016.0124774,2.344764516053481,1.2445204782189612,2.325024291029367,"[ 3.57427749e-06 -3.11993696e-07  0.00000000e+00  0.00000000e+00
  0.00000000e+00 -3.09818277e-07 -3.11993696e-07  3.11894598e-06
  0.00000000e+00  0.00000000e+00  0.00000000e+00 -8.89287021e-08
  0.00000000e+00  0.00000000e+00  0.00000000e+00  0.00000000e+00
  0.00000000e+00  0.00000000e+00  0.00000000e+00  0.00000000e+00
  0.00000000e+00  0.00000000e+00  0.00000000e+00  0.00000000e+00
  0.00000000e+00  0.00000000e+00  0.00000000e+00  0.00000000e+00
  0.00000000e+00  0.00000000e+00 -3.09818277e-07 -8.89287021e-08
  0.00000000e+00  0.00000000e+00  0.00000000e+00  3.49770568e-06]","[[-4.16601799e-05  2.16119400e-03]
 [-6.14327551e-05 -8.62678731e-04]]",[],0.0,0.0
1787564016.0676866,2.344764516053481,1.2445204782189612,2.325024291029367,"[ 3.57427749e-06 -3.11993696e-07  0.00000000e+00  0.00000000e+00
  0.00000000e+00 -3.09818277e-07 -3.11993696e-07  3.11894598e-06
  0.00000000e+00  0.00000000e+00  0.00000000e+00 -8.89287021e-08
  0.00000000e+00  0.00000000e+00  0.00000000e+00  0.00000000e+00
  0.00000000e+00  0.00000000e+00  0.00000000e+00  0.00000000e+00
  0.00000000e+00  0.00000000e+00  0.00000000e+00  0.00000000e+00
  0.00000000e+00  0.00000000e+00  0.00000000e+00  0.00000000e+00
  0.00000000e+00  0.00000000e+00 -3.09818277e-07 -8.89287021e-08
  0.00000000e+00  0.00000000e+00  0.00000000e+00  3.49770568e-06]","[[-4.16601799e-05  2.16119400e-03]
 [-6.14327551e-05 -8.62678731e-04]]",[],0.0,0.0
1787564016.1160507,2.344764516053481,1.2445204782189612,2.325024291029367,"[ 3.57427749e-06 -3.11993696e-07  0.00000000e+00  0.00000000e+00
  0.00000000e+00 -3.09818277e-07 -3.11993696e-07  3.11894598e-06
  0.00000000e+00  0.00000000e+00  0.00000000e+00 -8.89287021e-08
  0.00000000e+00  0.00000000e+00  0.00000000e+00  0.00000000e+00
  0.00000000e+00  0.00000000e+00  0.00000000e+00  0.00000000e+00
  0.00000000e+00  0.00000000e+00  0.00000000e+00  0.00000000e+00
  0.00000000e+00  0.00000000e+00  0.00000000e+00  0.00000000e+00
  0.00000000e+00  0.00000000e+00 -3.09818277e-07 -8.89287021e-08
  0.00000000e+00  0.00000000e+00  0.00000000e+00  3.49770568e-06]","[[-4.16601799e-05  2.16119400e-03]
 [-6.14327551e-05 -8.62678731e-04]]",[],0.0,0.0
1787564016.1756155,2.344764516053481,1.2445204782189612,2.325024291029367,"[ 3.57427749e-06 -3.11993696e-07  0.00000000e+00  0.00000000e+00
  0.00000000e+00 -3.09818277e-07 -3.11993696e-07  3.11894598e-06
  0.00000000e+00  0.00000000e+00  0.00000000e+00 -8.89287021e-08
  0.00000000e+00  0.00000000e+00  0.00000000e+00  0.00000000e+00
  0.00000000e+00  0.00000000e+00  0.00000000e+00  0.00000000e+00
  0.00000000e+00  0.00000000e+00  0.00000000e+00  0.00000000e+00
  0.00000000e+00  0.00000000e+00  0.00000000e+00  0.00000000e+00
  0.00000000e+00  0.00000000e+00 -3.09818277e-07 -8.89287021e-08
  0.00000000e+00  0.00000000e+00  0.00000000e+00  3.49770568e-06]","[[-4.16601799e-05  2.16119400e-03]
 [-6.14327551e-05 -8.62678731e-04]]",[],0.0,0.0
1787564016.210345,2.344764516053481,1.2445204782189612,2.325024291029367,"[ 3.57427749e-06 -3.11993696e-07  0.00000000e+00  0.00000000e+00
  0.00000000e+00 -3.09818277e-07 -3.11993696e-07  3.11894598e-06
  0.00000000e+00  0.00000000e+00  0.00000000e+00 -8.89287021e-08
  0.00000000e+00  0.00000000e+00  0.00000000e+00  0.00000000e+00
  0.00000000e+00  0.00000000e+00  0.00000000e+00  0.00000000e+00
  0.00000000e+00  0.00000000e+00  0.00000000e+00  0.00000000e+00
  0.00000000e+00  0.00000000e+00  0.00000000e+00  0.00000000e+00
  0.00000000e+00  0.00000000e+00 -3.09818277e-07 -8.89287021e-08
  0.00000000e+00  0.00000000e+00  0.00000000e+00  3.49770568e-06]","[[-4.16601799e-05  2.16119400e-03]
 [-6.14327551e-05 -8.62678731e-04]]",[],0.0,0.0
1787564016.2599409,2.344764516053481,1.2445204782189612,2.325024291029367,"[ 3.57427749e-06 -3.11993696e-07  0.00000000e+00  0.00000000e+00
  0.00000000e+00 -3.09818277e-07 -3.11993696e-07  3.11894598e-06
  0.00000000e+00  0.00000000e+00  0.00000000e+00 -8.89287021e-08
  0.00000000e+00  0.00000000e+00  0.00000000e+00  0.00000000e+00
  0.00000000e+00  0.00000000e+00  0.00000000e+00  0.00000000e+00
  0.00000000e+00  0.00000000e+00  0.00000000e+00  0.00000000e+00
  0.00000000e+00  0.00000000e+00  0.00000000e+00  0.00000000e+00
  0.00000000e+00  0.00000000e+00 -3.09818277e-07 -8.89287021e-08
  0.00000000e+00  0.00000000e+00  0.00000000e+00  3.49770568e-06]","[[-4.16601799e-05  2.16119400e-03]
 [-6.14327551e-05 -8.62678731e-04]]",[],0.0,0.0
1787564016.3149848,2.344764516053481,1.2445204782189612,2.325024291029367,"[ 3.57427749e-06 -3.11993696e-07  0.00000000e+00  0.00000000e+00
  0.00000000e+00 -3.09818277e-07 -3.11993696e-07  3.11894598e-06
  0.00000000e+00  0.00000000e+00  0.00000000e+00 -8.89287021e-08
  0.00000000e+00  0.00000000e+00  0.00000000e+00  0.00000000e+00
  0.00000000e+00  0.00000000e+00  0.00000000e+00  0.00000000e+00
  0.00000000e+00  0.00000000e+00  0.00000000e+00  0.00000000e+00
  0.00000000e+00  0.00000000e+00  0.00000000e+00  0.00000000e+00
  0.00000000e+00  0.00000000e+00 -3.09818277e-07 -8.89287021e-08
  0.00000000e+00  0.00000000e+00  0.00000000e+00  3.49770568e-06]","[[-4.16601799e-05  2.16119400e-03]
 [-6.14327551e-05 -8.62678731e-04]]",[],0.0,0.0
1787564016.3725536,2.344764516053481,1.2445204782189612,2.325024291029367,"[ 3.57427749e-06 -3.11993696e-07  0.00000000e+00  0.00000000e+00
  0.00000000e+00 -3.09818277e-07 -3.11993696e-07  3.11894598e-06
  0.00000000e+00  0.00000000e+00  0.00000000e+00 -8.89287021e-08
  0.00000000e+00  0.00000000e+00  0.00000000e+00  0.00000000e+00
  0.00000000e+00  0.00000000e+00  0.00000000e+00  0.00000000e+00
  0.00000000e+00  0.00000000e+00  0.00000000e+00  0.00000000e+00
  0.00000000e+00  0.00000000e+00  0.00000000e+00  0.00000000e+00
  0.00000000e+00  0.00000000e+00 -3.09818277e-07 -8.89287021e-08
  0.00000000e+00  0.00000000e+00  0.00000000e+00  3.49770568e-06]","[[-4.16601799e-05  2.16119400e-03]
 [-6.14327551e-05 -8.62678731e-04]]",[],0.0,0.0
1787564016.4137998,2.344764516053481,1.2445204782189612,2.325024291029367,"[ 3.57427749e-06 -3.11993696e-07  0.00000000e+00  0.00000000e+00
  0.00000000e+00 -3.09818277e-07 -3.11993696e-07  3.11894598e-06
  0.00000000e+00  0.00000000e+00  0.00000000e+00 -8.89287021e-08
  0.00000000e+00  0.00000000e+00  0.00000000e+00  0.00000000e+00
  0.00000000e+00  0.00000000e+00  0.00000000e+00  0.00000000e+00
  0.00000000e+00  0.00000000e+00  0.00000000e+00  0.00000000e+00
  0.00000000e+00  0.00000000e+00  0.00000000e+00  0.00000000e+00
  0.00000000e+00  0.00000000e+00 -3.09818277e-07 -8.89287021e-08
  0.00000000e+00  0.00000000e+00  0.00000000e+00  3.49770568e-06]","[[-4.16601799e-05  2.16119400e-03]
 [-6.14327551e-05 -8.62678731e-04]]",[],0.0,0.0
1787564016.4643824,2.3453417589488272,1.2418985793550876,2.317400731809361,"[ 3.44292189e-06 -3.37802382e-07  0.00000000e+00  0.00000000e+00
  0.00000000e+00 -3.05886173e-07 -3.37802382e-07  3.02412193e-06
  0.00000000e+00  0.00000000e+00  0.00000000e+00 -7.91400020e-08
  0.00000000e+00  0.00000000e+00  0.00000000e+00  0.00000000e+00
  0.00000000e+00  0.00000000e+00  0.00000000e+00  0.00000000e+00
  0.00000000e+00  0.00000000e+00  0.00000000e+00  0.00000000e+00
  0.00000000e+00  0.00000000e+00  0.00000000e+00  0.00000000e+00
  0.00000000e+00  0.00000000e+00 -3.05886173e-07 -7.91400020e-08
  0.00000000e+00  0.00000000e+00  0.00000000e+00  3.50706738e-06]","[[-3.93169454e-05  2.10440938e-03]
 [-5.91060678e-05 -8.62884050e-04]]",[],0.0,0.0
1787564016.5176313,2.3453417589488272,1.2418985793550876,2.317400731809361,"[ 3.44292189e-06 -3.37802382e-07  0.00000000e+00  0.00000000e+00
  0.00000000e+00 -3.05886173e-07 -3.37802382e-07  3.02412193e-06
  0.00000000e+00  0.00000000e+00  0.00000000e+00 -7.91400020e-08
  0.00000000e+00  0.00000000e+00  0.00000000e+00  0.00000000e+00
  0.00000000e+00  0.00000000e+00  0.00000000e+00  0.00000000e+00
  0.00000000e+00  0.00000000e+00  0.00000000e+00  0.00000000e+00
  0.00000000e+00  0.00000000e+00  0.00000000e+00  0.00000000e+00
  0.00000000e+00  0.00000000e+00 -3.05886173e-07 -7.91400020e-08
  0.00000000e+00  0.00000000e+00  0.00000000e+00  3.50706738e-06]","[[-3.93169454e-05  2.10440938e-03]
 [-5.91060678e-05 -8.62884050e-04]]",[],0.0,0.0
1787564016.5607336,2.3453417589488272,1.2418985793550876,2.317400731809361,"[ 3.44292189e-06 -3.37802382e-07  0.00000000e+00  0.00000000e+00
  0.00000000e+00 -3.05886173e-07 -3.37802382e-07  3.02412193e-06
  0.00000000e+00  0.00000000e+00  0.00000000e+00 -7.91400020e-08
  0.00000000e+00  0.00000000e+00  0.00000000e+00  0.00000000e+00
  0.00000000e+00  0.00000000e+00  0.00000000e+00  0.00000000e+00
  0.00000000e+00  0.00000000e+00  0.00000000e+00  0.00000000e+00
  0.00000000e+00  0.00000000e+00  0.00000000e+00  0.00000000e+00
  0.00000000e+00  0.00000000e+00 -3.05886173e-07 -7.91400020e-08
  0.00000000e+00  0.00000000e+00  0.00000000e+00  3.50706738e-06]","[[-3.93169454e-05  2.10440938e-03]
 [-5.91060678e-05 -8.62884050e-04]]",[],0.0,0.0
1787564016.6334288,2.3453417589488272,1.2418985793550876,2.317400731809361,"[ 3.44292189e-06 -3.37802382e-07  0.00000000e+00  0.00000000e+00
  0.00000000e+00 -3.05886173e-07 -3.37802382e-07  3.02412193e-06
  0.00000000e+00  0.00000000e+00  0.00000000e+00 -7.91400020e-08
  0.00000000e+00  0.00000000e+00  0.00000000e+00  0.00000000e+00
  0.00000000e+00  0.00000000e+00  0.00000000e+00  0.00000000e+00
  0.00000000e+00  0.00000000e+00  0.00000000e+00  0.00000000e+00
  0.00000000e+00  0.00000000e+00  0.00000000e+00  0.00000000e+00
  0.00000000e+00  0.00000000e+00 -3.05886173e-07 -7.91400020e-08
  0.00000000e+00  0.00000000e+00  0.00000000e+00  3.50706738e-06]","[[-3.93169454e-05  2.10440938e-03]
 [-5.91060678e-05 -8.62884050e-04]]",[],0.0,0.0
1787564016.6755743,2.3453417589488272,1.2418985793550876,2.317400731809361,"[ 3.44292189e-06 -3.37802382e-07  0.00000000e+00  0.00000000e+00
  0.00000000e+00 -3.05886173e-07 -3.37802382e-07  3.02412193e-06
  0.00000000e+00  0.00000000e+00  0.00000000e+00 -7.91400020e-08
  0.00000000e+00  0.00000000e+00  0.00000000e+00  0.00000000e+00
  0.00000000e+00  0.00000000e+00  0.00000000e+00  0.00000000e+00
  0.00000000e+00  0.00000000e+00  0.00000000e+00  0.00000000e+00
  0.00000000e+00  0.00000000e+00  0.00000000e+00  0.00000000e+00
  0.00000000e+00  0.00000000e+00 -3.05886173e-07 -7.91400020e-08
  0.00000000e+00  0.00000000e+00  0.00000000e+00  3.50706738e-06]","[[-3.93169454e-05  2.10440938e-03]
 [-5.91060678e-05 -8.62884050e-04]]",[],0.0,0.0
1787564016.7150486,2.3453417589488272,1.2418985793550876,2.317400731809361,"[ 3.44292189e-06 -3.37802382e-07  0.00000000e+00  0.00000000e+00
  0.00000000e+00 -3.05886173e-07 -3.37802382e-07  3.02412193e-06
  0.00000000e+00  0.00000000e+00  0.00000000e+00 -7.91400020e-08
  0.00000000e+00  0.00000000e+00  0.00000000e+00  0.00000000e+00
  0.00000000e+00  0.00000000e+00  0.00000000e+00  0.00000000e+00
  0.00000000e+00  0.00000000e+00  0.00000000e+00  0.00000000e+00
  0.00000000e+00  0.00000000e+00  0.00000000e+00  0.00000000e+00
  0.00000000e+00  0.00000000e+00 -3.05886173e-07 -7.91400020e-08
  0.00000000e+00  0.00000000e+00  0.00000000e+00  3.50706738e-06]","[[-3.93169454e-05  2.10440938e-03]
 [-5.91060678e-05 -8.62884050e-04]]",[],0.0,0.0
1787564016.759687,2.3453417589488272,1.2418985793550876,2.317400731809361,"[ 3.44292189e-06 -3.37802382e-07  0.00000000e+00  0.00000000e+00
  0.00000000e+00 -3.05886173e-07 -3.37802382e-07  3.02412193e-06
  0.00000000e+00  0.00000000e+00  0.00000000e+00 -7.91400020e-08
  0.00000000e+00  0.00000000e+00  0.00000000e+00  0.00000000e+00
  0.00000000e+00  0.00000000e+00  0.00000000e+00  0.00000000e+00
  0.00000000e+00  0.00000000e+00  0.00000000e+00  0.00000000e+00
  0.00000000e+00  0.00000000e+00  0.00000000e+00  0.00000000e+00
  0.00000000e+00  0.00000000e+00 -3.05886173e-07 -7.91400020e-08
  0.00000000e+00  0.00000000e+00  0.00000000e+00  3.50706738e-06]","[[-3.93169454e-05  2.10440938e-03]
 [-5.91060678e-05 -8.62884050e-04]]",[],0.0,0.0
1787564016.8127158,2.3453417589488272,1.2418985793550876,2.317400731809361,"[ 3.44292189e-06 -3.37802382e-07  0.00000000e+00  0.00000000e+00
  0.00000000e+00 -3.05886173e-07 -3.37802382e-07  3.02412193e-06
  0.00000000e+00  0.00000000e+00  0.00000000e+00 -7.91400020e-08
  0.00000000e+00  0.00000000e+00  0.00000000e+00  0.00000000e+00
  0.00000000e+00  0.00000000e+00  0.00000000e+00  0.00000000e+00
  0.00000000e+00  0.00000000e+00  0.00000000e+00  0.00000000e+00
  0.00000000e+00  0.00000000e+00  0.00000000e+00  0.00000000e+00
  0.00000000e+00  0.00000000e+00 -3.05886173e-07 -7.91400020e-08
  0.00000000e+00  0.00000000e+00  0.00000000e+00  3.50706738e-06]","[[-3.93169454e-05  2.10440938e-03]
 [-5.91060678e-05 -8.62884050e-04]]",[],0.0,0.0
1787564016.8600225,2.3453417589488272,1.2418985793550876,2.317400731809361,"[ 3.44292189e-06 -3.37802382e-07  0.00000000e+00  0.00000000e+00
  0.00000000e+00 -3.05886173e-07 -3.37802382e-07  3.02412193e-06
  0.00000000e+00  0.00000000e+00  0.00000000e+00 -7.91400020e-08
  0.00000000e+00  0.00000000e+00  0.00000000e+00  0.00000000e+00
  0.00000000e+00  0.00000000e+00  0.00000000e+00  0.00000000e+00
  0.00000000e+00  0.00000000e+00  0.00000000e+00  0.00000000e+00
  0.00000000e+00  0.00000000e+00  0.00000000e+00  0.00000000e+00
  0.00000000e+00  0.00000000e+00 -3.05886173e-07 -7.91400020e-08
  0.00000000e+00  0.00000000e+00  0.00000000e+00  3.50706738e-06]","[[-3.93169454e-05  2.10440938e-03]
 [-5.91060678e-05 -8.62884050e-04]]",[],0.0,0.0
1787564016.910505,2.3453417589488272,1.2418985793550876,2.317400731809361,"[ 3.44292189e-06 -3.37802382e-07  0.00000000e+00  0.00000000e+00
  0.00000000e+00 -3.05886173e-07 -3.37802382e-07  3.02412193e-06
  0.00000000e+00  0.00000000e+00  0.00000000e+00 -7.91400020e-08
  0.00000000e+00  0.00000000e+00  0.00000000e+00  0.00000000e+00
  0.00000000e+00  0.00000000e+00  0.00000000e+00  0.00000000e+00
  0.00000000e+00  0.00000000e+00  0.00000000e+00  0.00000000e+00
  0.00000000e+00  0.00000000e+00  0.00000000e+00  0.00000000e+00
  0.00000000e+00  0.00000000e+00 -3.05886173e-07 -7.91400020e-08
  0.00000000e+00  0.00000000e+00  0.00000000e+00  3.50706738e-06]","[[-3.93169454e-05  2.10440938e-03]
 [-5.91060678e-05 -8.62884050e-04]]",[],0.0,0.0
1787564016.9614062,2.3453417589488272,1.2418985793550876,2.317400731809361,"[ 3.44292189e-06 -3.37802382e-07  0.00000000e+00  0.00000000e+00
  0.00000000e+00 -3.05886173e-07 -3.37802382e-07  3.02412193e-06
  0.00000000e+00  0.00000000e+00  0.00000000e+00 -7.91400020e-08
  0.00000000e+00  0.00000000e+00  0.00000000e+00  0.00000000e+00
  0.00000000e+00  0.00000000e+00  0.00000000e+00  0.00000000e+00
  0.00000000e+00  0.00000000e+00  0.00000000e+00  0.00000000e+00
  0.00000000e+00  0.00000000e+00  0.00000000e+00  0.00000000e+00
  0.00000000e+00  0.00000000e+00 -3.05886173e-07 -7.91400020e-08
  0.00000000e+00  0.00000000e+00  0.00000000e+00  3.50706738e-06]","[[-3.93169454e-05  2.10440938e-03]
 [-5.91060678e-05 -8.62884050e-04]]",[],0.0,0.0
1787564017.0103285,2.3453417589488272,1.2418985793550876,2.317400731809361,"[ 3.44292189e-06 -3.37802382e-07  0.00000000e+00  0.00000000e+00
  0.00000000e+00 -3.05886173e-07 -3.37802382e-07  3.02412193e-06
  0.00000000e+00  0.00000000e+00  0.00000000e+00 -7.91400020e-08
  0.00000000e+00  0.00000000e+00  0.00000000e+00  0.00000000e+00
  0.00000000e+00  0.00000000e+00  0.00000000e+00  0.00000000e+00
  0.00000000e+00  0.00000000e+00  0.00000000e+00  0.00000000e+00
  0.00000000e+00  0.00000000e+00  0.00000000e+00  0.00000000e+00
  0.00000000e+00  0.00000000e+00 -3.05886173e-07 -7.91400020e-08
  0.00000000e+00  0.00000000e+00  0.00000000e+00  3.50706738e-06]","[[-3.93169454e-05  2.10440938e-03]
 [-5.91060678e-05 -8.62884050e-04]]",[],0.0,0.0
1787564017.0756466,2.3453417589488272,1.2418985793550876,2.317400731809361,"[ 3.44292189e-06 -3.37802382e-07  0.00000000e+00  0.00000000e+00
  0.00000000e+00 -3.05886173e-07 -3.37802382e-07  3.02412193e-06
  0.00000000e+00  0.00000000e+00  0.00000000e+00 -7.91400020e-08
  0.00000000e+00  0.00000000e+00  0.00000000e+00  0.00000000e+00
  0.00000000e+00  0.00000000e+00  0.00000000e+00  0.00000000e+00
  0.00000000e+00  0.00000000e+00  0.00000000e+00  0.00000000e+00
  0.00000000e+00  0.00000000e+00  0.00000000e+00  0.00000000e+00
  0.00000000e+00  0.00000000e+00 -3.05886173e-07 -7.91400020e-08
  0.00000000e+00  0.00000000e+00  0.00000000e+00  3.50706738e-06]","[[-3.93169454e-05  2.10440938e-03]
 [-5.91060678e-05 -8.62884050e-04]]",[],0.0,0.0
1787564017.1167579,2.3453417589488272,1.2418985793550876,2.317400731809361,"[ 3.44292189e-06 -3.37802382e-07  0.00000000e+00  0.00000000e+00
  0.00000000e+00 -3.05886173e-07 -3.37802382e-07  3.02412193e-06
  0.00000000e+00  0.00000000e+00  0.00000000e+00 -7.91400020e-08
  0.00000000e+00  0.00000000e+00  0.00000000e+00  0.00000000e+00
  0.00000000e+00  0.00000000e+00  0.00000000e+00  0.00000000e+00
  0.00000000e+00  0.00000000e+00  0.00000000e+00  0.00000000e+00
  0.00000000e+00  0.00000000e+00  0.00000000e+00  0.00000000e+00
  0.00000000e+00  0.00000000e+00 -3.05886173e-07 -7.91400020e-08
  0.00000000e+00  0.00000000e+00  0.00000000e+00  3.50706738e-06]","[[-3.93169454e-05  2.10440938e-03]
 [-5.91060678e-05 -8.62884050e-04]]",[],0.0,0.0
1787564017.1599588,2.3453417589488272,1.2418985793550876,2.317400731809361,"[ 3.44292189e-06 -3.37802382e-07  0.00000000e+00  0.00000000e+00
  0.00000000e+00 -3.05886173e-07 -3.37802382e-07  3.02412193e-06
  0.00000000e+00  0.00000000e+00  0.00000000e+00 -7.91400020e-08
  0.00000000e+00  0.00000000e+00  0.00000000e+00  0.00000000e+00
  0.00000000e+00  0.00000000e+00  0.00000000e+00  0.00000000e+00
  0.00000000e+00  0.00000000e+00  0.00000000e+00  0.00000000e+00
  0.00000000e+00  0.00000000e+00  0.00000000e+00  0.00000000e+00
  0.00000000e+00  0.00000000e+00 -3.05886173e-07 -7.91400020e-08
  0.00000000e+00  0.00000000e+00  0.00000000e+00  3.50706738e-06]","[[-3.93169454e-05  2.10440938e-03]
 [-5.91060678e-05 -8.62884050e-04]]",[],0.0,0.0
1787564017.2101955,2.3446610125633014,1.240277634679089,2.3247725764684004,"[ 3.32346085e-06 -3.76427485e-07  0.00000000e+00  0.00000000e+00
  0.00000000e+00 -2.81075420e-07 -3.76427485e-07  2.94133140e-06
  0.00000000e+00  0.00000000e+00  0.00000000e+00 -6.75893783e-08
  0.00000000e+00  0.00000000e+00  0.00000000e+00  0.00000000e+00
  0.00000000e+00  0.00000000e+00  0.00000000e+00  0.00000000e+00
  0.00000000e+00  0.00000000e+00  0.00000000e+00  0.00000000e+00
  0.00000000e+00  0.00000000e+00  0.00000000e+00  0.00000000e+00
  0.00000000e+00  0.00000000e+00 -2.81075420e-07 -6.75893783e-08
  0.00000000e+00  0.00000000e+00  0.00000000e+00  3.54329212e-06]","[[-3.68481937e-05  2.02152701e-03]
 [-5.68707032e-05 -8.74404747e-04]]",[],0.0,0.0
1787564017.2614772,2.3446610125633014,1.240277634679089,2.3247725764684004,"[ 3.32346085e-06 -3.76427485e-07  0.00000000e+00  0.00000000e+00
  0.00000000e+00 -2.81075420e-07 -3.76427485e-07  2.94133140e-06
  0.00000000e+00  0.00000000e+00  0.00000000e+00 -6.75893783e-08
  0.00000000e+00  0.00000000e+00  0.00000000e+00  0.00000000e+00
  0.00000000e+00  0.00000000e+00  0.00000000e+00  0.00000000e+00
  0.00000000e+00  0.00000000e+00  0.00000000e+00  0.00000000e+00
  0.00000000e+00  0.00000000e+00  0.00000000e+00  0.00000000e+00
  0.00000000e+00  0.00000000e+00 -2.81075420e-07 -6.75893783e-08
  0.00000000e+00  0.00000000e+00  0.00000000e+00  3.54329212e-06]","[[-3.68481937e-05  2.02152701e-03]
 [-5.68707032e-05 -8.74404747e-04]]",[],0.0,0.0
1787564017.3105838,2.3446610125633014,1.240277634679089,2.3247725764684004,"[ 3.32346085e-06 -3.76427485e-07  0.00000000e+00  0.00000000e+00
  0.00000000e+00 -2.81075420e-07 -3.76427485e-07  2.94133140e-06
  0.00000000e+00  0.00000000e+00  0.00000000e+00 -6.75893783e-08
  0.00000000e+00  0.00000000e+00  0.00000000e+00  0.00000000e+00
  0.00000000e+00  0.00000000e+00  0.00000000e+00  0.00000000e+00
  0.00000000e+00  0.00000000e+00  0.00000000e+00  0.00000000e+00
  0.00000000e+00  0.00000000e+00  0.00000000e+00  0.00000000e+00
  0.00000000e+00  0.00000000e+00 -2.81075420e-07 -6.75893783e-08
  0.00000000e+00  0.00000000e+00  0.00000000e+00  3.54329212e-06]","[[-3.68481937e-05  2.02152701e-03]
 [-5.68707032e-05 -8.74404747e-04]]",[],0.0,0.0
1787564017.3612165,2.3446610125633014,1.240277634679089,2.3247725764684004,"[ 3.32346085e-06 -3.76427485e-07  0.00000000e+00  0.00000000e+00
  0.00000000e+00 -2.81075420e-07 -3.76427485e-07  2.94133140e-06
  0.00000000e+00  0.00000000e+00  0.00000000e+00 -6.75893783e-08
  0.00000000e+00  0.00000000e+00  0.00000000e+00  0.00000000e+00
  0.00000000e+00  0.00000000e+00  0.00000000e+00  0.00000000e+00
  0.00000000e+00  0.00000000e+00  0.00000000e+00  0.00000000e+00
  0.00000000e+00  0.00000000e+00  0.00000000e+00  0.00000000e+00
  0.00000000e+00  0.00000000e+00 -2.81075420e-07 -6.75893783e-08
  0.00000000e+00  0.00000000e+00  0.00000000e+00  3.54329212e-06]","[[-3.68481937e-05  2.02152701e-03]
 [-5.68707032e-05 -8.74404747e-04]]",[],0.0,0.0
1787564017.4107027,2.3446610125633014,1.240277634679089,2.3247725764684004,"[ 3.32346085e-06 -3.76427485e-07  0.00000000e+00  0.00000000e+00
  0.00000000e+00 -2.81075420e-07 -3.76427485e-07  2.94133140e-06
  0.00000000e+00  0.00000000e+00  0.00000000e+00 -6.75893783e-08
  0.00000000e+00  0.00000000e+00  0.00000000e+00  0.00000000e+00
  0.00000000e+00  0.00000000e+00  0.00000000e+00  0.00000000e+00
  0.00000000e+00  0.00000000e+00  0.00000000e+00  0.00000000e+00
  0.00000000e+00  0.00000000e+00  0.00000000e+00  0.00000000e+00
  0.00000000e+00  0.00000000e+00 -2.81075420e-07 -6.75893783e-08
  0.00000000e+00  0.00000000e+00  0.00000000e+00  3.54329212e-06]","[[-3.68481937e-05  2.02152701e-03]
 [-5.68707032e-05 -8.74404747e-04]]",[],0.0,0.0
1787564017.4596167,2.3446610125633014,1.240277634679089,2.3247725764684004,"[ 3.32346085e-06 -3.76427485e-07  0.00000000e+00  0.00000000e+00
  0.00000000e+00 -2.81075420e-07 -3.76427485e-07  2.94133140e-06
  0.00000000e+00  0.00000000e+00  0.00000000e+00 -6.75893783e-08
  0.00000000e+00  0.00000000e+00  0.00000000e+00  0.00000000e+00
  0.00000000e+00  0.00000000e+00  0.00000000e+00  0.00000000e+00
  0.00000000e+00  0.00000000e+00  0.00000000e+00  0.00000000e+00
  0.00000000e+00  0.00000000e+00  0.00000000e+00  0.00000000e+00
  0.00000000e+00  0.00000000e+00 -2.81075420e-07 -6.75893783e-08
  0.00000000e+00  0.00000000e+00  0.00000000e+00  3.54329212e-06]","[[-3.68481937e-05  2.02152701e-03]
 [-5.68707032e-05 -8.74404747e-04]]",[],0.0,0.0
1787564017.5097208,2.3446610125633014,1.240277634679089,2.3247725764684004,"[ 3.32346085e-06 -3.76427485e-07  0.00000000e+00  0.00000000e+00
  0.00000000e+00 -2.81075420e-07 -3.76427485e-07  2.94133140e-06
  0.00000000e+00  0.00000000e+00  0.00000000e+00 -6.75893783e-08
  0.00000000e+00  0.00000000e+00  0.00000000e+00  0.00000000e+00
  0.00000000e+00  0.00000000e+00  0.00000000e+00  0.00000000e+00
  0.00000000e+00  0.00000000e+00  0.00000000e+00  0.00000000e+00
  0.00000000e+00  0.00000000e+00  0.00000000e+00  0.00000000e+00
  0.00000000e+00  0.00000000e+00 -2.81075420e-07 -6.75893783e-08
  0.00000000e+00  0.00000000e+00  0.00000000e+00  3.54329212e-06]","[[-3.68481937e-05  2.02152701e-03]
 [-5.68707032e-05 -8.74404747e-04]]",[],0.0,0.0
1787564017.5600767,2.3446610125633014,1.240277634679089,2.3247725764684004,"[ 3.32346085e-06 -3.76427485e-07  0.00000000e+00  0.00000000e+00
  0.00000000e+00 -2.81075420e-07 -3.76427485e-07  2.94133140e-06
  0.00000000e+00  0.00000000e+00  0.00000000e+00 -6.75893783e-08
  0.00000000e+00  0.00000000e+00  0.00000000e+00  0.00000000e+00
  0.00000000e+00  0.00000000e+00  0.00000000e+00  0.00000000e+00
  0.00000000e+00  0.00000000e+00  0.00000000e+00  0.00000000e+00
  0.00000000e+00  0.00000000e+00  0.00000000e+00  0.00000000e+00
  0.00000000e+00  0.00000000e+00 -2.81075420e-07 -6.75893783e-08
  0.00000000e+00  0.00000000e+00  0.00000000e+00  3.54329212e-06]","[[-3.68481937e-05  2.02152701e-03]
 [-5.68707032e-05 -8.74404747e-04]]",[],0.0,0.0
1787564017.6241949,2.3446610125633014,1.240277634679089,2.3247725764684004,"[ 3.32346085e-06 -3.76427485e-07  0.00000000e+00  0.00000000e+00
  0.00000000e+00 -2.81075420e-07 -3.76427485e-07  2.94133140e-06
  0.00000000e+00  0.00000000e+00  0.00000000e+00 -6.75893783e-08
  0.00000000e+00  0.00000000e+00  0.00000000e+00  0.00000000e+00
  0.00000000e+00  0.00000000e+00  0.00000000e+00  0.00000000e+00
  0.00000000e+00  0.00000000e+00  0.00000000e+00  0.00000000e+00
  0.00000000e+00  0.00000000e+00  0.00000000e+00  0.00000000e+00
  0.00000000e+00  0.00000000e+00 -2.81075420e-07 -6.75893783e-08
  0.00000000e+00  0.00000000e+00  0.00000000e+00  3.54329212e-06]","[[-3.68481937e-05  2.02152701e-03]
 [-5.68707032e-05 -8.74404747e-04]]",[],0.0,0.0
1787564017.6612074,2.3446610125633014,1.240277634679089,2.3247725764684004,"[ 3.32346085e-06 -3.76427485e-07  0.00000000e+00  0.00000000e+00
  0.00000000e+00 -2.81075420e-07 -3.76427485e-07  2.94133140e-06
  0.00000000e+00  0.00000000e+00  0.00000000e+00 -6.75893783e-08
  0.00000000e+00  0.00000000e+00  0.00000000e+00  0.00000000e+00
  0.00000000e+00  0.00000000e+00  0.00000000e+00  0.00000000e+00
  0.00000000e+00  0.00000000e+00  0.00000000e+00  0.00000000e+00
  0.00000000e+00  0.00000000e+00  0.00000000e+00  0.00000000e+00
  0.00000000e+00  0.00000000e+00 -2.81075420e-07 -6.75893783e-08
  0.00000000e+00  0.00000000e+00  0.00000000e+00  3.54329212e-06]","[[-3.68481937e-05  2.02152701e-03]
 [-5.68707032e-05 -8.74404747e-04]]",[],0.0,0.0
1787564017.7102098,2.3446610125633014,1.240277634679089,2.3247725764684004,"[ 3.32346085e-06 -3.76427485e-07  0.00000000e+00  0.00000000e+00
  0.00000000e+00 -2.81075420e-07 -3.76427485e-07  2.94133140e-06
  0.00000000e+00  0.00000000e+00  0.00000000e+00 -6.75893783e-08
  0.00000000e+00  0.00000000e+00  0.00000000e+00  0.00000000e+00
  0.00000000e+00  0.00000000e+00  0.00000000e+00  0.00000000e+00
  0.00000000e+00  0.00000000e+00  0.00000000e+00  0.00000000e+00
  0.00000000e+00  0.00000000e+00  0.00000000e+00  0.00000000e+00
  0.00000000e+00  0.00000000e+00 -2.81075420e-07 -6.75893783e-08
  0.00000000e+00  0.00000000e+00  0.00000000e+00  3.54329212e-06]","[[-3.68481937e-05  2.02152701e-03]
 [-5.68707032e-05 -8.74404747e-04]]",[],0.0,0.0
1787564017.7608395,2.3446610125633014,1.240277634679089,2.3247725764684004,"[ 3.32346085e-06 -3.76427485e-07  0.00000000e+00  0.00000000e+00
  0.00000000e+00 -2.81075420e-07 -3.76427485e-07  2.94133140e-06
  0.00000000e+00  0.00000000e+00  0.00000000e+00 -6.75893783e-08
  0.00000000e+00  0.00000000e+00  0.00000000e+00  0.00000000e+00
  0.00000000e+00  0.00000000e+00  0.00000000e+00  0.00000000e+00
  0.00000000e+00  0.00000000e+00  0.00000000e+00  0.00000000e+00
  0.00000000e+00  0.00000000e+00  0.00000000e+00  0.00000000e+00
  0.00000000e+00  0.00000000e+00 -2.81075420e-07 -6.75893783e-08
  0.00000000e+00  0.00000000e+00  0.00000000e+00  3.54329212e-06]","[[-3.68481937e-05  2.02152701e-03]
 [-5.68707032e-05 -8.74404747e-04]]",[],0.0,0.0
1787564017.809426,2.3446610125633014,1.240277634679089,2.3247725764684004,"[ 3.32346085e-06 -3.76427485e-07  0.00000000e+00  0.00000000e+00
  0.00000000e+00 -2.81075420e-07 -3.76427485e-07  2.94133140e-06
  0.00000000e+00  0.00000000e+00  0.00000000e+00 -6.75893783e-08
  0.00000000e+00  0.00000000e+00  0.00000000e+00  0.00000000e+00
  0.00000000e+00  0.00000000e+00  0.00000000e+00  0.00000000e+00
  0.00000000e+00  0.00000000e+00  0.00000000e+00  0.00000000e+00
  0.00000000e+00  0.00000000e+00  0.00000000e+00  0.00000000e+00
  0.00000000e+00  0.00000000e+00 -2.81075420e-07 -6.75893783e-08
  0.00000000e+00  0.00000000e+00  0.00000000e+00  3.54329212e-06]","[[-3.68481937e-05  2.02152701e-03]
 [-5.68707032e-05 -8.74404747e-04]]",[],0.0,0.0
1787564017.8669178,2.3446610125633014,1.240277634679089,2.3247725764684004,"[ 3.32346085e-06 -3.76427485e-07  0.00000000e+00  0.00000000e+00
  0.00000000e+00 -2.81075420e-07 -3.76427485e-07  2.94133140e-06
  0.00000000e+00  0.00000000e+00  0.00000000e+00 -6.75893783e-08
  0.00000000e+00  0.00000000e+00  0.00000000e+00  0.00000000e+00
  0.00000000e+00  0.00000000e+00  0.00000000e+00  0.00000000e+00
  0.00000000e+00  0.00000000e+00  0.00000000e+00  0.00000000e+00
  0.00000000e+00  0.00000000e+00  0.00000000e+00  0.00000000e+00
  0.00000000e+00  0.00000000e+00 -2.81075420e-07 -6.75893783e-08
  0.00000000e+00  0.00000000e+00  0.00000000e+00  3.54329212e-06]","[[-3.68481937e-05  2.02152701e-03]
 [-5.68707032e-05 -8.74404747e-04]]",[],0.0,0.0
1787564017.909654,2.3446610125633014,1.240277634679089,2.3247725764684004,"[ 3.32346085e-06 -3.76427485e-07  0.00000000e+00  0.00000000e+00
  0.00000000e+00 -2.81075420e-07 -3.76427485e-07  2.94133140e-06
  0.00000000e+00  0.00000000e+00  0.00000000e+00 -6.75893783e-08
  0.00000000e+00  0.00000000e+00  0.00000000e+00  0.00000000e+00
  0.00000000e+00  0.00000000e+00  0.00000000e+00  0.00000000e+00
  0.00000000e+00  0.00000000e+00  0.00000000e+00  0.00000000e+00
  0.00000000e+00  0.00000000e+00  0.00000000e+00  0.00000000e+00
  0.00000000e+00  0.00000000e+00 -2.81075420e-07 -6.75893783e-08
  0.00000000e+00  0.00000000e+00  0.00000000e+00  3.54329212e-06]","[[-3.68481937e-05  2.02152701e-03]
 [-5.68707032e-05 -8.74404747e-04]]",[],0.0,0.0
1787564017.9636028,2.343975551328893,1.2402229458759206,2.3338670731641464,"[ 3.22857841e-06 -4.24422750e-07  0.00000000e+00  0.00000000e+00
  0.00000000e+00 -3.19770844e-07 -4.24422750e-07  2.87262238e-06
  0.00000000e+00  0.00000000e+00  0.00000000e+00 -7.42354649e-08
  0.00000000e+00  0.00000000e+00  0.00000000e+00  0.00000000e+00
  0.00000000e+00  0.00000000e+00  0.00000000e+00  0.00000000e+00
  0.00000000e+00  0.00000000e+00  0.00000000e+00  0.00000000e+00
  0.00000000e+00  0.00000000e+00  0.00000000e+00  0.00000000e+00
  0.00000000e+00  0.00000000e+00 -3.19770844e-07 -7.42354649e-08
  0.00000000e+00  0.00000000e+00  0.00000000e+00  3.58756317e-06]","[[-3.45522136e-05  2.05673805e-03]
 [-5.47816053e-05 -8.64533236e-04]]",[],0.0,0.0
1787564018.0182192,2.343975551328893,1.2402229458759206,2.3338670731641464,"[ 3.22857841e-06 -4.24422750e-07  0.00000000e+00  0.00000000e+00
  0.00000000e+00 -3.19770844e-07 -4.24422750e-07  2.87262238e-06
  0.00000000e+00  0.00000000e+00  0.00000000e+00 -7.42354649e-08
  0.00000000e+00  0.00000000e+00  0.00000000e+00  0.00000000e+00
  0.00000000e+00  0.00000000e+00  0.00000000e+00  0.00000000e+00
  0.00000000e+00  0.00000000e+00  0.00000000e+00  0.00000000e+00
  0.00000000e+00  0.00000000e+00  0.00000000e+00  0.00000000e+00
  0.00000000e+00  0.00000000e+00 -3.19770844e-07 -7.42354649e-08
  0.00000000e+00  0.00000000e+00  0.00000000e+00  3.58756317e-06]","[[-3.45522136e-05  2.05673805e-03]
 [-5.47816053e-05 -8.64533236e-04]]",[],0.0,0.0
1787564018.0719624,2.343975551328893,1.2402229458759206,2.3338670731641464,"[ 3.22857841e-06 -4.24422750e-07  0.00000000e+00  0.00000000e+00
  0.00000000e+00 -3.19770844e-07 -4.24422750e-07  2.87262238e-06
  0.00000000e+00  0.00000000e+00  0.00000000e+00 -7.42354649e-08
  0.00000000e+00  0.00000000e+00  0.00000000e+00  0.00000000e+00
  0.00000000e+00  0.00000000e+00  0.00000000e+00  0.00000000e+00
  0.00000000e+00  0.00000000e+00  0.00000000e+00  0.00000000e+00
  0.00000000e+00  0.00000000e+00  0.00000000e+00  0.00000000e+00
  0.00000000e+00  0.00000000e+00 -3.19770844e-07 -7.42354649e-08
  0.00000000e+00  0.00000000e+00  0.00000000e+00  3.58756317e-06]","[[-3.45522136e-05  2.05673805e-03]
 [-5.47816053e-05 -8.64533236e-04]]",[],0.0,0.0
1787564018.1235363,2.343975551328893,1.2402229458759206,2.3338670731641464,"[ 3.22857841e-06 -4.24422750e-07  0.00000000e+00  0.00000000e+00
  0.00000000e+00 -3.19770844e-07 -4.24422750e-07  2.87262238e-06
  0.00000000e+00  0.00000000e+00  0.00000000e+00 -7.42354649e-08
  0.00000000e+00  0.00000000e+00  0.00000000e+00  0.00000000e+00
  0.00000000e+00  0.00000000e+00  0.00000000e+00  0.00000000e+00
  0.00000000e+00  0.00000000e+00  0.00000000e+00  0.00000000e+00
  0.00000000e+00  0.00000000e+00  0.00000000e+00  0.00000000e+00
  0.00000000e+00  0.00000000e+00 -3.19770844e-07 -7.42354649e-08
  0.00000000e+00  0.00000000e+00  0.00000000e+00  3.58756317e-06]","[[-3.45522136e-05  2.05673805e-03]
 [-5.47816053e-05 -8.64533236e-04]]",[],0.0,0.0
1787564018.1683605,2.343975551328893,1.2402229458759206,2.3338670731641464,"[ 3.22857841e-06 -4.24422750e-07  0.00000000e+00  0.00000000e+00
  0.00000000e+00 -3.19770844e-07 -4.24422750e-07  2.87262238e-06
  0.00000000e+00  0.00000000e+00  0.00000000e+00 -7.42354649e-08
  0.00000000e+00  0.00000000e+00  0.00000000e+00  0.00000000e+00
  0.00000000e+00  0.00000000e+00  0.00000000e+00  0.00000000e+00
  0.00000000e+00  0.00000000e+00  0.00000000e+00  0.00000000e+00
  0.00000000e+00  0.00000000e+00  0.00000000e+00  0.00000000e+00
  0.00000000e+00  0.00000000e+00 -3.19770844e-07 -7.42354649e-08
  0.00000000e+00  0.00000000e+00  0.00000000e+00  3.58756317e-06]","[[-3.45522136e-05  2.05673805e-03]
 [-5.47816053e-05 -8.64533236e-04]]",[],0.0,0.0
1787564018.2095575,2.343975551328893,1.2402229458759206,2.3338670731641464,"[ 3.22857841e-06 -4.24422750e-07  0.00000000e+00  0.00000000e+00
  0.00000000e+00 -3.19770844e-07 -4.24422750e-07  2.87262238e-06
  0.00000000e+00  0.00000000e+00  0.00000000e+00 -7.42354649e-08
  0.00000000e+00  0.00000000e+00  0.00000000e+00  0.00000000e+00
  0.00000000e+00  0.00000000e+00  0.00000000e+00  0.00000000e+00
  0.00000000e+00  0.00000000e+00  0.00000000e+00  0.00000000e+00
  0.00000000e+00  0.00000000e+00  0.00000000e+00  0.00000000e+00
  0.00000000e+00  0.00000000e+00 -3.19770844e-07 -7.42354649e-08
  0.00000000e+00  0.00000000e+00  0.00000000e+00  3.58756317e-06]","[[-3.45522136e-05  2.05673805e-03]
 [-5.47816053e-05 -8.64533236e-04]]",[],0.0,0.0
1787564018.2605934,2.343975551328893,1.2402229458759206,2.3338670731641464,"[ 3.22857841e-06 -4.24422750e-07  0.00000000e+00  0.00000000e+00
  0.00000000e+00 -3.19770844e-07 -4.24422750e-07  2.87262238e-06
  0.00000000e+00  0.00000000e+00  0.00000000e+00 -7.42354649e-08
  0.00000000e+00  0.00000000e+00  0.00000000e+00  0.00000000e+00
  0.00000000e+00  0.00000000e+00  0.00000000e+00  0.00000000e+00
  0.00000000e+00  0.00000000e+00  0.00000000e+00  0.00000000e+00
  0.00000000e+00  0.00000000e+00  0.00000000e+00  0.00000000e+00
  0.00000000e+00  0.00000000e+00 -3.19770844e-07 -7.42354649e-08
  0.00000000e+00  0.00000000e+00  0.00000000e+00  3.58756317e-06]","[[-3.45522136e-05  2.05673805e-03]
 [-5.47816053e-05 -8.64533236e-04]]",[],0.0,0.0
1787564018.3097503,2.343975551328893,1.2402229458759206,2.3338670731641464,"[ 3.22857841e-06 -4.24422750e-07  0.00000000e+00  0.00000000e+00
  0.00000000e+00 -3.19770844e-07 -4.24422750e-07  2.87262238e-06
  0.00000000e+00  0.00000000e+00  0.00000000e+00 -7.42354649e-08
  0.00000000e+00  0.00000000e+00  0.00000000e+00  0.00000000e+00
  0.00000000e+00  0.00000000e+00  0.00000000e+00  0.00000000e+00
  0.00000000e+00  0.00000000e+00  0.00000000e+00  0.00000000e+00
  0.00000000e+00  0.00000000e+00  0.00000000e+00  0.00000000e+00
  0.00000000e+00  0.00000000e+00 -3.19770844e-07 -7.42354649e-08
  0.00000000e+00  0.00000000e+00  0.00000000e+00  3.58756317e-06]","[[-3.45522136e-05  2.05673805e-03]
 [-5.47816053e-05 -8.64533236e-04]]",[],0.0,0.0
1787564018.360872,2.343975551328893,1.2402229458759206,2.3338670731641464,"[ 3.22857841e-06 -4.24422750e-07  0.00000000e+00  0.00000000e+00
  0.00000000e+00 -3.19770844e-07 -4.24422750e-07  2.87262238e-06
  0.00000000e+00  0.00000000e+00  0.00000000e+00 -7.42354649e-08
  0.00000000e+00  0.00000000e+00  0.00000000e+00  0.00000000e+00
  0.00000000e+00  0.00000000e+00  0.00000000e+00  0.00000000e+00
  0.00000000e+00  0.00000000e+00  0.00000000e+00  0.00000000e+00
  0.00000000e+00  0.00000000e+00  0.00000000e+00  0.00000000e+00
  0.00000000e+00  0.00000000e+00 -3.19770844e-07 -7.42354649e-08
  0.00000000e+00  0.00000000e+00  0.00000000e+00  3.58756317e-06]","[[-3.45522136e-05  2.05673805e-03]
 [-5.47816053e-05 -8.64533236e-04]]",[],0.0,0.0
1787564018.4108098,2.343975551328893,1.2402229458759206,2.3338670731641464,"[ 3.22857841e-06 -4.24422750e-07  0.00000000e+00  0.00000000e+00
  0.00000000e+00 -3.19770844e-07 -4.24422750e-07  2.87262238e-06
  0.00000000e+00  0.00000000e+00  0.00000000e+00 -7.42354649e-08
  0.00000000e+00  0.00000000e+00  0.00000000e+00  0.00000000e+00
  0.00000000e+00  0.00000000e+00  0.00000000e+00  0.00000000e+00
  0.00000000e+00  0.00000000e+00  0.00000000e+00  0.00000000e+00
  0.00000000e+00  0.00000000e+00  0.00000000e+00  0.00000000e+00
  0.00000000e+00  0.00000000e+00 -3.19770844e-07 -7.42354649e-08
  0.00000000e+00  0.00000000e+00  0.00000000e+00  3.58756317e-06]","[[-3.45522136e-05  2.05673805e-03]
 [-5.47816053e-05 -8.64533236e-04]]",[],0.0,0.0
1787564018.4620275,2.343975551328893,1.2402229458759206,2.3338670731641464,"[ 3.22857841e-06 -4.24422750e-07  0.00000000e+00  0.00000000e+00
  0.00000000e+00 -3.19770844e-07 -4.24422750e-07  2.87262238e-06
  0.00000000e+00  0.00000000e+00  0.00000000e+00 -7.42354649e-08
  0.00000000e+00  0.00000000e+00  0.00000000e+00  0.00000000e+00
  0.00000000e+00  0.00000000e+00  0.00000000e+00  0.00000000e+00
  0.00000000e+00  0.00000000e+00  0.00000000e+00  0.00000000e+00
  0.00000000e+00  0.00000000e+00  0.00000000e+00  0.00000000e+00
  0.00000000e+00  0.00000000e+00 -3.19770844e-07 -7.42354649e-08
  0.00000000e+00  0.00000000e+00  0.00000000e+00  3.58756317e-06]","[[-3.45522136e-05  2.05673805e-03]
 [-5.47816053e-05 -8.64533236e-04]]",[],0.0,0.0
1787564018.509971,2.343975551328893,1.2402229458759206,2.3338670731641464,"[ 3.22857841e-06 -4.24422750e-07  0.00000000e+00  0.00000000e+00
  0.00000000e+00 -3.19770844e-07 -4.24422750e-07  2.87262238e-06
  0.00000000e+00  0.00000000e+00  0.00000000e+00 -7.42354649e-08
  0.00000000e+00  0.00000000e+00  0.00000000e+00  0.00000000e+00
  0.00000000e+00  0.00000000e+00  0.00000000e+00  0.00000000e+00
