time,x,y,yaw,cov_prop,K_gain,innovation,v_ekf,omega_ekf
1786950028.6822124,0.0,0.0,0.0,"[9.99970040e-03 0.00000000e+00 0.00000000e+00 0.00000000e+00
 0.00000000e+00 4.05142805e-10 0.00000000e+00 9.99970001e-03
 0.00000000e+00 0.00000000e+00 0.00000000e+00 0.00000000e+00
 0.00000000e+00 0.00000000e+00 0.00000000e+00 0.00000000e+00
 0.00000000e+00 0.00000000e+00 0.00000000e+00 0.00000000e+00
 0.00000000e+00 0.00000000e+00 0.00000000e+00 0.00000000e+00
 0.00000000e+00 0.00000000e+00 0.00000000e+00 0.00000000e+00
 0.00000000e+00 0.00000000e+00 4.05142805e-10 0.00000000e+00
 0.00000000e+00 0.00000000e+00 0.00000000e+00 9.99970824e-03]","[[9.99970040e-06 0.00000000e+00 4.05142805e-13]
 [0.00000000e+00 9.99970001e-06 0.00000000e+00]
 [4.05142805e-13 0.00000000e+00 9.99970824e-06]]",[0. 0. 0.],0.0,0.0
1786950028.733115,0.0,0.0,0.0,"[ 9.99950063e-03 -2.96226188e-25  0.00000000e+00  0.00000000e+00
  0.00000000e+00  6.27407216e-10 -2.96226188e-25  9.99950002e-03
  0.00000000e+00  0.00000000e+00  0.00000000e+00 -6.23779552e-18
  0.00000000e+00  0.00000000e+00  0.00000000e+00  0.00000000e+00
  0.00000000e+00  0.00000000e+00  0.00000000e+00  0.00000000e+00
  0.00000000e+00  0.00000000e+00  0.00000000e+00  0.00000000e+00
  0.00000000e+00  0.00000000e+00  0.00000000e+00  0.00000000e+00
  0.00000000e+00  0.00000000e+00  6.27407216e-10 -6.23779552e-18
  0.00000000e+00  0.00000000e+00  0.00000000e+00  9.99951277e-03]","[[ 9.99950063e-06 -2.96226188e-28  6.27407216e-13]
 [-2.96226188e-28  9.99950002e-06 -6.23779552e-21]
 [ 6.27407216e-13 -6.23779552e-21  9.99951277e-06]]",[0. 0. 0.],-3.1369718804951165e-14,3.463653903693567e-21
1786950028.7879117,0.0,0.0,0.0,"[ 9.99920121e-03 -1.76813009e-24  0.00000000e+00  0.00000000e+00
  0.00000000e+00  1.17625431e-09 -1.76813009e-24  9.99920006e-03
  0.00000000e+00  0.00000000e+00  0.00000000e+00 -2.49543485e-17
  0.00000000e+00  0.00000000e+00  0.00000000e+00  0.00000000e+00
  0.00000000e+00  0.00000000e+00  0.00000000e+00  0.00000000e+00
  0.00000000e+00  0.00000000e+00  0.00000000e+00  0.00000000e+00
  0.00000000e+00  0.00000000e+00  0.00000000e+00  0.00000000e+00
  0.00000000e+00  0.00000000e+00  1.17625431e-09 -2.49543485e-17
  0.00000000e+00  0.00000000e+00  0.00000000e+00  9.99922395e-03]","[[ 9.99920121e-06 -1.76813009e-27  1.17625431e-12]
 [-1.76813009e-27  9.99920006e-06 -2.49543485e-20]
 [ 1.17625431e-12 -2.49543485e-20  9.99922395e-06]]",[0. 0. 0.],-3.137804853922544e-14,-2.4547958242119267e-21
1786950028.8305874,-1.8959267955467593e-15,-2.7963089904077002e-42,0.0,"[ 9.99890172e-03  1.55392668e-24  0.00000000e+00  0.00000000e+00
  0.00000000e+00  1.64644915e-09  1.55392668e-24  9.99890012e-03
  0.00000000e+00  0.00000000e+00  0.00000000e+00 -4.34768410e-18
  0.00000000e+00  0.00000000e+00  0.00000000e+00  0.00000000e+00
  0.00000000e+00  0.00000000e+00  0.00000000e+00  0.00000000e+00
  0.00000000e+00  0.00000000e+00  0.00000000e+00  0.00000000e+00
  0.00000000e+00  0.00000000e+00  0.00000000e+00  0.00000000e+00
  0.00000000e+00  0.00000000e+00  1.64644915e-09 -4.34768410e-18
  0.00000000e+00  0.00000000e+00  0.00000000e+00  9.99893356e-03]","[[ 9.99900154e-06 -3.32284958e-27  1.47760052e-12]
 [-3.32284958e-27  9.99900010e-06 -3.73494322e-20]
 [ 1.47760052e-12 -3.73494322e-20  9.99903011e-06]]",[1.23944366e-15 1.62405850e-42 0.00000000e+00],-3.1386644404090885e-14,4.873511442259974e-20
1786950028.8832886,-2.5929742453110875e-13,-2.3142228087272623e-26,3.601563491884008e-13,"[9.99870215e-03 4.94720498e-23 0.00000000e+00 0.00000000e+00
 0.00000000e+00 2.04031046e-09 4.94720498e-23 9.99870017e-03
 0.00000000e+00 0.00000000e+00 0.00000000e+00 6.69138584e-17
 0.00000000e+00 0.00000000e+00 0.00000000e+00 0.00000000e+00
 0.00000000e+00 0.00000000e+00 0.00000000e+00 0.00000000e+00
 0.00000000e+00 0.00000000e+00 0.00000000e+00 0.00000000e+00
 0.00000000e+00 0.00000000e+00 0.00000000e+00 0.00000000e+00
 0.00000000e+00 0.00000000e+00 2.04031046e-09 6.69138584e-17
 0.00000000e+00 0.00000000e+00 0.00000000e+00 9.99874161e-03]","[[9.99870215e-06 4.94720498e-26 2.04031046e-12]
 [4.94720498e-26 9.99870017e-06 6.69138584e-20]
 [2.04031046e-12 6.69138584e-20 9.99874161e-06]]",[ 2.59300017e-13  2.31424354e-26 -3.60156349e-13],1.5780121429525442e-13,-2.0883003618872837e-13
1786950029.857094,-3.4216633808839466e-13,-5.298873859180322e-26,4.760636329592671e-13,"[9.99860226e-03 8.27014711e-23 0.00000000e+00 0.00000000e+00
 0.00000000e+00 2.12184590e-09 8.27014711e-23 9.99860020e-03
 0.00000000e+00 0.00000000e+00 0.00000000e+00 8.98643318e-17
 0.00000000e+00 0.00000000e+00 0.00000000e+00 0.00000000e+00
 0.00000000e+00 0.00000000e+00 0.00000000e+00 0.00000000e+00
 0.00000000e+00 0.00000000e+00 0.00000000e+00 0.00000000e+00
 0.00000000e+00 0.00000000e+00 0.00000000e+00 0.00000000e+00
 0.00000000e+00 0.00000000e+00 2.12184590e-09 8.98643318e-17
 0.00000000e+00 0.00000000e+00 0.00000000e+00 9.99864329e-03]","[[9.99860226e-06 8.27014711e-26 2.12184590e-12]
 [8.27014711e-26 9.99860020e-06 8.98643318e-20]
 [2.12184590e-12 8.98643318e-20 9.99864329e-06]]",[ 3.42169759e-13  5.29892256e-26 -4.76063633e-13],1.578495246588785e-13,-2.0889782358893575e-13
1786950029.939179,-3.4216633808839466e-13,-5.298873859180322e-26,4.760636329592671e-13,"[9.99860226e-03 8.27014711e-23 0.00000000e+00 0.00000000e+00
 0.00000000e+00 2.12184590e-09 8.27014711e-23 9.99860020e-03
 0.00000000e+00 0.00000000e+00 0.00000000e+00 8.98643318e-17
 0.00000000e+00 0.00000000e+00 0.00000000e+00 0.00000000e+00
 0.00000000e+00 0.00000000e+00 0.00000000e+00 0.00000000e+00
 0.00000000e+00 0.00000000e+00 0.00000000e+00 0.00000000e+00
 0.00000000e+00 0.00000000e+00 0.00000000e+00 0.00000000e+00
 0.00000000e+00 0.00000000e+00 2.12184590e-09 8.98643318e-17
 0.00000000e+00 0.00000000e+00 0.00000000e+00 9.99864329e-03]","[[9.99860226e-06 8.27014711e-26 2.12184590e-12]
 [8.27014711e-26 9.99860020e-06 8.98643318e-20]
 [2.12184590e-12 8.98643318e-20 9.99864329e-06]]",[ 3.42169759e-13  5.29892256e-26 -4.76063633e-13],1.578495246588785e-13,-2.0889782358893575e-13
1786950029.985725,-3.4216633808839466e-13,-5.298873859180322e-26,4.760636329592671e-13,"[9.99860226e-03 8.27014711e-23 0.00000000e+00 0.00000000e+00
 0.00000000e+00 2.12184590e-09 8.27014711e-23 9.99860020e-03
 0.00000000e+00 0.00000000e+00 0.00000000e+00 8.98643318e-17
 0.00000000e+00 0.00000000e+00 0.00000000e+00 0.00000000e+00
 0.00000000e+00 0.00000000e+00 0.00000000e+00 0.00000000e+00
 0.00000000e+00 0.00000000e+00 0.00000000e+00 0.00000000e+00
 0.00000000e+00 0.00000000e+00 0.00000000e+00 0.00000000e+00
 0.00000000e+00 0.00000000e+00 2.12184590e-09 8.98643318e-17
 0.00000000e+00 0.00000000e+00 0.00000000e+00 9.99864329e-03]","[[9.99860226e-06 8.27014711e-26 2.12184590e-12]
 [8.27014711e-26 9.99860020e-06 8.98643318e-20]
 [2.12184590e-12 8.98643318e-20 9.99864329e-06]]",[ 3.42169759e-13  5.29892256e-26 -4.76063633e-13],1.578495246588785e-13,-2.0889782358893575e-13
1786950030.0359292,-3.4216633808839466e-13,-5.298873859180322e-26,4.760636329592671e-13,"[9.99860226e-03 8.27014711e-23 0.00000000e+00 0.00000000e+00
 0.00000000e+00 2.12184590e-09 8.27014711e-23 9.99860020e-03
 0.00000000e+00 0.00000000e+00 0.00000000e+00 8.98643318e-17
 0.00000000e+00 0.00000000e+00 0.00000000e+00 0.00000000e+00
 0.00000000e+00 0.00000000e+00 0.00000000e+00 0.00000000e+00
 0.00000000e+00 0.00000000e+00 0.00000000e+00 0.00000000e+00
 0.00000000e+00 0.00000000e+00 0.00000000e+00 0.00000000e+00
 0.00000000e+00 0.00000000e+00 2.12184590e-09 8.98643318e-17
 0.00000000e+00 0.00000000e+00 0.00000000e+00 9.99864329e-03]","[[9.99860226e-06 8.27014711e-26 2.12184590e-12]
 [8.27014711e-26 9.99860020e-06 8.98643318e-20]
 [2.12184590e-12 8.98643318e-20 9.99864329e-06]]",[ 3.42169759e-13  5.29892256e-26 -4.76063633e-13],1.578495246588785e-13,-2.0889782358893575e-13
1786950030.0813289,-3.4216633808839466e-13,-5.298873859180322e-26,4.760636329592671e-13,"[9.99860226e-03 8.27014711e-23 0.00000000e+00 0.00000000e+00
 0.00000000e+00 2.12184590e-09 8.27014711e-23 9.99860020e-03
 0.00000000e+00 0.00000000e+00 0.00000000e+00 8.98643318e-17
 0.00000000e+00 0.00000000e+00 0.00000000e+00 0.00000000e+00
 0.00000000e+00 0.00000000e+00 0.00000000e+00 0.00000000e+00
 0.00000000e+00 0.00000000e+00 0.00000000e+00 0.00000000e+00
 0.00000000e+00 0.00000000e+00 0.00000000e+00 0.00000000e+00
 0.00000000e+00 0.00000000e+00 2.12184590e-09 8.98643318e-17
 0.00000000e+00 0.00000000e+00 0.00000000e+00 9.99864329e-03]","[[9.99860226e-06 8.27014711e-26 2.12184590e-12]
 [8.27014711e-26 9.99860020e-06 8.98643318e-20]
 [2.12184590e-12 8.98643318e-20 9.99864329e-06]]",[ 3.42169759e-13  5.29892256e-26 -4.76063633e-13],1.578495246588785e-13,-2.0889782358893575e-13
1786950030.134753,-3.4216633808839466e-13,-5.298873859180322e-26,4.760636329592671e-13,"[9.99860226e-03 8.27014711e-23 0.00000000e+00 0.00000000e+00
 0.00000000e+00 2.12184590e-09 8.27014711e-23 9.99860020e-03
 0.00000000e+00 0.00000000e+00 0.00000000e+00 8.98643318e-17
 0.00000000e+00 0.00000000e+00 0.00000000e+00 0.00000000e+00
 0.00000000e+00 0.00000000e+00 0.00000000e+00 0.00000000e+00
 0.00000000e+00 0.00000000e+00 0.00000000e+00 0.00000000e+00
 0.00000000e+00 0.00000000e+00 0.00000000e+00 0.00000000e+00
 0.00000000e+00 0.00000000e+00 2.12184590e-09 8.98643318e-17
 0.00000000e+00 0.00000000e+00 0.00000000e+00 9.99864329e-03]","[[9.99860226e-06 8.27014711e-26 2.12184590e-12]
 [8.27014711e-26 9.99860020e-06 8.98643318e-20]
 [2.12184590e-12 8.98643318e-20 9.99864329e-06]]",[ 3.42169759e-13  5.29892256e-26 -4.76063633e-13],1.578495246588785e-13,-2.0889782358893575e-13
1786950030.1807625,-3.4216633808839466e-13,-5.298873859180322e-26,4.760636329592671e-13,"[9.99860226e-03 8.27014711e-23 0.00000000e+00 0.00000000e+00
 0.00000000e+00 2.12184590e-09 8.27014711e-23 9.99860020e-03
 0.00000000e+00 0.00000000e+00 0.00000000e+00 8.98643318e-17
 0.00000000e+00 0.00000000e+00 0.00000000e+00 0.00000000e+00
 0.00000000e+00 0.00000000e+00 0.00000000e+00 0.00000000e+00
 0.00000000e+00 0.00000000e+00 0.00000000e+00 0.00000000e+00
 0.00000000e+00 0.00000000e+00 0.00000000e+00 0.00000000e+00
 0.00000000e+00 0.00000000e+00 2.12184590e-09 8.98643318e-17
 0.00000000e+00 0.00000000e+00 0.00000000e+00 9.99864329e-03]","[[9.99860226e-06 8.27014711e-26 2.12184590e-12]
 [8.27014711e-26 9.99860020e-06 8.98643318e-20]
 [2.12184590e-12 8.98643318e-20 9.99864329e-06]]",[ 3.42169759e-13  5.29892256e-26 -4.76063633e-13],1.578495246588785e-13,-2.0889782358893575e-13
1786950030.2325945,-6.6148519124327166e-12,-8.05412884155971e-24,9.251710508806354e-12,"[9.99807796e-03 2.75949469e-19 0.00000000e+00 0.00000000e+00
 0.00000000e+00 3.88441164e-07 2.75949469e-19 9.99770053e-03
 0.00000000e+00 0.00000000e+00 0.00000000e+00 2.17525161e-15
 0.00000000e+00 0.00000000e+00 0.00000000e+00 0.00000000e+00
 0.00000000e+00 0.00000000e+00 0.00000000e+00 0.00000000e+00
 0.00000000e+00 0.00000000e+00 0.00000000e+00 0.00000000e+00
 0.00000000e+00 0.00000000e+00 0.00000000e+00 0.00000000e+00
 0.00000000e+00 0.00000000e+00 3.88441164e-07 2.17525161e-15
 0.00000000e+00 0.00000000e+00 0.00000000e+00 1.00055899e-02]","[[9.99807796e-06 2.75949469e-22 3.88441164e-10]
 [2.75949469e-22 9.99770053e-06 2.17525161e-18]
 [3.88441164e-10 2.17525161e-18 1.00055899e-05]]",[ 6.61491805e-12  8.05418924e-24 -9.25171051e-12],1.5833468106527045e-13,-2.0958192402110505e-13
1786950030.2831619,-6.60520779251531e-12,-7.96659535697333e-24,9.238831921720703e-12,"[9.99777865e-03 2.84841026e-19 0.00000000e+00 0.00000000e+00
 0.00000000e+00 3.89000661e-07 2.84841026e-19 9.99740068e-03
 0.00000000e+00 0.00000000e+00 0.00000000e+00 2.26971622e-15
 0.00000000e+00 0.00000000e+00 0.00000000e+00 0.00000000e+00
 0.00000000e+00 0.00000000e+00 0.00000000e+00 0.00000000e+00
 0.00000000e+00 0.00000000e+00 0.00000000e+00 0.00000000e+00
 0.00000000e+00 0.00000000e+00 0.00000000e+00 0.00000000e+00
 0.00000000e+00 0.00000000e+00 3.89000661e-07 2.26971622e-15
 0.00000000e+00 0.00000000e+00 0.00000000e+00 1.00053014e-02]","[[9.99777865e-06 2.84841026e-22 3.89000661e-10]
 [2.84841026e-22 9.99740068e-06 2.26971622e-18]
 [3.89000661e-10 2.26971622e-18 1.00053014e-05]]",[ 6.60527383e-12  7.96665404e-24 -9.23883192e-12],1.5837073068936277e-13,-2.0963488550909388e-13
1786950030.331458,-6.598744160402058e-12,-7.907995161056251e-24,9.230394226733551e-12,"[9.99757905e-03 2.90159277e-19 0.00000000e+00 0.00000000e+00
 0.00000000e+00 3.89304470e-07 2.90159277e-19 9.99720078e-03
 0.00000000e+00 0.00000000e+00 0.00000000e+00 2.33301484e-15
 0.00000000e+00 0.00000000e+00 0.00000000e+00 0.00000000e+00
 0.00000000e+00 0.00000000e+00 0.00000000e+00 0.00000000e+00
 0.00000000e+00 0.00000000e+00 0.00000000e+00 0.00000000e+00
 0.00000000e+00 0.00000000e+00 0.00000000e+00 0.00000000e+00
 0.00000000e+00 0.00000000e+00 3.89304470e-07 2.33301484e-15
 0.00000000e+00 0.00000000e+00 0.00000000e+00 1.00051077e-02]","[[9.99757905e-06 2.90159277e-22 3.89304470e-10]
 [2.90159277e-22 9.99720078e-06 2.33301484e-18]
 [3.89304470e-10 2.33301484e-18 1.00051077e-05]]",[ 6.59881013e-12  7.90805269e-24 -9.23039423e-12],1.584668296281133e-13,-2.0976834621633934e-13
1786950030.3839216,-6.588609137955979e-12,-7.816144892883347e-24,9.21707155043805e-12,"[9.99727971e-03 2.98641177e-19 0.00000000e+00 0.00000000e+00
 0.00000000e+00 3.89797714e-07 2.98641177e-19 9.99690096e-03
 0.00000000e+00 0.00000000e+00 0.00000000e+00 2.43232499e-15
 0.00000000e+00 0.00000000e+00 0.00000000e+00 0.00000000e+00
 0.00000000e+00 0.00000000e+00 0.00000000e+00 0.00000000e+00
 0.00000000e+00 0.00000000e+00 0.00000000e+00 0.00000000e+00
 0.00000000e+00 0.00000000e+00 0.00000000e+00 0.00000000e+00
 0.00000000e+00 0.00000000e+00 3.89797714e-07 2.43232499e-15
 0.00000000e+00 0.00000000e+00 0.00000000e+00 1.00048179e-02]","[[9.99737945e-06 2.95308761e-22 3.89594166e-10]
 [2.95308761e-22 9.99700090e-06 2.39524843e-18]
 [3.89594166e-10 2.39524843e-18 1.00049137e-05]]",[ 6.59245007e-12  7.85046279e-24 -9.22195653e-12],1.5851259848440437e-13,-2.0983406055425375e-13
1786950030.4323876,-6.582604578719927e-12,-7.76191510907333e-24,9.209522033870599e-12,"[9.99708008e-03 3.03336300e-19 0.00000000e+00 0.00000000e+00
 0.00000000e+00 3.90052288e-07 3.03336300e-19 9.99670109e-03
 0.00000000e+00 0.00000000e+00 0.00000000e+00 2.49099272e-15
 0.00000000e+00 0.00000000e+00 0.00000000e+00 0.00000000e+00
 0.00000000e+00 0.00000000e+00 0.00000000e+00 0.00000000e+00
 0.00000000e+00 0.00000000e+00 0.00000000e+00 0.00000000e+00
 0.00000000e+00 0.00000000e+00 0.00000000e+00 0.00000000e+00
 0.00000000e+00 0.00000000e+00 3.90052288e-07 2.49099272e-15
 0.00000000e+00 0.00000000e+00 0.00000000e+00 1.00046232e-02]","[[9.99708008e-06 3.03336300e-22 3.90052288e-10]
 [3.03336300e-22 9.99670109e-06 2.49099272e-18]
 [3.90052288e-10 2.49099272e-18 1.00046232e-05]]",[ 6.58267038e-12  7.76196976e-24 -9.20952203e-12],1.5858818262638956e-13,-2.0994085566678635e-13
1786950030.5002227,-6.573000110203976e-12,-7.675158006344223e-24,9.197087535994797e-12,"[9.99678071e-03 3.11035598e-19 0.00000000e+00 0.00000000e+00
 0.00000000e+00 3.90481598e-07 3.11035598e-19 9.99640130e-03
 0.00000000e+00 0.00000000e+00 0.00000000e+00 2.58497673e-15
 0.00000000e+00 0.00000000e+00 0.00000000e+00 0.00000000e+00
 0.00000000e+00 0.00000000e+00 0.00000000e+00 0.00000000e+00
 0.00000000e+00 0.00000000e+00 0.00000000e+00 0.00000000e+00
 0.00000000e+00 0.00000000e+00 0.00000000e+00 0.00000000e+00
 0.00000000e+00 0.00000000e+00 3.90481598e-07 2.58497673e-15
 0.00000000e+00 0.00000000e+00 0.00000000e+00 1.00043321e-02]","[[9.99678071e-06 3.11035598e-22 3.90481598e-10]
 [3.11035598e-22 9.99640130e-06 2.58497673e-18]
 [3.90481598e-10 2.58497673e-18 1.00043321e-05]]",[ 6.57306582e-12  7.67521096e-24 -9.19708754e-12],1.5864426661981737e-13,-2.1002209780862029e-13
1786950030.5323074,-6.562977373110172e-12,-7.584674321570492e-24,9.184653038118995e-12,"[9.99648139e-03 3.19270118e-19 0.00000000e+00 0.00000000e+00
 0.00000000e+00 3.90952739e-07 3.19270118e-19 9.99610152e-03
 0.00000000e+00 0.00000000e+00 0.00000000e+00 2.68313692e-15
 0.00000000e+00 0.00000000e+00 0.00000000e+00 0.00000000e+00
 0.00000000e+00 0.00000000e+00 0.00000000e+00 0.00000000e+00
 0.00000000e+00 0.00000000e+00 0.00000000e+00 0.00000000e+00
 0.00000000e+00 0.00000000e+00 0.00000000e+00 0.00000000e+00
 0.00000000e+00 0.00000000e+00 3.90952739e-07 2.68313692e-15
 0.00000000e+00 0.00000000e+00 0.00000000e+00 1.00040419e-02]","[[9.99648139e-06 3.19270118e-22 3.90952739e-10]
 [3.19270118e-22 9.99610152e-06 2.68313692e-18]
 [3.90952739e-10 2.68313692e-18 1.00040419e-05]]",[ 6.56304298e-12  7.58472550e-24 -9.18465304e-12],1.5867753615221348e-13,-2.1007035995075266e-13
1786950030.581773,-6.556847188457375e-12,-7.529486754647814e-24,9.176659432341694e-12,"[9.99628180e-03 3.24066427e-19 0.00000000e+00 0.00000000e+00
 0.00000000e+00 3.91213423e-07 3.24066427e-19 9.99590168e-03
 0.00000000e+00 0.00000000e+00 0.00000000e+00 2.74304973e-15
 0.00000000e+00 0.00000000e+00 0.00000000e+00 0.00000000e+00
 0.00000000e+00 0.00000000e+00 0.00000000e+00 0.00000000e+00
 0.00000000e+00 0.00000000e+00 0.00000000e+00 0.00000000e+00
 0.00000000e+00 0.00000000e+00 0.00000000e+00 0.00000000e+00
 0.00000000e+00 0.00000000e+00 3.91213423e-07 2.74304973e-15
 0.00000000e+00 0.00000000e+00 0.00000000e+00 1.00038474e-02]","[[9.99628180e-06 3.24066427e-22 3.91213423e-10]
 [3.24066427e-22 9.99590168e-06 2.74304973e-18]
 [3.91213423e-10 2.74304973e-18 1.00038474e-05]]",[ 6.55691273e-12  7.52953685e-24 -9.17665943e-12],1.5868489687394407e-13,-2.100786958610089e-13
1786950030.6306567,-6.547112557432776e-12,-7.441852149839412e-24,9.163780845256042e-12,"[9.99598249e-03 3.31972866e-19 0.00000000e+00 0.00000000e+00
 0.00000000e+00 3.91660789e-07 3.31972866e-19 9.99560194e-03
 0.00000000e+00 0.00000000e+00 0.00000000e+00 2.83830409e-15
 0.00000000e+00 0.00000000e+00 0.00000000e+00 0.00000000e+00
 0.00000000e+00 0.00000000e+00 0.00000000e+00 0.00000000e+00
 0.00000000e+00 0.00000000e+00 0.00000000e+00 0.00000000e+00
 0.00000000e+00 0.00000000e+00 0.00000000e+00 0.00000000e+00
 0.00000000e+00 0.00000000e+00 3.91660789e-07 2.83830409e-15
 0.00000000e+00 0.00000000e+00 0.00000000e+00 1.00035567e-02]","[[9.99598249e-06 3.31972866e-22 3.91660789e-10]
 [3.31972866e-22 9.99560194e-06 2.83830409e-18]
 [3.91660789e-10 2.83830409e-18 1.00035567e-05]]",[ 6.54717800e-12  7.44190053e-24 -9.16378085e-12],1.5867991145313385e-13,-2.1007281949272836e-13
1786950030.694577,-6.54015991711706e-12,-7.379258267290823e-24,9.154899061059041e-12,"[9.99578300e-03 3.37831891e-19 0.00000000e+00 0.00000000e+00
 0.00000000e+00 3.92004859e-07 3.37831891e-19 9.99540212e-03
 0.00000000e+00 0.00000000e+00 0.00000000e+00 2.90642876e-15
 0.00000000e+00 0.00000000e+00 0.00000000e+00 0.00000000e+00
 0.00000000e+00 0.00000000e+00 0.00000000e+00 0.00000000e+00
 0.00000000e+00 0.00000000e+00 0.00000000e+00 0.00000000e+00
 0.00000000e+00 0.00000000e+00 0.00000000e+00 0.00000000e+00
 0.00000000e+00 0.00000000e+00 3.92004859e-07 2.90642876e-15
 0.00000000e+00 0.00000000e+00 0.00000000e+00 1.00033639e-02]","[[9.99578300e-06 3.37831891e-22 3.92004859e-10]
 [3.37831891e-22 9.99540212e-06 2.90642876e-18]
 [3.92004859e-10 2.90642876e-18 1.00033639e-05]]",[ 6.54022529e-12  7.37930542e-24 -9.15489906e-12],1.5866358414043957e-13,-2.1004950281097168e-13
1786950030.7329328,-6.530783797771486e-12,-7.295111964064367e-24,9.142908652393089e-12,"[9.99548373e-03 3.45626958e-19 0.00000000e+00 0.00000000e+00
 0.00000000e+00 3.92455822e-07 3.45626958e-19 9.99510240e-03
 0.00000000e+00 0.00000000e+00 0.00000000e+00 2.99807754e-15
 0.00000000e+00 0.00000000e+00 0.00000000e+00 0.00000000e+00
 0.00000000e+00 0.00000000e+00 0.00000000e+00 0.00000000e+00
 0.00000000e+00 0.00000000e+00 0.00000000e+00 0.00000000e+00
 0.00000000e+00 0.00000000e+00 0.00000000e+00 0.00000000e+00
 0.00000000e+00 0.00000000e+00 3.92455822e-07 2.99807754e-15
 0.00000000e+00 0.00000000e+00 0.00000000e+00 1.00030733e-02]","[[9.99548373e-06 3.45626958e-22 3.92455822e-10]
 [3.45626958e-22 9.99510240e-06 2.99807754e-18]
 [3.92455822e-10 2.99807754e-18 1.00030733e-05]]",[ 6.53084907e-12  7.29515747e-24 -9.14290865e-12],1.5864948545537294e-13,-2.100279562515206e-13
1786950030.7835083,-6.524323676847085e-12,-7.23716446439975e-24,9.134470957405938e-12,"[9.99528421e-03 3.50827081e-19 0.00000000e+00 0.00000000e+00
 0.00000000e+00 3.92747769e-07 3.50827081e-19 9.99490260e-03
 0.00000000e+00 0.00000000e+00 0.00000000e+00 3.06125925e-15
 0.00000000e+00 0.00000000e+00 0.00000000e+00 0.00000000e+00
 0.00000000e+00 0.00000000e+00 0.00000000e+00 0.00000000e+00
 0.00000000e+00 0.00000000e+00 0.00000000e+00 0.00000000e+00
 0.00000000e+00 0.00000000e+00 0.00000000e+00 0.00000000e+00
 0.00000000e+00 0.00000000e+00 3.92747769e-07 3.06125925e-15
 0.00000000e+00 0.00000000e+00 0.00000000e+00 1.00028795e-02]","[[9.99528421e-06 3.50827081e-22 3.92747769e-10]
 [3.50827081e-22 9.99490260e-06 3.06125925e-18]
 [3.92747769e-10 3.06125925e-18 1.00028795e-05]]",[ 6.52438889e-12  7.23720884e-24 -9.13447096e-12],1.5861403049908093e-13,-2.0998108193493912e-13
1786950030.834281,-6.514546176124062e-12,-7.14954865815628e-24,9.121592370320286e-12,"[9.99498496e-03 3.58747420e-19 0.00000000e+00 0.00000000e+00
 0.00000000e+00 3.93195598e-07 3.58747420e-19 9.99460291e-03
 0.00000000e+00 0.00000000e+00 0.00000000e+00 3.15688777e-15
 0.00000000e+00 0.00000000e+00 0.00000000e+00 0.00000000e+00
 0.00000000e+00 0.00000000e+00 0.00000000e+00 0.00000000e+00
 0.00000000e+00 0.00000000e+00 0.00000000e+00 0.00000000e+00
 0.00000000e+00 0.00000000e+00 0.00000000e+00 0.00000000e+00
 0.00000000e+00 0.00000000e+00 3.93195598e-07 3.15688777e-15
 0.00000000e+00 0.00000000e+00 0.00000000e+00 1.00025889e-02]","[[9.99508470e-06 3.55930028e-22 3.93032610e-10]
 [3.55930028e-22 9.99470281e-06 3.12358874e-18]
 [3.93032610e-10 3.12358874e-18 1.00026855e-05]]",[ 6.51801333e-12  7.18008725e-24 -9.12603326e-12],1.585235231338315e-13,-2.0985043005942043e-13
1786950030.8806875,-6.5075123527265114e-12,-7.086507860918618e-24,9.112266496913435e-12,"[9.99478553e-03 3.64739431e-19 0.00000000e+00 0.00000000e+00
 0.00000000e+00 3.93551749e-07 3.64739431e-19 9.99440313e-03
 0.00000000e+00 0.00000000e+00 0.00000000e+00 3.22578986e-15
 0.00000000e+00 0.00000000e+00 0.00000000e+00 0.00000000e+00
 0.00000000e+00 0.00000000e+00 0.00000000e+00 0.00000000e+00
 0.00000000e+00 0.00000000e+00 0.00000000e+00 0.00000000e+00
 0.00000000e+00 0.00000000e+00 0.00000000e+00 0.00000000e+00
 0.00000000e+00 0.00000000e+00 3.93551749e-07 3.22578986e-15
 0.00000000e+00 0.00000000e+00 0.00000000e+00 1.00023963e-02]","[[9.99478553e-06 3.64739431e-22 3.93551749e-10]
 [3.64739431e-22 9.99440313e-06 3.22578986e-18]
 [3.93551749e-10 3.22578986e-18 1.00023963e-05]]",[ 6.50757739e-12  7.08654929e-24 -9.11226650e-12],1.5843436696078058e-13,-2.0972555311786154e-13
1786950030.930846,-6.498237924109942e-12,-7.003681722420051e-24,9.099831999037633e-12,"[9.99448643e-03 3.73572526e-19 0.00000000e+00 0.00000000e+00
 0.00000000e+00 3.94125187e-07 3.73572526e-19 9.99410348e-03
 0.00000000e+00 0.00000000e+00 0.00000000e+00 3.31639482e-15
 0.00000000e+00 0.00000000e+00 0.00000000e+00 0.00000000e+00
 0.00000000e+00 0.00000000e+00 0.00000000e+00 0.00000000e+00
 0.00000000e+00 0.00000000e+00 0.00000000e+00 0.00000000e+00
 0.00000000e+00 0.00000000e+00 0.00000000e+00 0.00000000e+00
 0.00000000e+00 0.00000000e+00 3.94125187e-07 3.31639482e-15
 0.00000000e+00 0.00000000e+00 0.00000000e+00 1.00021083e-02]","[[9.99458617e-06 3.70914455e-22 3.93974550e-10]
 [3.70914455e-22 9.99420336e-06 3.28435477e-18]
 [3.93974550e-10 3.28435477e-18 1.00022052e-05]]",[ 6.50157817e-12  7.03298961e-24 -9.10427289e-12],1.5843436696078058e-13,-2.0972555311786154e-13
1786950030.9822,-6.492061779988552e-12,-6.948594821609327e-24,9.091838393260332e-12,"[9.99428693e-03 3.78423033e-19 0.00000000e+00 0.00000000e+00
 0.00000000e+00 3.94390627e-07 3.78423033e-19 9.99390372e-03
 0.00000000e+00 0.00000000e+00 0.00000000e+00 3.37671185e-15
 0.00000000e+00 0.00000000e+00 0.00000000e+00 0.00000000e+00
 0.00000000e+00 0.00000000e+00 0.00000000e+00 0.00000000e+00
 0.00000000e+00 0.00000000e+00 0.00000000e+00 0.00000000e+00
 0.00000000e+00 0.00000000e+00 0.00000000e+00 0.00000000e+00
 0.00000000e+00 0.00000000e+00 3.94390627e-07 3.37671185e-15
 0.00000000e+00 0.00000000e+00 0.00000000e+00 1.00019140e-02]","[[9.99428693e-06 3.78423033e-22 3.94390627e-10]
 [3.78423033e-22 9.99390372e-06 3.37671185e-18]
 [3.94390627e-10 3.37671185e-18 1.00019140e-05]]",[ 6.49212666e-12  6.94863357e-24 -9.09183839e-12],1.5827443178887427e-13,-2.094980232133935e-13
1786950031.0319676,-6.4856110389609335e-12,-6.891061552642269e-24,9.08340069827318e-12,"[9.99408748e-03 3.83776382e-19 0.00000000e+00 0.00000000e+00
 0.00000000e+00 3.94700862e-07 3.83776382e-19 9.99370397e-03
 0.00000000e+00 0.00000000e+00 0.00000000e+00 3.43975549e-15
 0.00000000e+00 0.00000000e+00 0.00000000e+00 0.00000000e+00
 0.00000000e+00 0.00000000e+00 0.00000000e+00 0.00000000e+00
 0.00000000e+00 0.00000000e+00 0.00000000e+00 0.00000000e+00
 0.00000000e+00 0.00000000e+00 0.00000000e+00 0.00000000e+00
 0.00000000e+00 0.00000000e+00 3.94700862e-07 3.43975549e-15
 0.00000000e+00 0.00000000e+00 0.00000000e+00 1.00017205e-02]","[[9.99408748e-06 3.83776382e-22 3.94700862e-10]
 [3.83776382e-22 9.99370397e-06 3.43975549e-18]
 [3.94700862e-10 3.43975549e-18 1.00017205e-05]]",[ 6.48567585e-12  6.89109918e-24 -9.08340070e-12],1.5819055799548423e-13,-2.093832235424362e-13
1786950031.0809085,-6.47527407401977e-12,-6.798866079590155e-24,9.070078021977679e-12,"[9.99378837e-03 3.92529384e-19 0.00000000e+00 0.00000000e+00
 0.00000000e+00 3.95218768e-07 3.92529384e-19 9.99340435e-03
 0.00000000e+00 0.00000000e+00 0.00000000e+00 3.54093310e-15
 0.00000000e+00 0.00000000e+00 0.00000000e+00 0.00000000e+00
 0.00000000e+00 0.00000000e+00 0.00000000e+00 0.00000000e+00
 0.00000000e+00 0.00000000e+00 0.00000000e+00 0.00000000e+00
 0.00000000e+00 0.00000000e+00 0.00000000e+00 0.00000000e+00
 0.00000000e+00 0.00000000e+00 3.95218768e-07 3.54093310e-15
 0.00000000e+00 0.00000000e+00 0.00000000e+00 1.00014314e-02]","[[9.99378837e-06 3.92529384e-22 3.95218768e-10]
 [3.92529384e-22 9.99340435e-06 3.54093310e-18]
 [3.95218768e-10 3.54093310e-18 1.00014314e-05]]",[ 6.47533878e-12  6.79890191e-24 -9.07007802e-12],1.580164123110683e-13,-2.0913330200667236e-13
1786950031.130941,-6.466277835236241e-12,-6.718958936422851e-24,9.058087613311727e-12,"[9.99348914e-03 3.99577634e-19 0.00000000e+00 0.00000000e+00
 0.00000000e+00 3.95603535e-07 3.99577634e-19 9.99310476e-03
 0.00000000e+00 0.00000000e+00 0.00000000e+00 3.62870442e-15
 0.00000000e+00 0.00000000e+00 0.00000000e+00 0.00000000e+00
 0.00000000e+00 0.00000000e+00 0.00000000e+00 0.00000000e+00
 0.00000000e+00 0.00000000e+00 0.00000000e+00 0.00000000e+00
 0.00000000e+00 0.00000000e+00 0.00000000e+00 0.00000000e+00
 0.00000000e+00 0.00000000e+00 3.95603535e-07 3.62870442e-15
 0.00000000e+00 0.00000000e+00 0.00000000e+00 1.00011396e-02]","[[9.99348914e-06 3.99577634e-22 3.95603535e-10]
 [3.99577634e-22 9.99310476e-06 3.62870442e-18]
 [3.95603535e-10 3.62870442e-18 1.00011396e-05]]",[ 6.46634245e-12  6.71899321e-24 -9.05808761e-12],1.5797344995477467e-13,-2.0907620008993714e-13
1786950031.192502,-6.459848117997844e-12,-6.661834339466432e-24,9.049649918324576e-12,"[9.99328971e-03 4.04754471e-19 0.00000000e+00 0.00000000e+00
 0.00000000e+00 3.95895132e-07 4.04754471e-19 9.99290504e-03
 0.00000000e+00 0.00000000e+00 0.00000000e+00 3.69151609e-15
 0.00000000e+00 0.00000000e+00 0.00000000e+00 0.00000000e+00
 0.00000000e+00 0.00000000e+00 0.00000000e+00 0.00000000e+00
 0.00000000e+00 0.00000000e+00 0.00000000e+00 0.00000000e+00
 0.00000000e+00 0.00000000e+00 0.00000000e+00 0.00000000e+00
 0.00000000e+00 0.00000000e+00 3.95895132e-07 3.69151609e-15
 0.00000000e+00 0.00000000e+00 0.00000000e+00 1.00009458e-02]","[[9.99328971e-06 4.04754471e-22 3.95895132e-10]
 [4.04754471e-22 9.99290504e-06 3.69151609e-18]
 [3.95895132e-10 3.69151609e-18 1.00009458e-05]]",[ 6.45991267e-12  6.66186751e-24 -9.04964992e-12],1.577572688447486e-13,-2.0876838746679828e-13
1786950031.2371156,-6.458003011401733e-12,-6.64624003527823e-24,9.046097204645775e-12,"[9.99309028e-03 4.06954176e-19 0.00000000e+00 0.00000000e+00
 0.00000000e+00 3.96188187e-07 4.06954176e-19 9.99270533e-03
 0.00000000e+00 0.00000000e+00 0.00000000e+00 3.67881875e-15
 0.00000000e+00 0.00000000e+00 0.00000000e+00 0.00000000e+00
 0.00000000e+00 0.00000000e+00 0.00000000e+00 0.00000000e+00
 0.00000000e+00 0.00000000e+00 0.00000000e+00 0.00000000e+00
 0.00000000e+00 0.00000000e+00 0.00000000e+00 0.00000000e+00
 0.00000000e+00 0.00000000e+00 3.96188187e-07 3.67881875e-15
 0.00000000e+00 0.00000000e+00 0.00000000e+00 1.00007521e-02]","[[9.99309028e-06 4.06954176e-22 3.96188187e-10]
 [4.06954176e-22 9.99270533e-06 3.67881875e-18]
 [3.96188187e-10 3.67881875e-18 1.00007521e-05]]",[ 6.45806754e-12  6.64627317e-24 -9.04609720e-12],-3.137743786087154e-14,-5.3923373276274315e-21
1786950031.2849896,-6.4596930555761885e-12,-6.663179815958138e-24,9.046097204645775e-12,"[9.99279115e-03 4.10253387e-19 0.00000000e+00 0.00000000e+00
 0.00000000e+00 3.96627975e-07 4.10253387e-19 9.99240577e-03
 0.00000000e+00 0.00000000e+00 0.00000000e+00 3.65976722e-15
 0.00000000e+00 0.00000000e+00 0.00000000e+00 0.00000000e+00
 0.00000000e+00 0.00000000e+00 0.00000000e+00 0.00000000e+00
 0.00000000e+00 0.00000000e+00 0.00000000e+00 0.00000000e+00
 0.00000000e+00 0.00000000e+00 0.00000000e+00 0.00000000e+00
 0.00000000e+00 0.00000000e+00 3.96627975e-07 3.65976722e-15
 0.00000000e+00 0.00000000e+00 0.00000000e+00 1.00004615e-02]","[[9.99279115e-06 4.10253387e-22 3.96627975e-10]
 [4.10253387e-22 9.99240577e-06 3.65976722e-18]
 [3.96627975e-10 3.65976722e-18 1.00004615e-05]]",[ 6.45975760e-12  6.66321329e-24 -9.04609720e-12],-3.137063946764813e-14,4.115061310317545e-20
1786950031.3309708,-6.460818828813515e-12,-6.67446430699187e-24,9.046097204645775e-12,"[9.99259175e-03 4.12505222e-19 0.00000000e+00 0.00000000e+00
 0.00000000e+00 3.96927139e-07 4.12505222e-19 9.99220608e-03
 0.00000000e+00 0.00000000e+00 0.00000000e+00 3.64707510e-15
 0.00000000e+00 0.00000000e+00 0.00000000e+00 0.00000000e+00
 0.00000000e+00 0.00000000e+00 0.00000000e+00 0.00000000e+00
 0.00000000e+00 0.00000000e+00 0.00000000e+00 0.00000000e+00
 0.00000000e+00 0.00000000e+00 0.00000000e+00 0.00000000e+00
 0.00000000e+00 0.00000000e+00 3.96927139e-07 3.64707510e-15
 0.00000000e+00 0.00000000e+00 0.00000000e+00 1.00002678e-02]","[[9.99259175e-06 4.12505222e-22 3.96927139e-10]
 [4.12505222e-22 9.99220608e-06 3.64707510e-18]
 [3.96927139e-10 3.64707510e-18 1.00002678e-05]]",[ 6.46088339e-12  6.67449801e-24 -9.04609720e-12],-3.137018278413927e-14,-1.1859156219618712e-20
1786950031.384237,-6.4625469257406405e-12,-6.691747285141552e-24,9.046097204645775e-12,"[9.99229268e-03 4.15991757e-19 0.00000000e+00 0.00000000e+00
 0.00000000e+00 3.97390124e-07 4.15991757e-19 9.99190656e-03
 0.00000000e+00 0.00000000e+00 0.00000000e+00 3.62764280e-15
 0.00000000e+00 0.00000000e+00 0.00000000e+00 0.00000000e+00
 0.00000000e+00 0.00000000e+00 0.00000000e+00 0.00000000e+00
 0.00000000e+00 0.00000000e+00 0.00000000e+00 0.00000000e+00
 0.00000000e+00 0.00000000e+00 0.00000000e+00 0.00000000e+00
 0.00000000e+00 0.00000000e+00 3.97390124e-07 3.62764280e-15
 0.00000000e+00 0.00000000e+00 0.00000000e+00 9.99997772e-03]","[[9.99229268e-06 4.15991757e-22 3.97390124e-10]
 [4.15991757e-22 9.99190656e-06 3.62764280e-18]
 [3.97390124e-10 3.62764280e-18 9.99997772e-06]]",[ 6.46261150e-12  6.69178134e-24 -9.04609720e-12],-3.1373890019505365e-14,-7.174749491983447e-22
1786950031.430982,-6.463641846818701e-12,-6.70275200596426e-24,9.046097204645775e-12,"[9.99209328e-03 4.18073764e-19 0.00000000e+00 0.00000000e+00
 0.00000000e+00 3.97668687e-07 4.18073764e-19 9.99170688e-03
 0.00000000e+00 0.00000000e+00 0.00000000e+00 3.61525767e-15
 0.00000000e+00 0.00000000e+00 0.00000000e+00 0.00000000e+00
 0.00000000e+00 0.00000000e+00 0.00000000e+00 0.00000000e+00
 0.00000000e+00 0.00000000e+00 0.00000000e+00 0.00000000e+00
 0.00000000e+00 0.00000000e+00 0.00000000e+00 0.00000000e+00
 0.00000000e+00 0.00000000e+00 3.97668687e-07 3.61525767e-15
 0.00000000e+00 0.00000000e+00 0.00000000e+00 9.99978371e-03]","[[9.99209328e-06 4.18073764e-22 3.97668687e-10]
 [4.18073764e-22 9.99170688e-06 3.61525767e-18]
 [3.97668687e-10 3.61525767e-18 9.99978371e-06]]",[ 6.46370643e-12  6.70278628e-24 -9.04609720e-12],-3.138200074042652e-14,2.3257446014455377e-20
1786950031.4904785,-6.67543427080544e-12,-8.635423277921926e-24,9.336087458677866e-12,"[9.99179422e-03 4.24343838e-19 0.00000000e+00 0.00000000e+00
 0.00000000e+00 3.98122403e-07 4.24343838e-19 9.99140739e-03
 0.00000000e+00 0.00000000e+00 0.00000000e+00 3.66743136e-15
 0.00000000e+00 0.00000000e+00 0.00000000e+00 0.00000000e+00
 0.00000000e+00 0.00000000e+00 0.00000000e+00 0.00000000e+00
 0.00000000e+00 0.00000000e+00 0.00000000e+00 0.00000000e+00
 0.00000000e+00 0.00000000e+00 0.00000000e+00 0.00000000e+00
 0.00000000e+00 0.00000000e+00 3.98122403e-07 3.66743136e-15
 0.00000000e+00 0.00000000e+00 0.00000000e+00 9.99949343e-03]","[[9.99179422e-06 4.24343838e-22 3.98122403e-10]
 [4.24343838e-22 9.99140739e-06 3.66743136e-18]
 [3.98122403e-10 3.66743136e-18 9.99949343e-06]]",[ 6.67550097e-12  8.63547532e-24 -9.33608746e-12],1.5784747252767512e-13,-2.0889592985361754e-13
1786950031.531998,-6.8271246529953405e-12,-1.005225943650303e-23,9.544809387307396e-12,"[9.99149522e-03 4.32778095e-19 0.00000000e+00 0.00000000e+00
 0.00000000e+00 3.98611833e-07 4.32778095e-19 9.99110791e-03
 0.00000000e+00 0.00000000e+00 0.00000000e+00 3.76171496e-15
 0.00000000e+00 0.00000000e+00 0.00000000e+00 0.00000000e+00
 0.00000000e+00 0.00000000e+00 0.00000000e+00 0.00000000e+00
 0.00000000e+00 0.00000000e+00 0.00000000e+00 0.00000000e+00
 0.00000000e+00 0.00000000e+00 0.00000000e+00 0.00000000e+00
 0.00000000e+00 0.00000000e+00 3.98611833e-07 3.76171496e-15
 0.00000000e+00 0.00000000e+00 0.00000000e+00 9.99920389e-03]","[[9.99149522e-06 4.32778095e-22 3.98611833e-10]
 [4.32778095e-22 9.99110791e-06 3.76171496e-18]
 [3.98611833e-10 3.76171496e-18 9.99920389e-06]]",[ 6.82719286e-12  1.00523240e-23 -9.54480939e-12],1.58066900491371e-13,-2.0920152425437787e-13
1786950031.5811749,-6.8207432088999106e-12,-9.99253649338962e-24,9.536371692320245e-12,"[9.99129586e-03 4.38059417e-19 0.00000000e+00 0.00000000e+00
 0.00000000e+00 3.98898899e-07 4.38059417e-19 9.99090827e-03
 0.00000000e+00 0.00000000e+00 0.00000000e+00 3.82407007e-15
 0.00000000e+00 0.00000000e+00 0.00000000e+00 0.00000000e+00
 0.00000000e+00 0.00000000e+00 0.00000000e+00 0.00000000e+00
 0.00000000e+00 0.00000000e+00 0.00000000e+00 0.00000000e+00
 0.00000000e+00 0.00000000e+00 0.00000000e+00 0.00000000e+00
 0.00000000e+00 0.00000000e+00 3.98898899e-07 3.82407007e-15
 0.00000000e+00 0.00000000e+00 0.00000000e+00 9.99901008e-03]","[[9.99129586e-06 4.38059417e-22 3.98898899e-10]
 [4.38059417e-22 9.99090827e-06 3.82407007e-18]
 [3.98898899e-10 3.82407007e-18 9.99901008e-06]]",[ 6.82081135e-12  9.99259986e-24 -9.53637169e-12],1.58167523777472e-13,-2.0934771002232972e-13
1786950031.638163,-6.8119567830970155e-12,-9.909942888504135e-24,9.525269462073993e-12,"[9.99109680e-03 4.47042017e-19 0.00000000e+00 0.00000000e+00
 0.00000000e+00 3.99482060e-07 4.47042017e-19 9.99070864e-03
 0.00000000e+00 0.00000000e+00 0.00000000e+00 3.91047073e-15
 0.00000000e+00 0.00000000e+00 0.00000000e+00 0.00000000e+00
 0.00000000e+00 0.00000000e+00 0.00000000e+00 0.00000000e+00
 0.00000000e+00 0.00000000e+00 0.00000000e+00 0.00000000e+00
 0.00000000e+00 0.00000000e+00 0.00000000e+00 0.00000000e+00
 0.00000000e+00 0.00000000e+00 3.99482060e-07 3.91047073e-15
 0.00000000e+00 0.00000000e+00 0.00000000e+00 9.99882229e-03]","[[9.99109680e-06 4.47042017e-22 3.99482060e-10]
 [4.47042017e-22 9.99070864e-06 3.91047073e-18]
 [3.99482060e-10 3.91047073e-18 9.99882229e-06]]",[ 6.81202484e-12  9.91000465e-24 -9.52526946e-12],1.5828507175543677e-13,-2.0951339425856848e-13
1786950031.6808748,-6.80782099602789e-12,-9.87172584986638e-24,9.519940391555792e-12,"[9.99089731e-03 4.50075181e-19 0.00000000e+00 0.00000000e+00
 0.00000000e+00 3.99623367e-07 4.50075181e-19 9.99050902e-03
 0.00000000e+00 0.00000000e+00 0.00000000e+00 3.95033041e-15
 0.00000000e+00 0.00000000e+00 0.00000000e+00 0.00000000e+00
 0.00000000e+00 0.00000000e+00 0.00000000e+00 0.00000000e+00
 0.00000000e+00 0.00000000e+00 0.00000000e+00 0.00000000e+00
 0.00000000e+00 0.00000000e+00 0.00000000e+00 0.00000000e+00
 0.00000000e+00 0.00000000e+00 3.99623367e-07 3.95033041e-15
 0.00000000e+00 0.00000000e+00 0.00000000e+00 9.99862554e-03]","[[9.99089731e-06 4.50075181e-22 3.99623367e-10]
 [4.50075181e-22 9.99050902e-06 3.95033041e-18]
 [3.99623367e-10 3.95033041e-18 9.99862554e-06]]",[ 6.80788901e-12  9.87178687e-24 -9.51994039e-12],1.5832299738884306e-13,-2.095676743810729e-13
1786950031.7309642,-6.797940318225794e-12,-9.779460282358544e-24,9.50706180447014e-12,"[9.99059845e-03 4.59521715e-19 0.00000000e+00 0.00000000e+00
 0.00000000e+00 4.00205673e-07 4.59521715e-19 9.99020959e-03
 0.00000000e+00 0.00000000e+00 0.00000000e+00 4.04692351e-15
 0.00000000e+00 0.00000000e+00 0.00000000e+00 0.00000000e+00
 0.00000000e+00 0.00000000e+00 0.00000000e+00 0.00000000e+00
 0.00000000e+00 0.00000000e+00 0.00000000e+00 0.00000000e+00
 0.00000000e+00 0.00000000e+00 0.00000000e+00 0.00000000e+00
 0.00000000e+00 0.00000000e+00 4.00205673e-07 4.04692351e-15
 0.00000000e+00 0.00000000e+00 0.00000000e+00 9.99833795e-03]","[[9.99059845e-06 4.59521715e-22 4.00205673e-10]
 [4.59521715e-22 9.99020959e-06 4.04692351e-18]
 [4.00205673e-10 4.04692351e-18 9.99833795e-06]]",[ 6.79800823e-12  9.77951951e-24 -9.50706180e-12],1.584197265060898e-13,-2.0970417377640206e-13
1786950031.7997773,-6.788423541047799e-12,-9.69078250690288e-24,9.494627306594339e-12,"[9.99029946e-03 4.67392528e-19 0.00000000e+00 0.00000000e+00
 0.00000000e+00 4.00633578e-07 4.67392528e-19 9.98991019e-03
 0.00000000e+00 0.00000000e+00 0.00000000e+00 4.13984642e-15
 0.00000000e+00 0.00000000e+00 0.00000000e+00 0.00000000e+00
 0.00000000e+00 0.00000000e+00 0.00000000e+00 0.00000000e+00
 0.00000000e+00 0.00000000e+00 0.00000000e+00 0.00000000e+00
 0.00000000e+00 0.00000000e+00 0.00000000e+00 0.00000000e+00
 0.00000000e+00 0.00000000e+00 4.00633578e-07 4.13984642e-15
 0.00000000e+00 0.00000000e+00 0.00000000e+00 9.99804723e-03]","[[9.99029946e-06 4.67392528e-22 4.00633578e-10]
 [4.67392528e-22 9.98991019e-06 4.13984642e-18]
 [4.00633578e-10 4.13984642e-18 9.99804723e-06]]",[ 6.78849136e-12  9.69084001e-24 -9.49462731e-12],1.584962235524656e-13,-2.0981310644895783e-13
1786950031.8352566,-6.780212326885684e-12,-9.61401445671575e-24,9.483969165557937e-12,"[9.99010036e-03 4.75383072e-19 0.00000000e+00 0.00000000e+00
 0.00000000e+00 4.01135268e-07 4.75383072e-19 9.98971060e-03
 0.00000000e+00 0.00000000e+00 0.00000000e+00 4.22045261e-15
 0.00000000e+00 0.00000000e+00 0.00000000e+00 0.00000000e+00
 0.00000000e+00 0.00000000e+00 0.00000000e+00 0.00000000e+00
 0.00000000e+00 0.00000000e+00 0.00000000e+00 0.00000000e+00
 0.00000000e+00 0.00000000e+00 0.00000000e+00 0.00000000e+00
 0.00000000e+00 0.00000000e+00 4.01135268e-07 4.22045261e-15
 0.00000000e+00 0.00000000e+00 0.00000000e+00 9.99785783e-03]","[[9.99010036e-06 4.75383072e-22 4.01135268e-10]
 [4.75383072e-22 9.98971060e-06 4.22045261e-18]
 [4.01135268e-10 4.22045261e-18 9.99785783e-06]]",[ 6.78028006e-12  9.61407048e-24 -9.48396917e-12],1.5851718910908342e-13,-2.098403852673819e-13
1786950031.8881726,-6.7720372302527806e-12,-9.53826025509811e-24,9.473755113731386e-12,"[9.98980148e-03 4.83498321e-19 0.00000000e+00 0.00000000e+00
 0.00000000e+00 4.01648517e-07 4.83498321e-19 9.98941122e-03
 0.00000000e+00 0.00000000e+00 0.00000000e+00 4.29991898e-15
 0.00000000e+00 0.00000000e+00 0.00000000e+00 0.00000000e+00
 0.00000000e+00 0.00000000e+00 0.00000000e+00 0.00000000e+00
 0.00000000e+00 0.00000000e+00 0.00000000e+00 0.00000000e+00
 0.00000000e+00 0.00000000e+00 0.00000000e+00 0.00000000e+00
 0.00000000e+00 0.00000000e+00 4.01648517e-07 4.29991898e-15
 0.00000000e+00 0.00000000e+00 0.00000000e+00 9.99756888e-03]","[[9.98980148e-06 4.83498321e-22 4.01648517e-10]
 [4.83498321e-22 9.98941122e-06 4.29991898e-18]
 [4.01648517e-10 4.29991898e-18 9.99756888e-06]]",[ 6.77210488e-12  9.53831480e-24 -9.47375511e-12],1.5856260342829523e-13,-2.0990570726974874e-13
1786950031.9323406,-6.762129550808507e-12,-9.446200163917596e-24,9.460876526645734e-12,"[9.98950257e-03 4.91798752e-19 0.00000000e+00 0.00000000e+00
 0.00000000e+00 4.02106417e-07 4.91798752e-19 9.98911187e-03
 0.00000000e+00 0.00000000e+00 0.00000000e+00 4.39670209e-15
 0.00000000e+00 0.00000000e+00 0.00000000e+00 0.00000000e+00
 0.00000000e+00 0.00000000e+00 0.00000000e+00 0.00000000e+00
 0.00000000e+00 0.00000000e+00 0.00000000e+00 0.00000000e+00
 0.00000000e+00 0.00000000e+00 0.00000000e+00 0.00000000e+00
 0.00000000e+00 0.00000000e+00 4.02106417e-07 4.39670209e-15
 0.00000000e+00 0.00000000e+00 0.00000000e+00 9.99727882e-03]","[[9.98960222e-06 4.89166461e-22 4.01963919e-10]
 [4.89166461e-22 9.98921165e-06 4.36546332e-18]
 [4.01963919e-10 4.36546332e-18 9.99737571e-06]]",[ 6.76539794e-12  9.47596222e-24 -9.46487333e-12],1.585941484516116e-13,-2.0995088313108804e-13
1786950031.9917014,-6.755916730180114e-12,-9.388605666206513e-24,9.452882920868433e-12,"[9.98930330e-03 4.97113248e-19 0.00000000e+00 0.00000000e+00
 0.00000000e+00 4.02405083e-07 4.97113248e-19 9.98891231e-03
 0.00000000e+00 0.00000000e+00 0.00000000e+00 4.45729930e-15
 0.00000000e+00 0.00000000e+00 0.00000000e+00 0.00000000e+00
 0.00000000e+00 0.00000000e+00 0.00000000e+00 0.00000000e+00
 0.00000000e+00 0.00000000e+00 0.00000000e+00 0.00000000e+00
 0.00000000e+00 0.00000000e+00 0.00000000e+00 0.00000000e+00
 0.00000000e+00 0.00000000e+00 4.02405083e-07 4.45729930e-15
 0.00000000e+00 0.00000000e+00 0.00000000e+00 9.99708533e-03]","[[9.98930330e-06 4.97113248e-22 4.02405083e-10]
 [4.97113248e-22 9.98891231e-06 4.45729930e-18]
 [4.02405083e-10 4.45729930e-18 9.99708533e-06]]",[ 6.75598421e-12  9.38865732e-24 -9.45288292e-12],1.5863762469437672e-13,-2.1001280899143542e-13
1786950032.036093,-6.748909162539219e-12,-9.323552184951787e-24,9.444001136671432e-12,"[9.98910409e-03 5.03229005e-19 0.00000000e+00 0.00000000e+00
 0.00000000e+00 4.02756235e-07 5.03229005e-19 9.98871275e-03
 0.00000000e+00 0.00000000e+00 0.00000000e+00 4.52584701e-15
 0.00000000e+00 0.00000000e+00 0.00000000e+00 0.00000000e+00
 0.00000000e+00 0.00000000e+00 0.00000000e+00 0.00000000e+00
 0.00000000e+00 0.00000000e+00 0.00000000e+00 0.00000000e+00
 0.00000000e+00 0.00000000e+00 0.00000000e+00 0.00000000e+00
 0.00000000e+00 0.00000000e+00 4.02756235e-07 4.52584701e-15
 0.00000000e+00 0.00000000e+00 0.00000000e+00 9.99689291e-03]","[[9.98910409e-06 5.03229005e-22 4.02756235e-10]
 [5.03229005e-22 9.98871275e-06 4.52584701e-18]
 [4.02756235e-10 4.52584701e-18 9.99689291e-06]]",[ 6.74897657e-12  9.32360258e-24 -9.44400114e-12],1.5865015220241177e-13,-2.1002814759259547e-13
1786950032.0821197,-6.7394172960689886e-12,-9.235707604877138e-24,9.43201072800548e-12,"[9.98880519e-03 5.11079069e-19 0.00000000e+00 0.00000000e+00
 0.00000000e+00 4.03183729e-07 5.11079069e-19 9.98841344e-03
 0.00000000e+00 0.00000000e+00 0.00000000e+00 4.61845434e-15
 0.00000000e+00 0.00000000e+00 0.00000000e+00 0.00000000e+00
 0.00000000e+00 0.00000000e+00 0.00000000e+00 0.00000000e+00
 0.00000000e+00 0.00000000e+00 0.00000000e+00 0.00000000e+00
 0.00000000e+00 0.00000000e+00 0.00000000e+00 0.00000000e+00
 0.00000000e+00 0.00000000e+00 4.03183729e-07 4.61845434e-15
 0.00000000e+00 0.00000000e+00 0.00000000e+00 9.99660228e-03]","[[9.98880519e-06 5.11079069e-22 4.03183729e-10]
 [5.11079069e-22 9.98841344e-06 4.61845434e-18]
 [4.03183729e-10 4.61845434e-18 9.99660228e-06]]",[ 6.73948461e-12  9.23575630e-24 -9.43201073e-12],1.5867119780995792e-13,-2.100584804557452e-13
1786950032.1335166,-6.733341993678414e-12,-9.179590440741949e-24,9.424017122228179e-12,"[9.98860591e-03 5.15928232e-19 0.00000000e+00 0.00000000e+00
 0.00000000e+00 4.03438024e-07 5.15928232e-19 9.98821391e-03
 0.00000000e+00 0.00000000e+00 0.00000000e+00 4.67766186e-15
 0.00000000e+00 0.00000000e+00 0.00000000e+00 0.00000000e+00
 0.00000000e+00 0.00000000e+00 0.00000000e+00 0.00000000e+00
 0.00000000e+00 0.00000000e+00 0.00000000e+00 0.00000000e+00
 0.00000000e+00 0.00000000e+00 0.00000000e+00 0.00000000e+00
 0.00000000e+00 0.00000000e+00 4.03438024e-07 4.67766186e-15
 0.00000000e+00 0.00000000e+00 0.00000000e+00 9.99640791e-03]","[[9.98860591e-06 5.15928232e-22 4.03438024e-10]
 [5.15928232e-22 9.98821391e-06 4.67766186e-18]
 [4.03438024e-10 4.67766186e-18 9.99640791e-06]]",[ 6.73340925e-12  9.17963805e-24 -9.42401712e-12],1.5867216846766495e-13,-2.1006056682793113e-13
1786950032.187575,-6.723595281118702e-12,-9.089539066240639e-24,9.411138535142527e-12,"[9.98830705e-03 5.24005148e-19 0.00000000e+00 0.00000000e+00
 0.00000000e+00 4.03879434e-07 5.24005148e-19 9.98791462e-03
 0.00000000e+00 0.00000000e+00 0.00000000e+00 4.77279769e-15
 0.00000000e+00 0.00000000e+00 0.00000000e+00 0.00000000e+00
 0.00000000e+00 0.00000000e+00 0.00000000e+00 0.00000000e+00
 0.00000000e+00 0.00000000e+00 0.00000000e+00 0.00000000e+00
 0.00000000e+00 0.00000000e+00 0.00000000e+00 0.00000000e+00
 0.00000000e+00 0.00000000e+00 4.03879434e-07 4.77279769e-15
 0.00000000e+00 0.00000000e+00 0.00000000e+00 9.99611759e-03]","[[9.98830705e-06 5.24005148e-22 4.03879434e-10]
 [5.24005148e-22 9.98791462e-06 4.77279769e-18]
 [4.03879434e-10 4.77279769e-18 9.99611759e-06]]",[ 6.72366244e-12  9.08958494e-24 -9.41113854e-12],1.5866560670478385e-13,-2.1005162463539294e-13
1786950032.239996,-6.7171577797532144e-12,-9.030140608637045e-24,9.403144929365226e-12,"[9.98810782e-03 5.29309250e-19 0.00000000e+00 0.00000000e+00
 0.00000000e+00 4.04167694e-07 5.29309250e-19 9.98771511e-03
 0.00000000e+00 0.00000000e+00 0.00000000e+00 4.83561239e-15
 0.00000000e+00 0.00000000e+00 0.00000000e+00 0.00000000e+00
 0.00000000e+00 0.00000000e+00 0.00000000e+00 0.00000000e+00
 0.00000000e+00 0.00000000e+00 0.00000000e+00 0.00000000e+00
 0.00000000e+00 0.00000000e+00 0.00000000e+00 0.00000000e+00
 0.00000000e+00 0.00000000e+00 4.04167694e-07 4.83561239e-15
 0.00000000e+00 0.00000000e+00 0.00000000e+00 9.99592393e-03]","[[9.98810782e-06 5.29309250e-22 4.04167694e-10]
 [5.29309250e-22 9.98771511e-06 4.83561239e-18]
 [4.04167694e-10 4.83561239e-18 9.99592393e-06]]",[ 6.71722487e-12  9.03018533e-24 -9.40314493e-12],1.5865847722133482e-13,-2.1004160180224735e-13
1786950032.2869678,-6.707412551101542e-12,-8.940304227513279e-24,9.390266342279574e-12,"[9.98780904e-03 5.37839926e-19 0.00000000e+00 0.00000000e+00
 0.00000000e+00 4.04659167e-07 5.37839926e-19 9.98741586e-03
 0.00000000e+00 0.00000000e+00 0.00000000e+00 4.93071037e-15
 0.00000000e+00 0.00000000e+00 0.00000000e+00 0.00000000e+00
 0.00000000e+00 0.00000000e+00 0.00000000e+00 0.00000000e+00
 0.00000000e+00 0.00000000e+00 0.00000000e+00 0.00000000e+00
 0.00000000e+00 0.00000000e+00 0.00000000e+00 0.00000000e+00
 0.00000000e+00 0.00000000e+00 4.04659167e-07 4.93071037e-15
 0.00000000e+00 0.00000000e+00 0.00000000e+00 9.99563466e-03]","[[9.98780904e-06 5.37839926e-22 4.04659167e-10]
 [5.37839926e-22 9.98741586e-06 4.93071037e-18]
 [4.04659167e-10 4.93071037e-18 9.99563466e-06]]",[ 6.70747954e-12  8.94034722e-24 -9.39026634e-12],1.5862038130466506e-13,-2.0998668495318905e-13
1786950032.340575,-6.7006064026246445e-12,-8.877579649653028e-24,9.381828647292423e-12,"[9.98760987e-03 5.43635507e-19 0.00000000e+00 0.00000000e+00
 0.00000000e+00 4.04985159e-07 5.43635507e-19 9.98721636e-03
 0.00000000e+00 0.00000000e+00 0.00000000e+00 4.99719212e-15
 0.00000000e+00 0.00000000e+00 0.00000000e+00 0.00000000e+00
 0.00000000e+00 0.00000000e+00 0.00000000e+00 0.00000000e+00
 0.00000000e+00 0.00000000e+00 0.00000000e+00 0.00000000e+00
 0.00000000e+00 0.00000000e+00 0.00000000e+00 0.00000000e+00
 0.00000000e+00 0.00000000e+00 4.04985159e-07 4.99719212e-15
 0.00000000e+00 0.00000000e+00 0.00000000e+00 9.99544179e-03]","[[9.98760987e-06 5.43635507e-22 4.04985159e-10]
 [5.43635507e-22 9.98721636e-06 4.99719212e-18]
 [4.04985159e-10 4.99719212e-18 9.99544179e-06]]",[ 6.70067332e-12  8.87762143e-24 -9.38182865e-12],1.5860288638665004e-13,-2.099635687019101e-13
1786950032.393805,-6.690738372454279e-12,-8.78679868308916e-24,9.369394149416621e-12,"[9.98731110e-03 5.52031443e-19 0.00000000e+00 0.00000000e+00
 0.00000000e+00 4.05456758e-07 5.52031443e-19 9.98691714e-03
 0.00000000e+00 0.00000000e+00 0.00000000e+00 5.09350452e-15
 0.00000000e+00 0.00000000e+00 0.00000000e+00 0.00000000e+00
 0.00000000e+00 0.00000000e+00 0.00000000e+00 0.00000000e+00
 0.00000000e+00 0.00000000e+00 0.00000000e+00 0.00000000e+00
 0.00000000e+00 0.00000000e+00 0.00000000e+00 0.00000000e+00
 0.00000000e+00 0.00000000e+00 4.05456758e-07 5.09350452e-15
 0.00000000e+00 0.00000000e+00 0.00000000e+00 9.99515214e-03]","[[9.98731110e-06 5.52031443e-22 4.05456758e-10]
 [5.52031443e-22 9.98691714e-06 5.09350452e-18]
 [4.05456758e-10 5.09350452e-18 9.99515214e-06]]",[ 6.69080519e-12  8.78683872e-24 -9.36939415e-12],1.5855920939197306e-13,-2.0990200004651802e-13
1786950032.4308403,-6.6845732411317255e-12,-8.730219226557408e-24,9.36140054363932e-12,"[9.98711191e-03 5.57220692e-19 0.00000000e+00 0.00000000e+00
 0.00000000e+00 4.05744947e-07 5.57220692e-19 9.98671767e-03
 0.00000000e+00 0.00000000e+00 0.00000000e+00 5.15355801e-15
 0.00000000e+00 0.00000000e+00 0.00000000e+00 0.00000000e+00
 0.00000000e+00 0.00000000e+00 0.00000000e+00 0.00000000e+00
 0.00000000e+00 0.00000000e+00 0.00000000e+00 0.00000000e+00
 0.00000000e+00 0.00000000e+00 0.00000000e+00 0.00000000e+00
 0.00000000e+00 0.00000000e+00 4.05744947e-07 5.15355801e-15
 0.00000000e+00 0.00000000e+00 0.00000000e+00 9.99495852e-03]","[[9.98711191e-06 5.57220692e-22 4.05744947e-10]
 [5.57220692e-22 9.98671767e-06 5.15355801e-18]
 [4.05744947e-10 5.15355801e-18 9.99495852e-06]]",[ 6.68464000e-12  8.73025817e-24 -9.36140054e-12],1.585213641206706e-13,-2.098473988071166e-13
1786950032.4813983,-6.67502683822305e-12,-8.642648611077507e-24,9.348966045763518e-12,"[9.98681313e-03 5.65069865e-19 0.00000000e+00 0.00000000e+00
 0.00000000e+00 4.06171221e-07 5.65069865e-19 9.98641847e-03
 0.00000000e+00 0.00000000e+00 0.00000000e+00 5.24662676e-15
 0.00000000e+00 0.00000000e+00 0.00000000e+00 0.00000000e+00
 0.00000000e+00 0.00000000e+00 0.00000000e+00 0.00000000e+00
 0.00000000e+00 0.00000000e+00 0.00000000e+00 0.00000000e+00
 0.00000000e+00 0.00000000e+00 0.00000000e+00 0.00000000e+00
 0.00000000e+00 0.00000000e+00 4.06171221e-07 5.24662676e-15
 0.00000000e+00 0.00000000e+00 0.00000000e+00 9.99466798e-03]","[[9.98681313e-06 5.65069865e-22 4.06171221e-10]
 [5.65069865e-22 9.98641847e-06 5.24662676e-18]
 [4.06171221e-10 5.24662676e-18 9.99466798e-06]]",[ 6.67509350e-12  8.64268587e-24 -9.34896605e-12],1.5838754956608318e-13,-2.0965718916556018e-13
1786950032.531761,-6.665191451284201e-12,-8.552496679325209e-24,9.336087458677866e-12,"[9.98651441e-03 5.73483964e-19 0.00000000e+00 0.00000000e+00
 0.00000000e+00 4.06647083e-07 5.73483964e-19 9.98611929e-03
 0.00000000e+00 0.00000000e+00 0.00000000e+00 5.34254844e-15
 0.00000000e+00 0.00000000e+00 0.00000000e+00 0.00000000e+00
 0.00000000e+00 0.00000000e+00 0.00000000e+00 0.00000000e+00
 0.00000000e+00 0.00000000e+00 0.00000000e+00 0.00000000e+00
 0.00000000e+00 0.00000000e+00 0.00000000e+00 0.00000000e+00
 0.00000000e+00 0.00000000e+00 4.06647083e-07 5.34254844e-15
 0.00000000e+00 0.00000000e+00 0.00000000e+00 9.99437847e-03]","[[9.98651441e-06 5.73483964e-22 4.06647083e-10]
 [5.73483964e-22 9.98611929e-06 5.34254844e-18]
 [4.06647083e-10 5.34254844e-18 9.99437847e-06]]",[ 6.66525801e-12  8.55253221e-24 -9.33608746e-12],1.5826579517628024e-13,-2.0948633141167042e-13
1786950032.5836082,-6.661854649064792e-12,-8.521930138760243e-24,9.331646566579366e-12,"[9.98641484e-03 5.76295068e-19 0.00000000e+00 0.00000000e+00
 0.00000000e+00 4.06803777e-07 5.76295068e-19 9.98601957e-03
 0.00000000e+00 0.00000000e+00 0.00000000e+00 5.37512185e-15
 0.00000000e+00 0.00000000e+00 0.00000000e+00 0.00000000e+00
 0.00000000e+00 0.00000000e+00 0.00000000e+00 0.00000000e+00
 0.00000000e+00 0.00000000e+00 0.00000000e+00 0.00000000e+00
 0.00000000e+00 0.00000000e+00 0.00000000e+00 0.00000000e+00
 0.00000000e+00 0.00000000e+00 4.06803777e-07 5.37512185e-15
 0.00000000e+00 0.00000000e+00 0.00000000e+00 9.99428193e-03]","[[9.98641484e-06 5.76295068e-22 4.06803777e-10]
 [5.76295068e-22 9.98601957e-06 5.37512185e-18]
 [4.06803777e-10 5.37512185e-18 9.99428193e-06]]",[ 6.66192117e-12  8.52196508e-24 -9.33164657e-12],1.581825827140056e-13,-2.093717263366734e-13
1786950032.6365092,-6.649161769207466e-12,-8.40590207096456e-24,9.315215265814913e-12,"[9.98601666e-03 5.87942043e-19 0.00000000e+00 0.00000000e+00
 0.00000000e+00 4.07504728e-07 5.87942043e-19 9.98562071e-03
 0.00000000e+00 0.00000000e+00 0.00000000e+00 5.49878941e-15
 0.00000000e+00 0.00000000e+00 0.00000000e+00 0.00000000e+00
 0.00000000e+00 0.00000000e+00 0.00000000e+00 0.00000000e+00
 0.00000000e+00 0.00000000e+00 0.00000000e+00 0.00000000e+00
 0.00000000e+00 0.00000000e+00 0.00000000e+00 0.00000000e+00
 0.00000000e+00 0.00000000e+00 4.07504728e-07 5.49878941e-15
 0.00000000e+00 0.00000000e+00 0.00000000e+00 9.99389730e-03]","[[9.98601666e-06 5.87942043e-22 4.07504728e-10]
 [5.87942043e-22 9.98562071e-06 5.49878941e-18]
 [4.07504728e-10 5.49878941e-18 9.99389730e-06]]",[ 6.64922816e-12  8.40593479e-24 -9.31521527e-12],1.579129272934603e-13,-2.0898793260574293e-13
1786950032.682622,-6.64232880470603e-12,-8.343437980794024e-24,9.306333481617912e-12,"[9.98581756e-03 5.93791889e-19 0.00000000e+00 0.00000000e+00
 0.00000000e+00 4.07836437e-07 5.93791889e-19 9.98542128e-03
 0.00000000e+00 0.00000000e+00 0.00000000e+00 5.56548489e-15
 0.00000000e+00 0.00000000e+00 0.00000000e+00 0.00000000e+00
 0.00000000e+00 0.00000000e+00 0.00000000e+00 0.00000000e+00
 0.00000000e+00 0.00000000e+00 0.00000000e+00 0.00000000e+00
 0.00000000e+00 0.00000000e+00 0.00000000e+00 0.00000000e+00
 0.00000000e+00 0.00000000e+00 4.07836437e-07 5.56548489e-15
 0.00000000e+00 0.00000000e+00 0.00000000e+00 9.99370462e-03]","[[9.98581756e-06 5.93791889e-22 4.07836437e-10]
 [5.93791889e-22 9.98542128e-06 5.56548489e-18]
 [4.07836437e-10 5.56548489e-18 9.99370462e-06]]",[ 6.64239513e-12  8.34346950e-24 -9.30633348e-12],1.5781949574308627e-13,-2.0885597418207062e-13
1786950032.7307508,-6.635676241707153e-12,-8.282711846210405e-24,9.297895786630761e-12,"[9.98561845e-03 5.97520569e-19 0.00000000e+00 0.00000000e+00
 0.00000000e+00 4.08154345e-07 5.97520569e-19 9.98522187e-03
 0.00000000e+00 0.00000000e+00 0.00000000e+00 5.58329532e-15
 0.00000000e+00 0.00000000e+00 0.00000000e+00 0.00000000e+00
 0.00000000e+00 0.00000000e+00 0.00000000e+00 0.00000000e+00
 0.00000000e+00 0.00000000e+00 0.00000000e+00 0.00000000e+00
 0.00000000e+00 0.00000000e+00 0.00000000e+00 0.00000000e+00
 0.00000000e+00 0.00000000e+00 4.08154345e-07 5.58329532e-15
 0.00000000e+00 0.00000000e+00 0.00000000e+00 9.99351166e-03]","[[9.98561845e-06 5.97520569e-22 4.08154345e-10]
 [5.97520569e-22 9.98522187e-06 5.58329532e-18]
 [4.08154345e-10 5.58329532e-18 9.99351166e-06]]",[ 6.63574250e-12  8.28274264e-24 -9.29789579e-12],-4.4753594831398306e-14,-4.697461507869677e-21
1786950032.7831073,-6.625174360362496e-12,-8.186865372087688e-24,9.284573110335259e-12,"[9.98531992e-03 6.02184591e-19 0.00000000e+00 0.00000000e+00
 0.00000000e+00 4.08743684e-07 6.02184591e-19 9.98492277e-03
 0.00000000e+00 0.00000000e+00 0.00000000e+00 5.56250027e-15
 0.00000000e+00 0.00000000e+00 0.00000000e+00 0.00000000e+00
 0.00000000e+00 0.00000000e+00 0.00000000e+00 0.00000000e+00
 0.00000000e+00 0.00000000e+00 0.00000000e+00 0.00000000e+00
 0.00000000e+00 0.00000000e+00 0.00000000e+00 0.00000000e+00
 0.00000000e+00 0.00000000e+00 4.08743684e-07 5.56250027e-15
 0.00000000e+00 0.00000000e+00 0.00000000e+00 9.99322453e-03]","[[9.98531992e-06 6.02184591e-22 4.08743684e-10]
 [6.02184591e-22 9.98492277e-06 5.56250027e-18]
 [4.08743684e-10 5.56250027e-18 9.99322453e-06]]",[ 6.62524051e-12  8.18689548e-24 -9.28457311e-12],-3.1381636623730517e-14,-1.3476980444709415e-20
1786950032.839451,-6.626125435872854e-12,-8.196863694710895e-24,9.284573110335259e-12,"[9.98512075e-03 6.03943579e-19 0.00000000e+00 0.00000000e+00
 0.00000000e+00 4.08974585e-07 6.03943579e-19 9.98472337e-03
 0.00000000e+00 0.00000000e+00 0.00000000e+00 5.55145576e-15
 0.00000000e+00 0.00000000e+00 0.00000000e+00 0.00000000e+00
 0.00000000e+00 0.00000000e+00 0.00000000e+00 0.00000000e+00
 0.00000000e+00 0.00000000e+00 0.00000000e+00 0.00000000e+00
 0.00000000e+00 0.00000000e+00 0.00000000e+00 0.00000000e+00
 0.00000000e+00 0.00000000e+00 4.08974585e-07 5.55145576e-15
 0.00000000e+00 0.00000000e+00 0.00000000e+00 9.99302982e-03]","[[9.98512075e-06 6.03943579e-22 4.08974585e-10]
 [6.03943579e-22 9.98472337e-06 5.55145576e-18]
 [4.08974585e-10 5.55145576e-18 9.99302982e-06]]",[ 6.62619160e-12  8.19689400e-24 -9.28457311e-12],-3.1378110738178896e-14,-2.999877726019567e-20
1786950032.8837411,-6.6278703146497e-12,-8.214815609400782e-24,9.284573110335259e-12,"[9.98482214e-03 6.07629790e-19 0.00000000e+00 0.00000000e+00
 0.00000000e+00 4.09451556e-07 6.07629790e-19 9.98442430e-03
 0.00000000e+00 0.00000000e+00 0.00000000e+00 5.53171334e-15
 0.00000000e+00 0.00000000e+00 0.00000000e+00 0.00000000e+00
 0.00000000e+00 0.00000000e+00 0.00000000e+00 0.00000000e+00
 0.00000000e+00 0.00000000e+00 0.00000000e+00 0.00000000e+00
 0.00000000e+00 0.00000000e+00 0.00000000e+00 0.00000000e+00
 0.00000000e+00 0.00000000e+00 4.09451556e-07 5.53171334e-15
 0.00000000e+00 0.00000000e+00 0.00000000e+00 9.99274044e-03]","[[9.98482214e-06 6.07629790e-22 4.09451556e-10]
 [6.07629790e-22 9.98442430e-06 5.53171334e-18]
 [4.09451556e-10 5.53171334e-18 9.99274044e-06]]",[ 6.62793649e-12  8.21484627e-24 -9.28457311e-12],-3.137454517597608e-14,-3.4086721958101395e-20
1786950032.933636,-6.629404494428224e-12,-8.230810632314573e-24,9.284573110335259e-12,"[9.98452348e-03 6.10793725e-19 0.00000000e+00 0.00000000e+00
 0.00000000e+00 4.09861166e-07 6.10793725e-19 9.98412524e-03
 0.00000000e+00 0.00000000e+00 0.00000000e+00 5.51407673e-15
 0.00000000e+00 0.00000000e+00 0.00000000e+00 0.00000000e+00
 0.00000000e+00 0.00000000e+00 0.00000000e+00 0.00000000e+00
 0.00000000e+00 0.00000000e+00 0.00000000e+00 0.00000000e+00
 0.00000000e+00 0.00000000e+00 0.00000000e+00 0.00000000e+00
 0.00000000e+00 0.00000000e+00 4.09861166e-07 5.51407673e-15
 0.00000000e+00 0.00000000e+00 0.00000000e+00 9.99244970e-03]","[[9.98452348e-06 6.10793725e-22 4.09861166e-10]
 [6.10793725e-22 9.98412524e-06 5.51407673e-18]
 [4.09861166e-10 5.51407673e-18 9.99244970e-06]]",[ 6.62947068e-12  8.23084162e-24 -9.28457311e-12],-3.137141485441411e-14,-5.422619922841829e-21
1786950032.9876041,-6.630257860268789e-12,-8.239317216550538e-24,9.284573110335259e-12,"[9.98442411e-03 6.13391739e-19 0.00000000e+00 0.00000000e+00
 0.00000000e+00 4.10184339e-07 6.13391739e-19 9.98402556e-03
 0.00000000e+00 0.00000000e+00 0.00000000e+00 5.50478225e-15
 0.00000000e+00 0.00000000e+00 0.00000000e+00 0.00000000e+00
 0.00000000e+00 0.00000000e+00 0.00000000e+00 0.00000000e+00
 0.00000000e+00 0.00000000e+00 0.00000000e+00 0.00000000e+00
 0.00000000e+00 0.00000000e+00 0.00000000e+00 0.00000000e+00
 0.00000000e+00 0.00000000e+00 4.10184339e-07 5.50478225e-15
 0.00000000e+00 0.00000000e+00 0.00000000e+00 9.99235658e-03]","[[9.98442411e-06 6.13391739e-22 4.10184339e-10]
 [6.13391739e-22 9.98402556e-06 5.50478225e-18]
 [4.10184339e-10 5.50478225e-18 9.99235658e-06]]",[ 6.63032406e-12  8.23934837e-24 -9.28457311e-12],-3.1370719414724865e-14,9.246496903712803e-21
1786950033.0318508,-6.632230771304332e-12,-8.259968037540919e-24,9.284573110335259e-12,"[9.98402589e-03 6.17239895e-19 0.00000000e+00 0.00000000e+00
 0.00000000e+00 4.10686334e-07 6.17239895e-19 9.98362685e-03
 0.00000000e+00 0.00000000e+00 0.00000000e+00 5.48198957e-15
 0.00000000e+00 0.00000000e+00 0.00000000e+00 0.00000000e+00
 0.00000000e+00 0.00000000e+00 0.00000000e+00 0.00000000e+00
 0.00000000e+00 0.00000000e+00 0.00000000e+00 0.00000000e+00
 0.00000000e+00 0.00000000e+00 0.00000000e+00 0.00000000e+00
 0.00000000e+00 0.00000000e+00 4.10686334e-07 5.48198957e-15
 0.00000000e+00 0.00000000e+00 0.00000000e+00 9.99196807e-03]","[[9.98412540e-06 6.15913042e-22 4.10515049e-10]
 [6.15913042e-22 9.98372653e-06 5.48885923e-18]
 [4.10515049e-10 5.48885923e-18 9.99206426e-06]]",[ 6.63168649e-12  8.25374820e-24 -9.28457311e-12],-3.137100892049843e-14,-7.317364539037778e-21
1786950033.0866957,-6.63292178667054e-12,-8.26696692831718e-24,9.284573110335259e-12,"[9.98392643e-03 6.18941867e-19 0.00000000e+00 0.00000000e+00
 0.00000000e+00 4.10902882e-07 6.18941867e-19 9.98352718e-03
 0.00000000e+00 0.00000000e+00 0.00000000e+00 5.47431542e-15
 0.00000000e+00 0.00000000e+00 0.00000000e+00 0.00000000e+00
 0.00000000e+00 0.00000000e+00 0.00000000e+00 0.00000000e+00
 0.00000000e+00 0.00000000e+00 0.00000000e+00 0.00000000e+00
 0.00000000e+00 0.00000000e+00 0.00000000e+00 0.00000000e+00
 0.00000000e+00 0.00000000e+00 4.10902882e-07 5.47431542e-15
 0.00000000e+00 0.00000000e+00 0.00000000e+00 9.99187280e-03]","[[9.98392643e-06 6.18941867e-22 4.10902882e-10]
 [6.18941867e-22 9.98352718e-06 5.47431542e-18]
 [4.10902882e-10 5.47431542e-18 9.99187280e-06]]",[ 6.63298801e-12  8.26699864e-24 -9.28457311e-12],-3.137329274461468e-14,-4.969311191795166e-20
1786950033.144178,-6.633940985136165e-12,-8.277595773379309e-24,9.284573110335259e-12,"[9.98372733e-03 6.20790947e-19 0.00000000e+00 0.00000000e+00
 0.00000000e+00 4.11147138e-07 6.20790947e-19 9.98332784e-03
 0.00000000e+00 0.00000000e+00 0.00000000e+00 5.46259136e-15
 0.00000000e+00 0.00000000e+00 0.00000000e+00 0.00000000e+00
 0.00000000e+00 0.00000000e+00 0.00000000e+00 0.00000000e+00
 0.00000000e+00 0.00000000e+00 0.00000000e+00 0.00000000e+00
 0.00000000e+00 0.00000000e+00 0.00000000e+00 0.00000000e+00
 0.00000000e+00 0.00000000e+00 4.11147138e-07 5.46259136e-15
 0.00000000e+00 0.00000000e+00 0.00000000e+00 9.99167842e-03]","[[9.98372733e-06 6.20790947e-22 4.11147138e-10]
 [6.20790947e-22 9.98332784e-06 5.46259136e-18]
 [4.11147138e-10 5.46259136e-18 9.99167842e-06]]",[ 6.63400721e-12  8.27762770e-24 -9.28457311e-12],-3.137674998355631e-14,-3.7123399769248205e-23
1786950033.1839342,-6.6363571261501936e-12,-8.301194118380135e-24,9.284573110335259e-12,"[9.98352950e-03 6.33741939e-19 0.00000000e+00 0.00000000e+00
 0.00000000e+00 4.12685828e-07 6.33741939e-19 9.98312851e-03
 0.00000000e+00 0.00000000e+00 0.00000000e+00 5.43691937e-15
 0.00000000e+00 0.00000000e+00 0.00000000e+00 0.00000000e+00
 0.00000000e+00 0.00000000e+00 0.00000000e+00 0.00000000e+00
 0.00000000e+00 0.00000000e+00 0.00000000e+00 0.00000000e+00
 0.00000000e+00 0.00000000e+00 0.00000000e+00 0.00000000e+00
 0.00000000e+00 0.00000000e+00 4.12685828e-07 5.43691937e-15
 0.00000000e+00 0.00000000e+00 0.00000000e+00 9.99151034e-03]","[[9.98352950e-06 6.33741939e-22 4.12685828e-10]
 [6.33741939e-22 9.98312851e-06 5.43691937e-18]
 [4.12685828e-10 5.43691937e-18 9.99151034e-06]]",[ 6.63642338e-12  8.30122652e-24 -9.28457311e-12],-3.137759582129818e-14,2.2902476238147153e-20
1786950033.2326193,-6.637965029521574e-12,-8.317870921283011e-24,9.284573110335259e-12,"[9.98323091e-03 6.38465741e-19 0.00000000e+00 0.00000000e+00
 0.00000000e+00 4.13092247e-07 6.38465741e-19 9.98282953e-03
 0.00000000e+00 0.00000000e+00 0.00000000e+00 5.45786021e-15
 0.00000000e+00 0.00000000e+00 0.00000000e+00 0.00000000e+00
 0.00000000e+00 0.00000000e+00 0.00000000e+00 0.00000000e+00
 0.00000000e+00 0.00000000e+00 0.00000000e+00 0.00000000e+00
 0.00000000e+00 0.00000000e+00 0.00000000e+00 0.00000000e+00
 0.00000000e+00 0.00000000e+00 4.13092247e-07 5.45786021e-15
 0.00000000e+00 0.00000000e+00 0.00000000e+00 9.99121962e-03]","[[9.98323091e-06 6.38465741e-22 4.13092247e-10]
 [6.38465741e-22 9.98282953e-06 5.45786021e-18]
 [4.13092247e-10 5.45786021e-18 9.99121962e-06]]",[ 6.63803129e-12  8.31790329e-24 -9.28457311e-12],1.5779211114794336e-13,-1.891272590800629e-13
1786950033.282974,-6.760444191814969e-12,-9.456205222081547e-24,9.455991545337383e-12,"[9.98303192e-03 6.44304626e-19 0.00000000e+00 0.00000000e+00
 0.00000000e+00 4.13421382e-07 6.44304626e-19 9.98263022e-03
 0.00000000e+00 0.00000000e+00 0.00000000e+00 5.52416590e-15
 0.00000000e+00 0.00000000e+00 0.00000000e+00 0.00000000e+00
 0.00000000e+00 0.00000000e+00 0.00000000e+00 0.00000000e+00
 0.00000000e+00 0.00000000e+00 0.00000000e+00 0.00000000e+00
 0.00000000e+00 0.00000000e+00 0.00000000e+00 0.00000000e+00
 0.00000000e+00 0.00000000e+00 4.13421382e-07 5.52416590e-15
 0.00000000e+00 0.00000000e+00 0.00000000e+00 9.99102699e-03]","[[9.98303192e-06 6.44304626e-22 4.13421382e-10]
 [6.44304626e-22 9.98263022e-06 5.52416590e-18]
 [4.13421382e-10 5.52416590e-18 9.99102699e-06]]",[ 6.76051168e-12  9.45624739e-24 -9.45599155e-12],1.5790832793675863e-13,-2.0898004967001995e-13
1786950033.3327675,-6.961619958861773e-12,-1.1373801342113424e-23,9.738876372011873e-12,"[9.98273336e-03 6.51946289e-19 0.00000000e+00 0.00000000e+00
 0.00000000e+00 4.13821566e-07 6.51946289e-19 9.98233127e-03
 0.00000000e+00 0.00000000e+00 0.00000000e+00 5.61392057e-15
 0.00000000e+00 0.00000000e+00 0.00000000e+00 0.00000000e+00
 0.00000000e+00 0.00000000e+00 0.00000000e+00 0.00000000e+00
 0.00000000e+00 0.00000000e+00 0.00000000e+00 0.00000000e+00
 0.00000000e+00 0.00000000e+00 0.00000000e+00 0.00000000e+00
 0.00000000e+00 0.00000000e+00 4.13821566e-07 5.61392057e-15
 0.00000000e+00 0.00000000e+00 0.00000000e+00 9.99073617e-03]","[[9.98273336e-06 6.51946289e-22 4.13821566e-10]
 [6.51946289e-22 9.98233127e-06 5.61392057e-18]
 [4.13821566e-10 5.61392057e-18 9.99073617e-06]]",[ 6.96168945e-12  1.13738602e-23 -9.73887637e-12],1.5801319042780348e-13,-2.0912788473535805e-13
1786950033.3858569,-6.955211567618199e-12,-1.1312638794110864e-23,9.730882766234572e-12,"[9.98253438e-03 6.57683891e-19 0.00000000e+00 0.00000000e+00
 0.00000000e+00 4.14140317e-07 6.57683891e-19 9.98213198e-03
 0.00000000e+00 0.00000000e+00 0.00000000e+00 5.67636049e-15
 0.00000000e+00 0.00000000e+00 0.00000000e+00 0.00000000e+00
 0.00000000e+00 0.00000000e+00 0.00000000e+00 0.00000000e+00
 0.00000000e+00 0.00000000e+00 0.00000000e+00 0.00000000e+00
 0.00000000e+00 0.00000000e+00 0.00000000e+00 0.00000000e+00
 0.00000000e+00 0.00000000e+00 4.14140317e-07 5.67636049e-15
 0.00000000e+00 0.00000000e+00 0.00000000e+00 9.99054335e-03]","[[9.98253438e-06 6.57683891e-22 4.14140317e-10]
 [6.57683891e-22 9.98213198e-06 5.67636049e-18]
 [4.14140317e-10 5.67636049e-18 9.99054335e-06]]",[ 6.95528099e-12  1.13126965e-23 -9.73088277e-12],1.58234522502008e-13,-2.0944182420976492e-13
1786950033.4338908,-6.945478594385672e-12,-1.1219825125888187e-23,9.71800417914892e-12,"[9.98223589e-03 6.66022566e-19 0.00000000e+00 0.00000000e+00
 0.00000000e+00 4.14584909e-07 6.66022566e-19 9.98183306e-03
 0.00000000e+00 0.00000000e+00 0.00000000e+00 5.77124841e-15
 0.00000000e+00 0.00000000e+00 0.00000000e+00 0.00000000e+00
 0.00000000e+00 0.00000000e+00 0.00000000e+00 0.00000000e+00
 0.00000000e+00 0.00000000e+00 0.00000000e+00 0.00000000e+00
 0.00000000e+00 0.00000000e+00 0.00000000e+00 0.00000000e+00
 0.00000000e+00 0.00000000e+00 4.14584909e-07 5.77124841e-15
 0.00000000e+00 0.00000000e+00 0.00000000e+00 9.99025346e-03]","[[9.98223589e-06 6.66022566e-22 4.14584909e-10]
 [6.66022566e-22 9.98183306e-06 5.77124841e-18]
 [4.14584909e-10 5.77124841e-18 9.99025346e-06]]",[ 6.94554792e-12  1.12198810e-23 -9.71800418e-12],1.5841002397447057e-13,-2.096889170439055e-13
1786950033.508361,-6.938346937027187e-12,-1.1151771383676756e-23,9.709122394951919e-12,"[9.98203698e-03 6.72468833e-19 0.00000000e+00 0.00000000e+00
 0.00000000e+00 4.14947223e-07 6.72468833e-19 9.98163379e-03
 0.00000000e+00 0.00000000e+00 0.00000000e+00 5.84091452e-15
 0.00000000e+00 0.00000000e+00 0.00000000e+00 0.00000000e+00
 0.00000000e+00 0.00000000e+00 0.00000000e+00 0.00000000e+00
 0.00000000e+00 0.00000000e+00 0.00000000e+00 0.00000000e+00
 0.00000000e+00 0.00000000e+00 0.00000000e+00 0.00000000e+00
 0.00000000e+00 0.00000000e+00 4.14947223e-07 5.84091452e-15
 0.00000000e+00 0.00000000e+00 0.00000000e+00 9.99006155e-03]","[[9.98203698e-06 6.72468833e-22 4.14947223e-10]
 [6.72468833e-22 9.98163379e-06 5.84091452e-18]
 [4.14947223e-10 5.84091452e-18 9.99006155e-06]]",[ 6.93841619e-12  1.11518260e-23 -9.70912239e-12],1.5849600430382057e-13,-2.0981043236088926e-13
1786950033.5344558,-6.932491491974843e-12,-1.1095538457283233e-23,9.701572878384468e-12,"[9.98193784e-03 6.79710475e-19 0.00000000e+00 0.00000000e+00
 0.00000000e+00 4.15453579e-07 6.79710475e-19 9.98153416e-03
 0.00000000e+00 0.00000000e+00 0.00000000e+00 5.89864328e-15
 0.00000000e+00 0.00000000e+00 0.00000000e+00 0.00000000e+00
 0.00000000e+00 0.00000000e+00 0.00000000e+00 0.00000000e+00
 0.00000000e+00 0.00000000e+00 0.00000000e+00 0.00000000e+00
 0.00000000e+00 0.00000000e+00 0.00000000e+00 0.00000000e+00
 0.00000000e+00 0.00000000e+00 4.15453579e-07 5.89864328e-15
 0.00000000e+00 0.00000000e+00 0.00000000e+00 9.98997220e-03]","[[9.98193784e-06 6.79710475e-22 4.15453579e-10]
 [6.79710475e-22 9.98153416e-06 5.89864328e-18]
 [4.15453579e-10 5.89864328e-18 9.98997220e-06]]",[ 6.93256069e-12  1.10955920e-23 -9.70157288e-12],1.5851266241167256e-13,-2.0983542219980662e-13
1786950033.6111765,-6.922334170783513e-12,-1.0998895671240585e-23,9.688250202088966e-12,"[9.98163944e-03 6.88788483e-19 0.00000000e+00 0.00000000e+00
 0.00000000e+00 4.15958175e-07 6.88788483e-19 9.98123528e-03
 0.00000000e+00 0.00000000e+00 0.00000000e+00 5.99773692e-15
 0.00000000e+00 0.00000000e+00 0.00000000e+00 0.00000000e+00
 0.00000000e+00 0.00000000e+00 0.00000000e+00 0.00000000e+00
 0.00000000e+00 0.00000000e+00 0.00000000e+00 0.00000000e+00
 0.00000000e+00 0.00000000e+00 0.00000000e+00 0.00000000e+00
 0.00000000e+00 0.00000000e+00 4.15958175e-07 5.99773692e-15
 0.00000000e+00 0.00000000e+00 0.00000000e+00 9.98968357e-03]","[[9.98163944e-06 6.88788483e-22 4.15958175e-10]
 [6.88788483e-22 9.98123528e-06 5.99773692e-18]
 [4.15958175e-10 5.99773692e-18 9.98968357e-06]]",[ 6.92240326e-12  1.09989474e-23 -9.68825020e-12],1.5857728304533866e-13,-2.099260683179585e-13
1786950033.6389012,-6.9158444743349265e-12,-1.0936640134770519e-23,9.679812507101815e-12,"[9.98154042e-03 6.97395875e-19 0.00000000e+00 0.00000000e+00
 0.00000000e+00 4.16582225e-07 6.97395875e-19 9.98113565e-03
 0.00000000e+00 0.00000000e+00 0.00000000e+00 6.06176902e-15
 0.00000000e+00 0.00000000e+00 0.00000000e+00 0.00000000e+00
 0.00000000e+00 0.00000000e+00 0.00000000e+00 0.00000000e+00
 0.00000000e+00 0.00000000e+00 0.00000000e+00 0.00000000e+00
 0.00000000e+00 0.00000000e+00 0.00000000e+00 0.00000000e+00
 0.00000000e+00 0.00000000e+00 4.16582225e-07 6.06176902e-15
 0.00000000e+00 0.00000000e+00 0.00000000e+00 9.98959662e-03]","[[9.98154042e-06 6.97395875e-22 4.16582225e-10]
 [6.97395875e-22 9.98113565e-06 6.06176902e-18]
 [4.16582225e-10 6.06176902e-18 9.98959662e-06]]",[ 6.91591350e-12  1.09366906e-23 -9.67981251e-12],1.5859488732098194e-13,-2.0994952031895834e-13
1786950033.6950362,-6.906693287066233e-12,-1.0849947411252485e-23,9.667822098435863e-12,"[9.98124194e-03 7.04984454e-19 0.00000000e+00 0.00000000e+00
 0.00000000e+00 4.16973157e-07 7.04984454e-19 9.98083679e-03
 0.00000000e+00 0.00000000e+00 0.00000000e+00 6.15077050e-15
 0.00000000e+00 0.00000000e+00 0.00000000e+00 0.00000000e+00
 0.00000000e+00 0.00000000e+00 0.00000000e+00 0.00000000e+00
 0.00000000e+00 0.00000000e+00 0.00000000e+00 0.00000000e+00
 0.00000000e+00 0.00000000e+00 0.00000000e+00 0.00000000e+00
 0.00000000e+00 0.00000000e+00 4.16973157e-07 6.15077050e-15
 0.00000000e+00 0.00000000e+00 0.00000000e+00 9.98930570e-03]","[[9.98124194e-06 7.04984454e-22 4.16973157e-10]
 [7.04984454e-22 9.98083679e-06 6.15077050e-18]
 [4.16973157e-10 6.15077050e-18 9.98930570e-06]]",[ 6.90676222e-12  1.08499962e-23 -9.66782210e-12],1.5862006286161734e-13,-2.0998511485053423e-13
1786950033.7310772,-6.9002797778584495e-12,-1.0789187250929122e-23,9.659384403448712e-12,"[9.98104310e-03 7.11433150e-19 0.00000000e+00 0.00000000e+00
 0.00000000e+00 4.17367875e-07 7.11433150e-19 9.98063756e-03
 0.00000000e+00 0.00000000e+00 0.00000000e+00 6.21323294e-15
 0.00000000e+00 0.00000000e+00 0.00000000e+00 0.00000000e+00
 0.00000000e+00 0.00000000e+00 0.00000000e+00 0.00000000e+00
 0.00000000e+00 0.00000000e+00 0.00000000e+00 0.00000000e+00
 0.00000000e+00 0.00000000e+00 0.00000000e+00 0.00000000e+00
 0.00000000e+00 0.00000000e+00 4.17367875e-07 6.21323294e-15
 0.00000000e+00 0.00000000e+00 0.00000000e+00 9.98911449e-03]","[[9.98104310e-06 7.11433150e-22 4.17367875e-10]
 [7.11433150e-22 9.98063756e-06 6.21323294e-18]
 [4.17367875e-10 6.21323294e-18 9.98911449e-06]]",[ 6.90034865e-12  1.07892349e-23 -9.65938440e-12],1.58632608812287e-13,-2.1000633315127826e-13
1786950033.7895162,-6.890388962080546e-12,-1.06955440192248e-23,9.64650581636306e-12,"[9.98074471e-03 7.19983881e-19 0.00000000e+00 0.00000000e+00
 0.00000000e+00 4.17828636e-07 7.19983881e-19 9.98033873e-03
 0.00000000e+00 0.00000000e+00 0.00000000e+00 6.30961067e-15
 0.00000000e+00 0.00000000e+00 0.00000000e+00 0.00000000e+00
 0.00000000e+00 0.00000000e+00 0.00000000e+00 0.00000000e+00
 0.00000000e+00 0.00000000e+00 0.00000000e+00 0.00000000e+00
 0.00000000e+00 0.00000000e+00 0.00000000e+00 0.00000000e+00
 0.00000000e+00 0.00000000e+00 4.17828636e-07 6.30961067e-15
 0.00000000e+00 0.00000000e+00 0.00000000e+00 9.98882501e-03]","[[9.98074471e-06 7.19983881e-22 4.17828636e-10]
 [7.19983881e-22 9.98033873e-06 6.30961067e-18]
 [4.17828636e-10 6.30961067e-18 9.98882501e-06]]",[ 6.89045773e-12  1.06955899e-23 -9.64650582e-12],1.5866305769776403e-13,-2.1004702071101682e-13
1786950033.8418262,-6.883626753009791e-12,-1.0631562298535906e-23,9.638068121375909e-12,"[9.98054582e-03 7.25874069e-19 0.00000000e+00 0.00000000e+00
 0.00000000e+00 4.18148693e-07 7.25874069e-19 9.98013952e-03
 0.00000000e+00 0.00000000e+00 0.00000000e+00 6.37553656e-15
 0.00000000e+00 0.00000000e+00 0.00000000e+00 0.00000000e+00
 0.00000000e+00 0.00000000e+00 0.00000000e+00 0.00000000e+00
 0.00000000e+00 0.00000000e+00 0.00000000e+00 0.00000000e+00
 0.00000000e+00 0.00000000e+00 0.00000000e+00 0.00000000e+00
 0.00000000e+00 0.00000000e+00 4.18148693e-07 6.37553656e-15
 0.00000000e+00 0.00000000e+00 0.00000000e+00 9.98863230e-03]","[[9.98054582e-06 7.25874069e-22 4.18148693e-10]
 [7.25874069e-22 9.98013952e-06 6.37553656e-18]
 [4.18148693e-10 6.37553656e-18 9.98863230e-06]]",[ 6.88369545e-12  1.06316070e-23 -9.63806812e-12],1.5866648179088884e-13,-2.1005328765974792e-13
1786950033.8926334,-6.874291894297727e-12,-1.0543483735682754e-23,9.625633623500107e-12,"[9.98024741e-03 7.33660536e-19 0.00000000e+00 0.00000000e+00
 0.00000000e+00 4.18553068e-07 7.33660536e-19 9.97984072e-03
 0.00000000e+00 0.00000000e+00 0.00000000e+00 6.46633786e-15
 0.00000000e+00 0.00000000e+00 0.00000000e+00 0.00000000e+00
 0.00000000e+00 0.00000000e+00 0.00000000e+00 0.00000000e+00
 0.00000000e+00 0.00000000e+00 0.00000000e+00 0.00000000e+00
 0.00000000e+00 0.00000000e+00 0.00000000e+00 0.00000000e+00
 0.00000000e+00 0.00000000e+00 4.18553068e-07 6.46633786e-15
 0.00000000e+00 0.00000000e+00 0.00000000e+00 9.98834172e-03]","[[9.98024741e-06 7.33660536e-22 4.18553068e-10]
 [7.33660536e-22 9.97984072e-06 6.46633786e-18]
 [4.18553068e-10 6.46633786e-18 9.98834172e-06]]",[ 6.87436050e-12  1.05435267e-23 -9.62563362e-12],1.58659579155481e-13,-2.10043852039657e-13
1786950033.9311047,-6.867689725735274e-12,-1.0481182465608235e-23,9.617195928512956e-12,"[9.98004852e-03 7.39407846e-19 0.00000000e+00 0.00000000e+00
 0.00000000e+00 4.18865277e-07 7.39407846e-19 9.97964153e-03
 0.00000000e+00 0.00000000e+00 0.00000000e+00 6.53065112e-15
 0.00000000e+00 0.00000000e+00 0.00000000e+00 0.00000000e+00
 0.00000000e+00 0.00000000e+00 0.00000000e+00 0.00000000e+00
 0.00000000e+00 0.00000000e+00 0.00000000e+00 0.00000000e+00
 0.00000000e+00 0.00000000e+00 0.00000000e+00 0.00000000e+00
 0.00000000e+00 0.00000000e+00 4.18865277e-07 6.53065112e-15
 0.00000000e+00 0.00000000e+00 0.00000000e+00 9.98814887e-03]","[[9.98004852e-06 7.39407846e-22 4.18865277e-10]
 [7.39407846e-22 9.97964153e-06 6.53065112e-18]
 [4.18865277e-10 6.53065112e-18 9.98814887e-06]]",[ 6.86775826e-12  1.04812243e-23 -9.61719593e-12],1.5864673827983464e-13,-2.1002352840772186e-13
1786950033.982166,-6.857862992467222e-12,-1.0388571787735185e-23,9.604317341427304e-12,"[9.97975020e-03 7.47908513e-19 0.00000000e+00 0.00000000e+00
 0.00000000e+00 4.19324347e-07 7.47908513e-19 9.97934276e-03
 0.00000000e+00 0.00000000e+00 0.00000000e+00 6.62634999e-15
 0.00000000e+00 0.00000000e+00 0.00000000e+00 0.00000000e+00
 0.00000000e+00 0.00000000e+00 0.00000000e+00 0.00000000e+00
 0.00000000e+00 0.00000000e+00 0.00000000e+00 0.00000000e+00
 0.00000000e+00 0.00000000e+00 0.00000000e+00 0.00000000e+00
 0.00000000e+00 0.00000000e+00 4.19324347e-07 6.62634999e-15
 0.00000000e+00 0.00000000e+00 0.00000000e+00 9.98785942e-03]","[[9.97975020e-06 7.47908513e-22 4.19324347e-10]
 [7.47908513e-22 9.97934276e-06 6.62634999e-18]
 [4.19324347e-10 6.62634999e-18 9.98785942e-06]]",[ 6.85793143e-12  1.03886118e-23 -9.60431734e-12],1.5863324439431443e-13,-2.1000675222701373e-13
1786950034.0317104,-6.851600755929499e-12,-1.0329673924935406e-23,9.596323735650003e-12,"[9.97955131e-03 7.53377955e-19 0.00000000e+00 0.00000000e+00
 0.00000000e+00 4.19622308e-07 7.53377955e-19 9.97914359e-03
 0.00000000e+00 0.00000000e+00 0.00000000e+00 6.68725308e-15
 0.00000000e+00 0.00000000e+00 0.00000000e+00 0.00000000e+00
 0.00000000e+00 0.00000000e+00 0.00000000e+00 0.00000000e+00
 0.00000000e+00 0.00000000e+00 0.00000000e+00 0.00000000e+00
 0.00000000e+00 0.00000000e+00 0.00000000e+00 0.00000000e+00
 0.00000000e+00 0.00000000e+00 4.19622308e-07 6.68725308e-15
 0.00000000e+00 0.00000000e+00 0.00000000e+00 9.98766630e-03]","[[9.97955131e-06 7.53377955e-22 4.19622308e-10]
 [7.53377955e-22 9.97914359e-06 6.68725308e-18]
 [4.19622308e-10 6.68725308e-18 9.98766630e-06]]",[ 6.85166913e-12  1.03297128e-23 -9.59632374e-12],1.5861167029638878e-13,-2.0997541135343496e-13
1786950034.0886862,-6.841919561897788e-12,-1.0238661829038571e-23,9.583889237774201e-12,"[9.97925300e-03 7.61667003e-19 0.00000000e+00 0.00000000e+00
 0.00000000e+00 4.20065554e-07 7.61667003e-19 9.97884485e-03
 0.00000000e+00 0.00000000e+00 0.00000000e+00 6.78147997e-15
 0.00000000e+00 0.00000000e+00 0.00000000e+00 0.00000000e+00
 0.00000000e+00 0.00000000e+00 0.00000000e+00 0.00000000e+00
 0.00000000e+00 0.00000000e+00 0.00000000e+00 0.00000000e+00
 0.00000000e+00 0.00000000e+00 0.00000000e+00 0.00000000e+00
 0.00000000e+00 0.00000000e+00 4.20065554e-07 6.78147997e-15
 0.00000000e+00 0.00000000e+00 0.00000000e+00 9.98737656e-03]","[[9.97925300e-06 7.61667003e-22 4.20065554e-10]
 [7.61667003e-22 9.97884485e-06 6.78147997e-18]
 [4.20065554e-10 6.78147997e-18 9.98737656e-06]]",[ 6.84198784e-12  1.02386990e-23 -9.58388924e-12],1.5856897584010295e-13,-2.099146630957536e-13
1786950034.1312866,-6.8322126214485436e-12,-1.0147524496009599e-23,9.5714547398984e-12,"[9.97895471e-03 7.69914606e-19 0.00000000e+00 0.00000000e+00
 0.00000000e+00 4.20503432e-07 7.69914606e-19 9.97854613e-03
 0.00000000e+00 0.00000000e+00 0.00000000e+00 6.87595174e-15
 0.00000000e+00 0.00000000e+00 0.00000000e+00 0.00000000e+00
 0.00000000e+00 0.00000000e+00 0.00000000e+00 0.00000000e+00
 0.00000000e+00 0.00000000e+00 0.00000000e+00 0.00000000e+00
 0.00000000e+00 0.00000000e+00 0.00000000e+00 0.00000000e+00
 0.00000000e+00 0.00000000e+00 4.20503432e-07 6.87595174e-15
 0.00000000e+00 0.00000000e+00 0.00000000e+00 9.98708673e-03]","[[9.97895471e-06 7.69914606e-22 4.20503432e-10]
 [7.69914606e-22 9.97854613e-06 6.87595174e-18]
 [4.20503432e-10 6.87595174e-18 9.98708673e-06]]",[ 6.83228080e-12  1.01475599e-23 -9.57145474e-12],1.5848023247491563e-13,-2.0979083505096606e-13
1786950034.1809433,-6.825497563961637e-12,-1.0084491556759939e-23,9.562572955701398e-12,"[9.97875609e-03 7.77815665e-19 0.00000000e+00 0.00000000e+00
 0.00000000e+00 4.21042775e-07 7.77815665e-19 9.97834699e-03
 0.00000000e+00 0.00000000e+00 0.00000000e+00 6.94135861e-15
 0.00000000e+00 0.00000000e+00 0.00000000e+00 0.00000000e+00
 0.00000000e+00 0.00000000e+00 0.00000000e+00 0.00000000e+00
 0.00000000e+00 0.00000000e+00 0.00000000e+00 0.00000000e+00
 0.00000000e+00 0.00000000e+00 0.00000000e+00 0.00000000e+00
 0.00000000e+00 0.00000000e+00 4.21042775e-07 6.94135861e-15
 0.00000000e+00 0.00000000e+00 0.00000000e+00 9.98689855e-03]","[[9.97875609e-06 7.77815665e-22 4.21042775e-10]
 [7.77815665e-22 9.97834699e-06 6.94135861e-18]
 [4.21042775e-10 6.94135861e-18 9.98689855e-06]]",[ 6.82556567e-12  1.00845258e-23 -9.56257296e-12],1.5842237221783501e-13,-2.0970511971507742e-13
1786950034.2361195,-6.8156369250030345e-12,-9.991459921898883e-24,9.549694368615746e-12,"[9.97855774e-03 7.89467264e-19 0.00000000e+00 0.00000000e+00
 0.00000000e+00 4.21843730e-07 7.89467264e-19 9.97814786e-03
 0.00000000e+00 0.00000000e+00 0.00000000e+00 7.03814786e-15
 0.00000000e+00 0.00000000e+00 0.00000000e+00 0.00000000e+00
 0.00000000e+00 0.00000000e+00 0.00000000e+00 0.00000000e+00
 0.00000000e+00 0.00000000e+00 0.00000000e+00 0.00000000e+00
 0.00000000e+00 0.00000000e+00 0.00000000e+00 0.00000000e+00
 0.00000000e+00 0.00000000e+00 4.21843730e-07 7.03814786e-15
 0.00000000e+00 0.00000000e+00 0.00000000e+00 9.98671569e-03]","[[9.97855774e-06 7.89467264e-22 4.21843730e-10]
 [7.89467264e-22 9.97814786e-06 7.03814786e-18]
 [4.21843730e-10 7.03814786e-18 9.98671569e-06]]",[ 6.81570493e-12  9.99149241e-24 -9.54969437e-12],1.5837967755770768e-13,-2.0964780244019827e-13
1786950034.281808,-6.809377887646538e-12,-9.932933070408118e-24,9.541700762838445e-12,"[9.97835893e-03 7.95156410e-19 0.00000000e+00 0.00000000e+00
 0.00000000e+00 4.22165733e-07 7.95156410e-19 9.97794873e-03
 0.00000000e+00 0.00000000e+00 0.00000000e+00 7.09900287e-15
 0.00000000e+00 0.00000000e+00 0.00000000e+00 0.00000000e+00
 0.00000000e+00 0.00000000e+00 0.00000000e+00 0.00000000e+00
 0.00000000e+00 0.00000000e+00 0.00000000e+00 0.00000000e+00
 0.00000000e+00 0.00000000e+00 0.00000000e+00 0.00000000e+00
 0.00000000e+00 0.00000000e+00 4.22165733e-07 7.09900287e-15
 0.00000000e+00 0.00000000e+00 0.00000000e+00 9.98652310e-03]","[[9.97835893e-06 7.95156410e-22 4.22165733e-10]
 [7.95156410e-22 9.97794873e-06 7.09900287e-18]
 [4.22165733e-10 7.09900287e-18 9.98652310e-06]]",[ 6.80944583e-12  9.93296445e-24 -9.54170076e-12],1.5833940288009423e-13,-2.095880008990257e-13
1786950034.3318963,-6.802592753198919e-12,-9.869440645322657e-24,9.532818978641444e-12,"[9.97816013e-03 8.01075506e-19 0.00000000e+00 0.00000000e+00
 0.00000000e+00 4.22488835e-07 8.01075506e-19 9.97774962e-03
 0.00000000e+00 0.00000000e+00 0.00000000e+00 7.16508157e-15
 0.00000000e+00 0.00000000e+00 0.00000000e+00 0.00000000e+00
 0.00000000e+00 0.00000000e+00 0.00000000e+00 0.00000000e+00
 0.00000000e+00 0.00000000e+00 0.00000000e+00 0.00000000e+00
 0.00000000e+00 0.00000000e+00 0.00000000e+00 0.00000000e+00
 0.00000000e+00 0.00000000e+00 4.22488835e-07 7.16508157e-15
 0.00000000e+00 0.00000000e+00 0.00000000e+00 9.98633055e-03]","[[9.97816013e-06 8.01075506e-22 4.22488835e-10]
 [8.01075506e-22 9.97774962e-06 7.16508157e-18]
 [4.22488835e-10 7.16508157e-18 9.98633055e-06]]",[ 6.80266063e-12  9.86947082e-24 -9.53281898e-12],1.582643085462779e-13,-2.0948601068762428e-13
1786950034.3817544,-6.792418703048575e-12,-9.774348981934825e-24,9.519496302345942e-12,"[9.97786196e-03 8.10139426e-19 0.00000000e+00 0.00000000e+00
 0.00000000e+00 4.22993880e-07 8.10139426e-19 9.97745096e-03
 0.00000000e+00 0.00000000e+00 0.00000000e+00 7.26415560e-15
 0.00000000e+00 0.00000000e+00 0.00000000e+00 0.00000000e+00
 0.00000000e+00 0.00000000e+00 0.00000000e+00 0.00000000e+00
 0.00000000e+00 0.00000000e+00 0.00000000e+00 0.00000000e+00
 0.00000000e+00 0.00000000e+00 0.00000000e+00 0.00000000e+00
 0.00000000e+00 0.00000000e+00 4.22993880e-07 7.26415560e-15
 0.00000000e+00 0.00000000e+00 0.00000000e+00 9.98604215e-03]","[[9.97786196e-06 8.10139426e-22 4.22993880e-10]
 [8.10139426e-22 9.97745096e-06 7.26415560e-18]
 [4.22993880e-10 7.26415560e-18 9.98604215e-06]]",[ 6.79248647e-12  9.77437736e-24 -9.51949630e-12],1.5815909519340375e-13,-2.09337207643431e-13
1786950034.432176,-6.7834706930131826e-12,-9.691053178995284e-24,9.50750589367999e-12,"[9.97756372e-03 8.17837882e-19 0.00000000e+00 0.00000000e+00
 0.00000000e+00 4.23407527e-07 8.17837882e-19 9.97715232e-03
 0.00000000e+00 0.00000000e+00 0.00000000e+00 7.35098111e-15
 0.00000000e+00 0.00000000e+00 0.00000000e+00 0.00000000e+00
 0.00000000e+00 0.00000000e+00 0.00000000e+00 0.00000000e+00
 0.00000000e+00 0.00000000e+00 0.00000000e+00 0.00000000e+00
 0.00000000e+00 0.00000000e+00 0.00000000e+00 0.00000000e+00
 0.00000000e+00 0.00000000e+00 4.23407527e-07 7.35098111e-15
 0.00000000e+00 0.00000000e+00 0.00000000e+00 9.98575191e-03]","[[9.97756372e-06 8.17837882e-22 4.23407527e-10]
 [8.17837882e-22 9.97715232e-06 7.35098111e-18]
 [4.23407527e-10 7.35098111e-18 9.98575191e-06]]",[ 6.78353837e-12  9.69107998e-24 -9.50750589e-12],1.5800873704289767e-13,-2.0912278389038842e-13
1786950034.4814239,-6.777140609000888e-12,-9.632116314832868e-24,9.49951228790269e-12,"[9.97736491e-03 8.23157705e-19 0.00000000e+00 0.00000000e+00
 0.00000000e+00 4.23686975e-07 8.23157705e-19 9.97695324e-03
 0.00000000e+00 0.00000000e+00 0.00000000e+00 7.41250900e-15
 0.00000000e+00 0.00000000e+00 0.00000000e+00 0.00000000e+00
 0.00000000e+00 0.00000000e+00 0.00000000e+00 0.00000000e+00
 0.00000000e+00 0.00000000e+00 0.00000000e+00 0.00000000e+00
 0.00000000e+00 0.00000000e+00 0.00000000e+00 0.00000000e+00
 0.00000000e+00 0.00000000e+00 4.23686975e-07 7.41250900e-15
 0.00000000e+00 0.00000000e+00 0.00000000e+00 9.98555850e-03]","[[9.97736491e-06 8.23157705e-22 4.23686975e-10]
 [8.23157705e-22 9.97695324e-06 7.41250900e-18]
 [4.23686975e-10 7.41250900e-18 9.98555850e-06]]",[ 6.77720822e-12  9.63214200e-24 -9.49951229e-12],1.5790333002944474e-13,-2.0897386290225227e-13
1786950034.5381842,-6.7706899233933984e-12,-9.572084214922437e-24,9.491518682125388e-12,"[9.97716612e-03 8.27034276e-19 0.00000000e+00 0.00000000e+00
 0.00000000e+00 4.23978397e-07 8.27034276e-19 9.97675416e-03
 0.00000000e+00 0.00000000e+00 0.00000000e+00 7.43744389e-15
 0.00000000e+00 0.00000000e+00 0.00000000e+00 0.00000000e+00
 0.00000000e+00 0.00000000e+00 0.00000000e+00 0.00000000e+00
 0.00000000e+00 0.00000000e+00 0.00000000e+00 0.00000000e+00
 0.00000000e+00 0.00000000e+00 0.00000000e+00 0.00000000e+00
 0.00000000e+00 0.00000000e+00 4.23978397e-07 7.43744389e-15
 0.00000000e+00 0.00000000e+00 0.00000000e+00 9.98536535e-03]","[[9.97716612e-06 8.27034276e-22 4.23978397e-10]
 [8.27034276e-22 9.97675416e-06 7.43744389e-18]
 [4.23978397e-10 7.43744389e-18 9.98536535e-06]]",[ 6.77075747e-12  9.57210913e-24 -9.49151868e-12],-3.1388970288273316e-14,-2.7268481152280077e-20
1786950034.5812297,-6.763437898988845e-12,-9.50511875168382e-24,9.481304630298837e-12,"[9.97686812e-03 8.31964502e-19 0.00000000e+00 0.00000000e+00
 0.00000000e+00 4.24594163e-07 8.31964502e-19 9.97645556e-03
 0.00000000e+00 0.00000000e+00 0.00000000e+00 7.41533192e-15
 0.00000000e+00 0.00000000e+00 0.00000000e+00 0.00000000e+00
 0.00000000e+00 0.00000000e+00 0.00000000e+00 0.00000000e+00
 0.00000000e+00 0.00000000e+00 0.00000000e+00 0.00000000e+00
 0.00000000e+00 0.00000000e+00 0.00000000e+00 0.00000000e+00
 0.00000000e+00 0.00000000e+00 4.24594163e-07 7.41533192e-15
 0.00000000e+00 0.00000000e+00 0.00000000e+00 9.98507926e-03]","[[9.97686812e-06 8.31964502e-22 4.24594163e-10]
 [8.31964502e-22 9.97645556e-06 7.41533192e-18]
 [4.24594163e-10 7.41533192e-18 9.98507926e-06]]",[ 6.76350537e-12  9.50514328e-24 -9.48130463e-12],-3.138051147516912e-14,7.16022604995874e-21
1786950034.6307013,-6.7627740688877975e-12,-9.500669581989334e-24,9.479084184249587e-12,"[9.97656987e-03 8.34601216e-19 0.00000000e+00 0.00000000e+00
 0.00000000e+00 4.24935160e-07 8.34601216e-19 9.97615698e-03
 0.00000000e+00 0.00000000e+00 0.00000000e+00 7.39891912e-15
 0.00000000e+00 0.00000000e+00 0.00000000e+00 0.00000000e+00
 0.00000000e+00 0.00000000e+00 0.00000000e+00 0.00000000e+00
 0.00000000e+00 0.00000000e+00 0.00000000e+00 0.00000000e+00
 0.00000000e+00 0.00000000e+00 0.00000000e+00 0.00000000e+00
 0.00000000e+00 0.00000000e+00 4.24935160e-07 7.39891912e-15
 0.00000000e+00 0.00000000e+00 0.00000000e+00 9.98478760e-03]","[[9.97656987e-06 8.34601216e-22 4.24935160e-10]
 [8.34601216e-22 9.97615698e-06 7.39891912e-18]
 [4.24935160e-10 7.39891912e-18 9.98478760e-06]]",[ 6.76284153e-12  9.50069423e-24 -9.47908418e-12],-3.137592736117484e-14,1.2993716917764605e-20
1786950034.6854231,-6.763926453843982e-12,-9.512822647892178e-24,9.479084184249587e-12,"[9.97637113e-03 8.37026704e-19 0.00000000e+00 0.00000000e+00
 0.00000000e+00 4.25245236e-07 8.37026704e-19 9.97595794e-03
 0.00000000e+00 0.00000000e+00 0.00000000e+00 7.38577449e-15
 0.00000000e+00 0.00000000e+00 0.00000000e+00 0.00000000e+00
 0.00000000e+00 0.00000000e+00 0.00000000e+00 0.00000000e+00
 0.00000000e+00 0.00000000e+00 0.00000000e+00 0.00000000e+00
 0.00000000e+00 0.00000000e+00 0.00000000e+00 0.00000000e+00
 0.00000000e+00 0.00000000e+00 4.25245236e-07 7.38577449e-15
 0.00000000e+00 0.00000000e+00 0.00000000e+00 9.98459486e-03]","[[9.97637113e-06 8.37026704e-22 4.25245236e-10]
 [8.37026704e-22 9.97595794e-06 7.38577449e-18]
 [4.25245236e-10 7.38577449e-18 9.98459486e-06]]",[ 6.76399393e-12  9.51284754e-24 -9.47908418e-12],-3.137208185365712e-14,3.114554664581208e-20
1786950034.7303915,-6.7655749072410836e-12,-9.530292204951676e-24,9.479084184249587e-12,"[9.97607299e-03 8.40316673e-19 0.00000000e+00 0.00000000e+00
 0.00000000e+00 4.25668921e-07 8.40316673e-19 9.97565939e-03
 0.00000000e+00 0.00000000e+00 0.00000000e+00 7.36685651e-15
 0.00000000e+00 0.00000000e+00 0.00000000e+00 0.00000000e+00
 0.00000000e+00 0.00000000e+00 0.00000000e+00 0.00000000e+00
 0.00000000e+00 0.00000000e+00 0.00000000e+00 0.00000000e+00
 0.00000000e+00 0.00000000e+00 0.00000000e+00 0.00000000e+00
 0.00000000e+00 0.00000000e+00 4.25668921e-07 7.36685651e-15
 0.00000000e+00 0.00000000e+00 0.00000000e+00 9.98430491e-03]","[[9.97607299e-06 8.40316673e-22 4.25668921e-10]
 [8.40316673e-22 9.97565939e-06 7.36685651e-18]
 [4.25668921e-10 7.36685651e-18 9.98430491e-06]]",[ 6.76564240e-12  9.53031745e-24 -9.47908418e-12],-3.1372267736976557e-14,-1.8532835069671613e-20
1786950034.780503,-6.76673784917126e-12,-9.542544615797848e-24,9.479084184249587e-12,"[9.97587427e-03 8.42783146e-19 0.00000000e+00 0.00000000e+00
 0.00000000e+00 4.25984050e-07 8.42783146e-19 9.97546037e-03
 0.00000000e+00 0.00000000e+00 0.00000000e+00 7.35360464e-15
 0.00000000e+00 0.00000000e+00 0.00000000e+00 0.00000000e+00
 0.00000000e+00 0.00000000e+00 0.00000000e+00 0.00000000e+00
 0.00000000e+00 0.00000000e+00 0.00000000e+00 0.00000000e+00
 0.00000000e+00 0.00000000e+00 0.00000000e+00 0.00000000e+00
 0.00000000e+00 0.00000000e+00 4.25984050e-07 7.35360464e-15
 0.00000000e+00 0.00000000e+00 0.00000000e+00 9.98411229e-03]","[[9.97587427e-06 8.42783146e-22 4.25984050e-10]
 [8.42783146e-22 9.97546037e-06 7.35360464e-18]
 [4.25984050e-10 7.35360464e-18 9.98411229e-06]]",[ 6.76680535e-12  9.54257011e-24 -9.47908418e-12],-3.137996158891389e-14,1.835413645985025e-20
1786950034.8309712,-6.767773019010076e-12,-9.55348703584342e-24,9.479084184249587e-12,"[ 9.97567550e-03  4.01020320e-19  0.00000000e+00  0.00000000e+00
  0.00000000e+00  4.26235772e-07  4.01020320e-19  9.97526135e-03
  0.00000000e+00  0.00000000e+00  0.00000000e+00 -3.05490629e-15
  0.00000000e+00  0.00000000e+00  0.00000000e+00  0.00000000e+00
  0.00000000e+00  0.00000000e+00  0.00000000e+00  0.00000000e+00
  0.00000000e+00  0.00000000e+00  0.00000000e+00  0.00000000e+00
  0.00000000e+00  0.00000000e+00  0.00000000e+00  0.00000000e+00
  0.00000000e+00  0.00000000e+00  4.26235772e-07 -3.05490629e-15
  0.00000000e+00  0.00000000e+00  0.00000000e+00  9.98391839e-03]","[[ 9.97567550e-06  4.01020320e-22  4.26235772e-10]
 [ 4.01020320e-22  9.97526135e-06 -3.05490629e-18]
 [ 4.26235772e-10 -3.05490629e-18  9.98391839e-06]]",[ 6.76784053e-12  9.55361130e-24 -9.47908418e-12],-5.35527445774639e-11,7.389992873702175e-11
1786950034.8816147,-6.9820763486502145e-12,-1.160199580627244e-23,9.779732579318079e-12,"[ 9.97547679e-03  4.06684558e-19  0.00000000e+00  0.00000000e+00
  0.00000000e+00  4.26536552e-07  4.06684558e-19  9.97506234e-03
  0.00000000e+00  0.00000000e+00  0.00000000e+00 -2.99087573e-15
  0.00000000e+00  0.00000000e+00  0.00000000e+00  0.00000000e+00
  0.00000000e+00  0.00000000e+00  0.00000000e+00  0.00000000e+00
  0.00000000e+00  0.00000000e+00  0.00000000e+00  0.00000000e+00
  0.00000000e+00  0.00000000e+00  0.00000000e+00  0.00000000e+00
  0.00000000e+00  0.00000000e+00  4.26536552e-07 -2.99087573e-15
  0.00000000e+00  0.00000000e+00  0.00000000e+00  9.98372549e-03]","[[ 9.97547679e-06  4.06684558e-22  4.26536552e-10]
 [ 4.06684558e-22  9.97506234e-06 -2.99087573e-18]
 [ 4.26536552e-10 -2.99087573e-18  9.98372549e-06]]",[ 6.98214599e-12  1.16021408e-23 -9.77973258e-12],1.5793806763511e-13,-2.09021796363726e-13
1786950034.9319897,-7.186824619016341e-12,-1.361499842800046e-23,1.006705829809107e-11,"[ 9.97517884e-03  4.16516407e-19  0.00000000e+00  0.00000000e+00
  0.00000000e+00  4.27103841e-07  4.16516407e-19  9.97476385e-03
  0.00000000e+00  0.00000000e+00  0.00000000e+00 -2.89338628e-15
  0.00000000e+00  0.00000000e+00  0.00000000e+00  0.00000000e+00
  0.00000000e+00  0.00000000e+00  0.00000000e+00  0.00000000e+00
  0.00000000e+00  0.00000000e+00  0.00000000e+00  0.00000000e+00
  0.00000000e+00  0.00000000e+00  0.00000000e+00  0.00000000e+00
  0.00000000e+00  0.00000000e+00  4.27103841e-07 -2.89338628e-15
  0.00000000e+00  0.00000000e+00  0.00000000e+00  9.98343851e-03]","[[ 9.97517884e-06  4.16516407e-22  4.27103841e-10]
 [ 4.16516407e-22  9.97476385e-06 -2.89338628e-18]
 [ 4.27103841e-10 -2.89338628e-18  9.98343851e-06]]",[ 7.18689631e-12  1.36151634e-23 -1.00670583e-11],1.5806456827443418e-13,-2.0920278947046085e-13
1786950034.9810205,-7.177132792867211e-12,-1.3519141975313714e-23,1.0054623800215268e-11,"[ 9.97488079e-03  4.25124152e-19  0.00000000e+00  0.00000000e+00
  0.00000000e+00  4.27546377e-07  4.25124152e-19  9.97446537e-03
  0.00000000e+00  0.00000000e+00  0.00000000e+00 -2.79853034e-15
  0.00000000e+00  0.00000000e+00  0.00000000e+00  0.00000000e+00
  0.00000000e+00  0.00000000e+00  0.00000000e+00  0.00000000e+00
  0.00000000e+00  0.00000000e+00  0.00000000e+00  0.00000000e+00
  0.00000000e+00  0.00000000e+00  0.00000000e+00  0.00000000e+00
  0.00000000e+00  0.00000000e+00  4.27546377e-07 -2.79853034e-15
  0.00000000e+00  0.00000000e+00  0.00000000e+00  9.98314902e-03]","[[ 9.97488079e-06  4.25124152e-22  4.27546377e-10]
 [ 4.25124152e-22  9.97446537e-06 -2.79853034e-18]
 [ 4.27546377e-10 -2.79853034e-18  9.98314902e-06]]",[ 7.17720438e-12  1.35193050e-23 -1.00546238e-11],1.581927066839632e-13,-2.0938487360453e-13
1786950035.0350397,-7.167759821009687e-12,-1.3426607951108675e-23,1.0042633391549316e-11,"[ 9.97458274e-03  4.33324320e-19  0.00000000e+00  0.00000000e+00
  0.00000000e+00  4.27961390e-07  4.33324320e-19  9.97416691e-03
  0.00000000e+00  0.00000000e+00  0.00000000e+00 -2.70687704e-15
  0.00000000e+00  0.00000000e+00  0.00000000e+00  0.00000000e+00
  0.00000000e+00  0.00000000e+00  0.00000000e+00  0.00000000e+00
  0.00000000e+00  0.00000000e+00  0.00000000e+00  0.00000000e+00
  0.00000000e+00  0.00000000e+00  0.00000000e+00  0.00000000e+00
  0.00000000e+00  0.00000000e+00  4.27961390e-07 -2.70687704e-15
  0.00000000e+00  0.00000000e+00  0.00000000e+00  9.98285899e-03]","[[ 9.97458274e-06  4.33324320e-22  4.27961390e-10]
 [ 4.33324320e-22  9.97416691e-06 -2.70687704e-18]
 [ 4.27961390e-10 -2.70687704e-18  9.98285899e-06]]",[ 7.16783131e-12  1.34267691e-23 -1.00426334e-11],1.583408851685649e-13,-2.0959265334568073e-13
1786950035.080779,-7.161127018494929e-12,-1.33611254753647e-23,1.0034195696562165e-11,"[ 9.97438408e-03  4.39316678e-19  0.00000000e+00  0.00000000e+00
  0.00000000e+00  4.28275144e-07  4.39316678e-19  9.97396794e-03
  0.00000000e+00  0.00000000e+00  0.00000000e+00 -2.64193862e-15
  0.00000000e+00  0.00000000e+00  0.00000000e+00  0.00000000e+00
  0.00000000e+00  0.00000000e+00  0.00000000e+00  0.00000000e+00
  0.00000000e+00  0.00000000e+00  0.00000000e+00  0.00000000e+00
  0.00000000e+00  0.00000000e+00  0.00000000e+00  0.00000000e+00
  0.00000000e+00  0.00000000e+00  4.28275144e-07 -2.64193862e-15
  0.00000000e+00  0.00000000e+00  0.00000000e+00  9.98266640e-03]","[[ 9.97438408e-06  4.39316678e-22  4.28275144e-10]
 [ 4.39316678e-22  9.97396794e-06 -2.64193862e-18]
 [ 4.28275144e-10 -2.64193862e-18  9.98266640e-06]]",[ 7.16119844e-12  1.33612853e-23 -1.00341957e-11],1.5839644493647859e-13,-2.0966974788766542e-13
1786950035.1351123,-7.151515782857928e-12,-1.3266391326612443e-23,1.0022205287896213e-11,"[ 9.97408614e-03  4.48553482e-19  0.00000000e+00  0.00000000e+00
  0.00000000e+00  4.28786272e-07  4.48553482e-19  9.97366951e-03
  0.00000000e+00  0.00000000e+00  0.00000000e+00 -2.54793026e-15
  0.00000000e+00  0.00000000e+00  0.00000000e+00  0.00000000e+00
  0.00000000e+00  0.00000000e+00  0.00000000e+00  0.00000000e+00
  0.00000000e+00  0.00000000e+00  0.00000000e+00  0.00000000e+00
  0.00000000e+00  0.00000000e+00  0.00000000e+00  0.00000000e+00
  0.00000000e+00  0.00000000e+00  4.28786272e-07 -2.54793026e-15
  0.00000000e+00  0.00000000e+00  0.00000000e+00  9.98237835e-03]","[[ 9.97408614e-06  4.48553482e-22  4.28786272e-10]
 [ 4.48553482e-22  9.97366951e-06 -2.54793026e-18]
 [ 4.28786272e-10 -2.54793026e-18  9.98237835e-06]]",[ 7.15158711e-12  1.32665492e-23 -1.00222053e-11],1.5849562954604091e-13,-2.0981240846059302e-13
1786950035.18984,-7.144901893409563e-12,-1.3201234641538314e-23,1.0013323503699212e-11,"[ 9.97388750e-03  4.54480998e-19  0.00000000e+00  0.00000000e+00
  0.00000000e+00  4.29094496e-07  4.54480998e-19  9.97347057e-03
  0.00000000e+00  0.00000000e+00  0.00000000e+00 -2.48321779e-15
  0.00000000e+00  0.00000000e+00  0.00000000e+00  0.00000000e+00
  0.00000000e+00  0.00000000e+00  0.00000000e+00  0.00000000e+00
  0.00000000e+00  0.00000000e+00  0.00000000e+00  0.00000000e+00
  0.00000000e+00  0.00000000e+00  0.00000000e+00  0.00000000e+00
  0.00000000e+00  0.00000000e+00  4.29094496e-07 -2.48321779e-15
  0.00000000e+00  0.00000000e+00  0.00000000e+00  9.98218566e-03]","[[ 9.97388750e-06  4.54480998e-22  4.29094496e-10]
 [ 4.54480998e-22  9.97347057e-06 -2.48321779e-18]
 [ 4.29094496e-10 -2.48321779e-18  9.98218566e-06]]",[ 7.14497315e-12  1.32013912e-23 -1.00133235e-11],1.585271755279139e-13,-2.0985583819866035e-13
1786950035.2310872,-7.1376277310957626e-12,-1.312952820768009e-23,1.000399763029236e-11,"[ 9.97368892e-03  4.61327190e-19  0.00000000e+00  0.00000000e+00
  0.00000000e+00  4.29468065e-07  4.61327190e-19  9.97327163e-03
  0.00000000e+00  0.00000000e+00  0.00000000e+00 -2.41190102e-15
  0.00000000e+00  0.00000000e+00  0.00000000e+00  0.00000000e+00
  0.00000000e+00  0.00000000e+00  0.00000000e+00  0.00000000e+00
  0.00000000e+00  0.00000000e+00  0.00000000e+00  0.00000000e+00
  0.00000000e+00  0.00000000e+00  0.00000000e+00  0.00000000e+00
  0.00000000e+00  0.00000000e+00  4.29468065e-07 -2.41190102e-15
  0.00000000e+00  0.00000000e+00  0.00000000e+00  9.98199431e-03]","[[ 9.97368892e-06  4.61327190e-22  4.29468065e-10]
 [ 4.61327190e-22  9.97327163e-06 -2.41190102e-18]
 [ 4.29468065e-10 -2.41190102e-18  9.98199431e-06]]",[ 7.13769892e-12  1.31296833e-23 -1.00039976e-11],1.5856472196003687e-13,-2.0990624803129128e-13
1786950035.282654,-7.128256389131866e-12,-1.3037486459859712e-23,9.992007221626409e-12,"[ 9.97339093e-03  4.69436207e-19  0.00000000e+00  0.00000000e+00
  0.00000000e+00  4.29874507e-07  4.69436207e-19  9.97297324e-03
  0.00000000e+00  0.00000000e+00  0.00000000e+00 -2.32032684e-15
  0.00000000e+00  0.00000000e+00  0.00000000e+00  0.00000000e+00
  0.00000000e+00  0.00000000e+00  0.00000000e+00  0.00000000e+00
  0.00000000e+00  0.00000000e+00  0.00000000e+00  0.00000000e+00
  0.00000000e+00  0.00000000e+00  0.00000000e+00  0.00000000e+00
  0.00000000e+00  0.00000000e+00  4.29874507e-07 -2.32032684e-15
  0.00000000e+00  0.00000000e+00  0.00000000e+00  9.98170418e-03]","[[ 9.97339093e-06  4.69436207e-22  4.29874507e-10]
 [ 4.69436207e-22  9.97297324e-06 -2.32032684e-18]
 [ 4.29874507e-10 -2.32032684e-18  9.98170418e-06]]",[ 7.12832748e-12  1.30376397e-23 -9.99200722e-12],1.586032731939037e-13,-2.0996243731858574e-13
1786950035.3400123,-7.1220448300780575e-12,-1.2976545774066956e-23,9.984013615849108e-12,"[ 9.97319231e-03  4.75171020e-19  0.00000000e+00  0.00000000e+00
  0.00000000e+00  4.30180935e-07  4.75171020e-19  9.97277433e-03
  0.00000000e+00  0.00000000e+00  0.00000000e+00 -2.25963151e-15
  0.00000000e+00  0.00000000e+00  0.00000000e+00  0.00000000e+00
  0.00000000e+00  0.00000000e+00  0.00000000e+00  0.00000000e+00
  0.00000000e+00  0.00000000e+00  0.00000000e+00  0.00000000e+00
  0.00000000e+00  0.00000000e+00  0.00000000e+00  0.00000000e+00
  0.00000000e+00  0.00000000e+00  4.30180935e-07 -2.25963151e-15
  0.00000000e+00  0.00000000e+00  0.00000000e+00  9.98151149e-03]","[[ 9.97319231e-06  4.75171020e-22  4.30180935e-10]
 [ 4.75171020e-22  9.97277433e-06 -2.25963151e-18]
 [ 4.30180935e-10 -2.25963151e-18  9.98151149e-06]]",[ 7.12211586e-12  1.29766978e-23 -9.98401362e-12],1.5862438644137042e-13,-2.0999298889928426e-13
1786950035.3817468,-7.111540252650323e-12,-1.287338877304612e-23,9.969802761133906e-12,"[ 9.97289449e-03  4.85167517e-19  0.00000000e+00  0.00000000e+00
  0.00000000e+00  4.30731933e-07  4.85167517e-19  9.97247597e-03
  0.00000000e+00  0.00000000e+00  0.00000000e+00 -2.15674773e-15
  0.00000000e+00  0.00000000e+00  0.00000000e+00  0.00000000e+00
  0.00000000e+00  0.00000000e+00  0.00000000e+00  0.00000000e+00
  0.00000000e+00  0.00000000e+00  0.00000000e+00  0.00000000e+00
  0.00000000e+00  0.00000000e+00  0.00000000e+00  0.00000000e+00
  0.00000000e+00  0.00000000e+00  4.30731933e-07 -2.15674773e-15
  0.00000000e+00  0.00000000e+00  0.00000000e+00  9.98122432e-03]","[[ 9.97289449e-06  4.85167517e-22  4.30731933e-10]
 [ 4.85167517e-22  9.97247597e-06 -2.15674773e-18]
 [ 4.30731933e-10 -2.15674773e-18  9.98122432e-06]]",[ 7.11161117e-12  1.28735387e-23 -9.96980276e-12],1.5864009574807564e-13,-2.100157433109761e-13
1786950035.439242,-7.106145448870991e-12,-1.2820727251623474e-23,9.962697333776305e-12,"[ 9.97269579e-03  4.89564504e-19  0.00000000e+00  0.00000000e+00
  0.00000000e+00  4.30936890e-07  4.89564504e-19  9.97227707e-03
  0.00000000e+00  0.00000000e+00  0.00000000e+00 -2.10422468e-15
  0.00000000e+00  0.00000000e+00  0.00000000e+00  0.00000000e+00
  0.00000000e+00  0.00000000e+00  0.00000000e+00  0.00000000e+00
  0.00000000e+00  0.00000000e+00  0.00000000e+00  0.00000000e+00
  0.00000000e+00  0.00000000e+00  0.00000000e+00  0.00000000e+00
  0.00000000e+00  0.00000000e+00  4.30936890e-07 -2.10422468e-15
  0.00000000e+00  0.00000000e+00  0.00000000e+00  9.98102959e-03]","[[ 9.97269579e-06  4.89564504e-22  4.30936890e-10]
 [ 4.89564504e-22  9.97227707e-06 -2.10422468e-18]
 [ 4.30936890e-10 -2.10422468e-18  9.98102959e-06]]",[ 7.10621631e-12  1.28208761e-23 -9.96269733e-12],1.58652881464875e-13,-2.1003267859369937e-13
1786950035.4851713,-7.096214362617537e-12,-1.2723498049930894e-23,9.949818746690653e-12,"[ 9.97239800e-03  4.99335334e-19  0.00000000e+00  0.00000000e+00
  0.00000000e+00  4.31490482e-07  4.99335334e-19  9.97197874e-03
  0.00000000e+00  0.00000000e+00  0.00000000e+00 -2.00709132e-15
  0.00000000e+00  0.00000000e+00  0.00000000e+00  0.00000000e+00
  0.00000000e+00  0.00000000e+00  0.00000000e+00  0.00000000e+00
  0.00000000e+00  0.00000000e+00  0.00000000e+00  0.00000000e+00
  0.00000000e+00  0.00000000e+00  0.00000000e+00  0.00000000e+00
  0.00000000e+00  0.00000000e+00  4.31490482e-07 -2.00709132e-15
  0.00000000e+00  0.00000000e+00  0.00000000e+00  9.98074250e-03]","[[ 9.97239800e-06  4.99335334e-22  4.31490482e-10]
 [ 4.99335334e-22  9.97197874e-06 -2.00709132e-18]
 [ 4.31490482e-10 -2.00709132e-18  9.98074250e-06]]",[ 7.09628513e-12  1.27236449e-23 -9.94981875e-12],1.5865426972803296e-13,-2.1003342752985877e-13
1786950035.5316608,-7.086362873648912e-12,-1.2627193154138743e-23,9.936940159605001e-12,"[ 9.97210012e-03  5.08075617e-19  0.00000000e+00  0.00000000e+00
  0.00000000e+00  4.31941438e-07  5.08075617e-19  9.97168043e-03
  0.00000000e+00  0.00000000e+00  0.00000000e+00 -1.91076590e-15
  0.00000000e+00  0.00000000e+00  0.00000000e+00  0.00000000e+00
  0.00000000e+00  0.00000000e+00  0.00000000e+00  0.00000000e+00
  0.00000000e+00  0.00000000e+00  0.00000000e+00  0.00000000e+00
  0.00000000e+00  0.00000000e+00  0.00000000e+00  0.00000000e+00
  0.00000000e+00  0.00000000e+00  4.31941438e-07 -1.91076590e-15
  0.00000000e+00  0.00000000e+00  0.00000000e+00  9.98045335e-03]","[[ 9.97210012e-06  5.08075617e-22  4.31941438e-10]
 [ 5.08075617e-22  9.97168043e-06 -1.91076590e-18]
 [ 4.31941438e-10 -1.91076590e-18  9.98045335e-06]]",[ 7.08643354e-12  1.26273381e-23 -9.93694016e-12],1.586347611531673e-13,-2.1000691187080433e-13
1786950035.5811906,-7.08013010903242e-12,-1.2566385811318434e-23,9.9289465538277e-12,"[ 9.97190152e-03  5.13435418e-19  0.00000000e+00  0.00000000e+00
  0.00000000e+00  4.32208782e-07  5.13435418e-19  9.97148156e-03
  0.00000000e+00  0.00000000e+00  0.00000000e+00 -1.84989778e-15
  0.00000000e+00  0.00000000e+00  0.00000000e+00  0.00000000e+00
  0.00000000e+00  0.00000000e+00  0.00000000e+00  0.00000000e+00
  0.00000000e+00  0.00000000e+00  0.00000000e+00  0.00000000e+00
  0.00000000e+00  0.00000000e+00  0.00000000e+00  0.00000000e+00
  0.00000000e+00  0.00000000e+00  4.32208782e-07 -1.84989778e-15
  0.00000000e+00  0.00000000e+00  0.00000000e+00  9.98025991e-03]","[[ 9.97190152e-06  5.13435418e-22  4.32208782e-10]
 [ 5.13435418e-22  9.97148156e-06 -1.84989778e-18]
 [ 4.32208782e-10 -1.84989778e-18  9.98025991e-06]]",[ 7.08020071e-12  1.25665295e-23 -9.92894655e-12],1.58624557437691e-13,-2.0999145176984996e-13
1786950035.6371906,-7.073608220548584e-12,-1.2502759073729436e-23,9.920508858840549e-12,"[ 9.97170295e-03  5.19187785e-19  0.00000000e+00  0.00000000e+00
  0.00000000e+00  4.32503995e-07  5.19187785e-19  9.97128271e-03
  0.00000000e+00  0.00000000e+00  0.00000000e+00 -1.78615696e-15
  0.00000000e+00  0.00000000e+00  0.00000000e+00  0.00000000e+00
  0.00000000e+00  0.00000000e+00  0.00000000e+00  0.00000000e+00
  0.00000000e+00  0.00000000e+00  0.00000000e+00  0.00000000e+00
  0.00000000e+00  0.00000000e+00  0.00000000e+00  0.00000000e+00
  0.00000000e+00  0.00000000e+00  4.32503995e-07 -1.78615696e-15
  0.00000000e+00  0.00000000e+00  0.00000000e+00  9.98006705e-03]","[[ 9.97170295e-06  5.19187785e-22  4.32503995e-10]
 [ 5.19187785e-22  9.97128271e-06 -1.78615696e-18]
 [ 4.32503995e-10 -1.78615696e-18  9.98006705e-06]]",[ 7.07367875e-12  1.25029015e-23 -9.92050886e-12],1.5859676916184744e-13,-2.099532680120089e-13
1786950035.681091,-7.063980753107514e-12,-1.2408954202196867e-23,9.908074360964747e-12,"[ 9.97140530e-03  5.29648222e-19  0.00000000e+00  0.00000000e+00
  0.00000000e+00  4.33143801e-07  5.29648222e-19  9.97098444e-03
  0.00000000e+00  0.00000000e+00  0.00000000e+00 -1.69208781e-15
  0.00000000e+00  0.00000000e+00  0.00000000e+00  0.00000000e+00
  0.00000000e+00  0.00000000e+00  0.00000000e+00  0.00000000e+00
  0.00000000e+00  0.00000000e+00  0.00000000e+00  0.00000000e+00
  0.00000000e+00  0.00000000e+00  0.00000000e+00  0.00000000e+00
  0.00000000e+00  0.00000000e+00  4.33143801e-07 -1.69208781e-15
  0.00000000e+00  0.00000000e+00  0.00000000e+00  9.97978177e-03]","[[ 9.97140530e-06  5.29648222e-22  4.33143801e-10]
 [ 5.29648222e-22  9.97098444e-06 -1.69208781e-18]
 [ 4.33143801e-10 -1.69208781e-18  9.97978177e-06]]",[ 7.06405119e-12  1.24090947e-23 -9.90807436e-12],1.5858338269144446e-13,-2.0993451759775145e-13
1786950035.7309363,-7.055874976242161e-12,-1.2329778175961911e-23,9.897416219928346e-12,"[ 9.97120693e-03  5.37904647e-19  0.00000000e+00  0.00000000e+00
  0.00000000e+00  4.33628005e-07  5.37904647e-19  9.97078560e-03
  0.00000000e+00  0.00000000e+00  0.00000000e+00 -1.61255046e-15
  0.00000000e+00  0.00000000e+00  0.00000000e+00  0.00000000e+00
  0.00000000e+00  0.00000000e+00  0.00000000e+00  0.00000000e+00
  0.00000000e+00  0.00000000e+00  0.00000000e+00  0.00000000e+00
  0.00000000e+00  0.00000000e+00  0.00000000e+00  0.00000000e+00
  0.00000000e+00  0.00000000e+00  4.33628005e-07 -1.61255046e-15
  0.00000000e+00  0.00000000e+00  0.00000000e+00  9.97959277e-03]","[[ 9.97130603e-06  5.32656510e-22  4.33300830e-10]
 [ 5.32656510e-22  9.97088502e-06 -1.65926146e-18]
 [ 4.33300830e-10 -1.65926146e-18  9.97968554e-06]]",[ 7.06069380e-12  1.23763868e-23 -9.90363347e-12],1.5854924546016366e-13,-2.0988595598726576e-13
1786950035.7808247,-7.047751300370037e-12,-1.2251073513078151e-23,9.887202168101794e-12,"[ 9.97090901e-03  5.44676461e-19  0.00000000e+00  0.00000000e+00
  0.00000000e+00  4.33952727e-07  5.44676461e-19  9.97048736e-03
  0.00000000e+00  0.00000000e+00  0.00000000e+00 -1.53351003e-15
  0.00000000e+00  0.00000000e+00  0.00000000e+00  0.00000000e+00
  0.00000000e+00  0.00000000e+00  0.00000000e+00  0.00000000e+00
  0.00000000e+00  0.00000000e+00  0.00000000e+00  0.00000000e+00
  0.00000000e+00  0.00000000e+00  0.00000000e+00  0.00000000e+00
  0.00000000e+00  0.00000000e+00  4.33952727e-07 -1.53351003e-15
  0.00000000e+00  0.00000000e+00  0.00000000e+00  9.97930113e-03]","[[ 9.97090901e-06  5.44676461e-22  4.33952727e-10]
 [ 5.44676461e-22  9.97048736e-06 -1.53351003e-18]
 [ 4.33952727e-10 -1.53351003e-18  9.97930113e-06]]",[ 7.04782157e-12  1.22512108e-23 -9.88720217e-12],1.5841356843936426e-13,-2.096924962698294e-13
1786950035.8339586,-7.04131169567566e-12,-1.2188532558605173e-23,9.878764473114643e-12,"[ 9.97071049e-03  5.50482829e-19  0.00000000e+00  0.00000000e+00
  0.00000000e+00  4.34257447e-07  5.50482829e-19  9.97028854e-03
  0.00000000e+00  0.00000000e+00  0.00000000e+00 -1.47059747e-15
  0.00000000e+00  0.00000000e+00  0.00000000e+00  0.00000000e+00
  0.00000000e+00  0.00000000e+00  0.00000000e+00  0.00000000e+00
  0.00000000e+00  0.00000000e+00  0.00000000e+00  0.00000000e+00
  0.00000000e+00  0.00000000e+00  0.00000000e+00  0.00000000e+00
  0.00000000e+00  0.00000000e+00  4.34257447e-07 -1.47059747e-15
  0.00000000e+00  0.00000000e+00  0.00000000e+00  9.97910850e-03]","[[ 9.97071049e-06  5.50482829e-22  4.34257447e-10]
 [ 5.50482829e-22  9.97028854e-06 -1.47059747e-18]
 [ 4.34257447e-10 -1.47059747e-18  9.97910850e-06]]",[ 7.04138190e-12  1.21886686e-23 -9.87876447e-12],1.583187387580946e-13,-2.0956033616057624e-13
1786950035.8901246,-7.037339537491141e-12,-1.2149850390122857e-23,9.873435402596442e-12,"[ 9.97061130e-03  5.54413278e-19  0.00000000e+00  0.00000000e+00
  0.00000000e+00  4.34482953e-07  5.54413278e-19  9.97018913e-03
  0.00000000e+00  0.00000000e+00  0.00000000e+00 -1.43165898e-15
  0.00000000e+00  0.00000000e+00  0.00000000e+00  0.00000000e+00
  0.00000000e+00  0.00000000e+00  0.00000000e+00  0.00000000e+00
  0.00000000e+00  0.00000000e+00  0.00000000e+00  0.00000000e+00
  0.00000000e+00  0.00000000e+00  0.00000000e+00  0.00000000e+00
  0.00000000e+00  0.00000000e+00  4.34482953e-07 -1.43165898e-15
  0.00000000e+00  0.00000000e+00  0.00000000e+00  9.97901367e-03]","[[ 9.97061130e-06  5.54413278e-22  4.34482953e-10]
 [ 5.54413278e-22  9.97018913e-06 -1.43165898e-18]
 [ 4.34482953e-10 -1.43165898e-18  9.97901367e-06]]",[ 7.03740970e-12  1.21499857e-23 -9.87343540e-12],1.5824263868069485e-13,-2.0945102728154264e-13
1786950035.939088,-7.024352529486437e-12,-1.2023368985426143e-23,9.85700410183199e-12,"[ 9.97031389e-03  5.68046259e-19  0.00000000e+00  0.00000000e+00
  0.00000000e+00  4.35302970e-07  5.68046259e-19  9.96989093e-03
  0.00000000e+00  0.00000000e+00  0.00000000e+00 -1.30413021e-15
  0.00000000e+00  0.00000000e+00  0.00000000e+00  0.00000000e+00
  0.00000000e+00  0.00000000e+00  0.00000000e+00  0.00000000e+00
  0.00000000e+00  0.00000000e+00  0.00000000e+00  0.00000000e+00
  0.00000000e+00  0.00000000e+00  0.00000000e+00  0.00000000e+00
  0.00000000e+00  0.00000000e+00  4.35302970e-07 -1.30413021e-15
  0.00000000e+00  0.00000000e+00  0.00000000e+00  9.97873212e-03]","[[ 9.97031389e-06  5.68046259e-22  4.35302970e-10]
 [ 5.68046259e-22  9.96989093e-06 -1.30413021e-18]
 [ 4.35302970e-10 -1.30413021e-18  9.97873212e-06]]",[ 7.02442256e-12  1.20235017e-23 -9.85700410e-12],1.58113863509329e-13,-2.0926954000689776e-13
1786950035.993893,-7.015341968569903e-12,-1.1936259175014483e-23,9.845457782375888e-12,"[ 9.97001607e-03  5.75721204e-19  0.00000000e+00  0.00000000e+00
  0.00000000e+00  4.35682011e-07  5.75721204e-19  9.96959274e-03
  0.00000000e+00  0.00000000e+00  0.00000000e+00 -1.21629405e-15
  0.00000000e+00  0.00000000e+00  0.00000000e+00  0.00000000e+00
  0.00000000e+00  0.00000000e+00  0.00000000e+00  0.00000000e+00
  0.00000000e+00  0.00000000e+00  0.00000000e+00  0.00000000e+00
  0.00000000e+00  0.00000000e+00  0.00000000e+00  0.00000000e+00
  0.00000000e+00  0.00000000e+00  4.35682011e-07 -1.21629405e-15
  0.00000000e+00  0.00000000e+00  0.00000000e+00  9.97844163e-03]","[[ 9.97001607e-06  5.75721204e-22  4.35682011e-10]
 [ 5.75721204e-22  9.96959274e-06 -1.21629405e-18]
 [ 4.35682011e-10 -1.21629405e-18  9.97844163e-06]]",[ 7.01541191e-12  1.19363902e-23 -9.84545778e-12],1.5794135473077846e-13,-2.0902588487809506e-13
1786950036.0318015,-7.0081262259741475e-12,-1.1866349508256175e-23,9.836131908969037e-12,"[ 9.96981766e-03  5.82634487e-19  0.00000000e+00  0.00000000e+00
  0.00000000e+00  4.36067456e-07  5.82634487e-19  9.96939396e-03
  0.00000000e+00  0.00000000e+00  0.00000000e+00 -1.14566370e-15
  0.00000000e+00  0.00000000e+00  0.00000000e+00  0.00000000e+00
  0.00000000e+00  0.00000000e+00  0.00000000e+00  0.00000000e+00
  0.00000000e+00  0.00000000e+00  0.00000000e+00  0.00000000e+00
  0.00000000e+00  0.00000000e+00  0.00000000e+00  0.00000000e+00
  0.00000000e+00  0.00000000e+00  4.36067456e-07 -1.14566370e-15
  0.00000000e+00  0.00000000e+00  0.00000000e+00  9.97825068e-03]","[[ 9.96981766e-06  5.82634487e-22  4.36067456e-10]
 [ 5.82634487e-22  9.96939396e-06 -1.14566370e-18]
 [ 4.36067456e-10 -1.14566370e-18  9.97825068e-06]]",[ 7.00819609e-12  1.18664791e-23 -9.83613191e-12],1.5785998086055518e-13,-2.0891046826708597e-13
1786950036.0815701,-7.006213933698317e-12,-1.1849209448521917e-23,9.832579195290236e-12,"[ 9.96951985e-03  5.86951033e-19  0.00000000e+00  0.00000000e+00
  0.00000000e+00  4.36419022e-07  5.86951033e-19  9.96909580e-03
  0.00000000e+00  0.00000000e+00  0.00000000e+00 -1.12862183e-15
  0.00000000e+00  0.00000000e+00  0.00000000e+00  0.00000000e+00
  0.00000000e+00  0.00000000e+00  0.00000000e+00  0.00000000e+00
  0.00000000e+00  0.00000000e+00  0.00000000e+00  0.00000000e+00
  0.00000000e+00  0.00000000e+00  0.00000000e+00  0.00000000e+00
  0.00000000e+00  0.00000000e+00  4.36419022e-07 -1.12862183e-15
  0.00000000e+00  0.00000000e+00  0.00000000e+00  9.97795966e-03]","[[ 9.96951985e-06  5.86951033e-22  4.36419022e-10]
 [ 5.86951033e-22  9.96909580e-06 -1.12862183e-18]
 [ 4.36419022e-10 -1.12862183e-18  9.97795966e-06]]",[ 7.00628378e-12  1.18493387e-23 -9.83257920e-12],-3.137691239453317e-14,1.9936890768994087e-20
1786950036.1319778,-7.007320517512567e-12,-1.1861204857689237e-23,9.832579195290236e-12,"[ 9.96932137e-03  5.89299908e-19  0.00000000e+00  0.00000000e+00
  0.00000000e+00  4.36706752e-07  5.89299908e-19  9.96889704e-03
  0.00000000e+00  0.00000000e+00  0.00000000e+00 -1.14100815e-15
  0.00000000e+00  0.00000000e+00  0.00000000e+00  0.00000000e+00
  0.00000000e+00  0.00000000e+00  0.00000000e+00  0.00000000e+00
  0.00000000e+00  0.00000000e+00  0.00000000e+00  0.00000000e+00
  0.00000000e+00  0.00000000e+00  0.00000000e+00  0.00000000e+00
  0.00000000e+00  0.00000000e+00  4.36706752e-07 -1.14100815e-15
  0.00000000e+00  0.00000000e+00  0.00000000e+00  9.97776675e-03]","[[ 9.96932137e-06  5.89299908e-22  4.36706752e-10]
 [ 5.89299908e-22  9.96889704e-06 -1.14100815e-18]
 [ 4.36706752e-10 -1.14100815e-18  9.97776675e-06]]",[ 7.00739037e-12  1.18613343e-23 -9.83257920e-12],-3.137260276167947e-14,-3.219227825289774e-20
1786950036.185628,-7.009020986404058e-12,-1.1879596553862818e-23,9.832579195290236e-12,"[ 9.96902368e-03  5.93010116e-19  0.00000000e+00  0.00000000e+00
  0.00000000e+00  4.37159846e-07  5.93010116e-19  9.96859891e-03
  0.00000000e+00  0.00000000e+00  0.00000000e+00 -1.15999394e-15
  0.00000000e+00  0.00000000e+00  0.00000000e+00  0.00000000e+00
  0.00000000e+00  0.00000000e+00  0.00000000e+00  0.00000000e+00
  0.00000000e+00  0.00000000e+00  0.00000000e+00  0.00000000e+00
  0.00000000e+00  0.00000000e+00  0.00000000e+00  0.00000000e+00
  0.00000000e+00  0.00000000e+00  4.37159846e-07 -1.15999394e-15
  0.00000000e+00  0.00000000e+00  0.00000000e+00  9.97747782e-03]","[[ 9.96902368e-06  5.93010116e-22  4.37159846e-10]
 [ 5.93010116e-22  9.96859891e-06 -1.15999394e-18]
 [ 4.37159846e-10 -1.15999394e-18  9.97747782e-06]]",[ 7.00909086e-12  1.18797264e-23 -9.83257920e-12],-3.13786082724003e-14,-3.176039169843121e-20
1786950036.231397,-7.010189084444713e-12,-1.1892196056753183e-23,9.832579195290236e-12,"[ 9.96882526e-03  5.95781863e-19  0.00000000e+00  0.00000000e+00
  0.00000000e+00  4.37494764e-07  5.95781863e-19  9.96840017e-03
  0.00000000e+00  0.00000000e+00  0.00000000e+00 -1.17299585e-15
  0.00000000e+00  0.00000000e+00  0.00000000e+00  0.00000000e+00
  0.00000000e+00  0.00000000e+00  0.00000000e+00  0.00000000e+00
  0.00000000e+00  0.00000000e+00  0.00000000e+00  0.00000000e+00
  0.00000000e+00  0.00000000e+00  0.00000000e+00  0.00000000e+00
  0.00000000e+00  0.00000000e+00  4.37494764e-07 -1.17299585e-15
  0.00000000e+00  0.00000000e+00  0.00000000e+00  9.97728588e-03]","[[ 9.96882526e-06  5.95781863e-22  4.37494764e-10]
 [ 5.95781863e-22  9.96840017e-06 -1.17299585e-18]
 [ 4.37494764e-10 -1.17299585e-18  9.97728588e-06]]",[ 7.01025896e-12  1.18923261e-23 -9.83257920e-12],-3.1387008722405245e-14,-4.98817406694049e-21
1786950036.2827733,-7.011820395843746e-12,-1.190990765607523e-23,9.832579195290236e-12,"[ 9.96852757e-03  6.02301579e-19  0.00000000e+00  0.00000000e+00
  0.00000000e+00  4.37917236e-07  6.02301579e-19  9.96810207e-03
  0.00000000e+00  0.00000000e+00  0.00000000e+00 -1.12123959e-15
  0.00000000e+00  0.00000000e+00  0.00000000e+00  0.00000000e+00
  0.00000000e+00  0.00000000e+00  0.00000000e+00  0.00000000e+00
  0.00000000e+00  0.00000000e+00  0.00000000e+00  0.00000000e+00
  0.00000000e+00  0.00000000e+00  0.00000000e+00  0.00000000e+00
  0.00000000e+00  0.00000000e+00  4.37917236e-07 -1.12123959e-15
  0.00000000e+00  0.00000000e+00  0.00000000e+00  9.97699636e-03]","[[ 9.96852757e-06  6.02301579e-22  4.37917236e-10]
 [ 6.02301579e-22  9.96810207e-06 -1.12123959e-18]
 [ 4.37917236e-10 -1.12123959e-18  9.97699636e-06]]",[ 7.01189029e-12  1.19100374e-23 -9.83257920e-12],1.5790005230941672e-13,-2.0897312988497365e-13
1786950036.3309233,-7.002261067501162e-12,-1.1817628139266352e-23,9.820144697414435e-12,"[ 9.96822992e-03  6.10768854e-19  0.00000000e+00  0.00000000e+00
  0.00000000e+00  4.38352169e-07  6.10768854e-19  9.96780399e-03
  0.00000000e+00  0.00000000e+00  0.00000000e+00 -1.02783661e-15
  0.00000000e+00  0.00000000e+00  0.00000000e+00  0.00000000e+00
  0.00000000e+00  0.00000000e+00  0.00000000e+00  0.00000000e+00
