time,x,y,yaw,cov_prop,K_gain,innovation,v_ekf,omega_ekf
1787145671.2753296,2.682622838553347,0.01860375867626008,2.0118797586977877,"[ 5.78153785e-05 -4.61367749e-07  0.00000000e+00  0.00000000e+00
  0.00000000e+00 -2.52560622e-06 -4.61367749e-07  5.11157973e-05
  0.00000000e+00  0.00000000e+00  0.00000000e+00 -1.47565935e-06
  0.00000000e+00  0.00000000e+00  0.00000000e+00  0.00000000e+00
  0.00000000e+00  0.00000000e+00  0.00000000e+00  0.00000000e+00
  0.00000000e+00  0.00000000e+00  0.00000000e+00  0.00000000e+00
  0.00000000e+00  0.00000000e+00  0.00000000e+00  0.00000000e+00
  0.00000000e+00  0.00000000e+00 -2.52560622e-06 -1.47565935e-06
  0.00000000e+00  0.00000000e+00  0.00000000e+00  3.83933189e-06]","[[-0.00034811  0.04563106]
 [-0.00123492 -0.00727549]]",[],0.0,0.0
1787145671.3134685,2.67048994477425,0.011393725660037941,2.0172939021759557,"[ 2.75095435e-05  1.94891891e-07  0.00000000e+00  0.00000000e+00
  0.00000000e+00 -2.80011830e-07  1.94891891e-07  2.51278353e-05
  0.00000000e+00  0.00000000e+00  0.00000000e+00 -8.56782573e-07
  0.00000000e+00  0.00000000e+00  0.00000000e+00  0.00000000e+00
  0.00000000e+00  0.00000000e+00  0.00000000e+00  0.00000000e+00
  0.00000000e+00  0.00000000e+00  0.00000000e+00  0.00000000e+00
  0.00000000e+00  0.00000000e+00  0.00000000e+00  0.00000000e+00
  0.00000000e+00  0.00000000e+00 -2.80011830e-07 -8.56782573e-07
  0.00000000e+00  0.00000000e+00  0.00000000e+00  2.63868981e-06]","[[-0.00034811  0.04563106]
 [-0.00123492 -0.00727549]]",[],0.0,0.0
1787145671.8555615,2.67048994477425,0.011393725660037941,2.0172939021759557,"[ 2.75095435e-05  1.94891891e-07  0.00000000e+00  0.00000000e+00
  0.00000000e+00 -2.80011830e-07  1.94891891e-07  2.51278353e-05
  0.00000000e+00  0.00000000e+00  0.00000000e+00 -8.56782573e-07
  0.00000000e+00  0.00000000e+00  0.00000000e+00  0.00000000e+00
  0.00000000e+00  0.00000000e+00  0.00000000e+00  0.00000000e+00
  0.00000000e+00  0.00000000e+00  0.00000000e+00  0.00000000e+00
  0.00000000e+00  0.00000000e+00  0.00000000e+00  0.00000000e+00
  0.00000000e+00  0.00000000e+00 -2.80011830e-07 -8.56782573e-07
  0.00000000e+00  0.00000000e+00  0.00000000e+00  2.63868981e-06]","[[ 0.00027609  0.01425962]
 [-0.00057157  0.00712694]]",[],0.0,0.0
1787145671.8724904,2.67048994477425,0.011393725660037941,2.0172939021759557,"[ 2.75095435e-05  1.94891891e-07  0.00000000e+00  0.00000000e+00
  0.00000000e+00 -2.80011830e-07  1.94891891e-07  2.51278353e-05
  0.00000000e+00  0.00000000e+00  0.00000000e+00 -8.56782573e-07
  0.00000000e+00  0.00000000e+00  0.00000000e+00  0.00000000e+00
  0.00000000e+00  0.00000000e+00  0.00000000e+00  0.00000000e+00
  0.00000000e+00  0.00000000e+00  0.00000000e+00  0.00000000e+00
  0.00000000e+00  0.00000000e+00  0.00000000e+00  0.00000000e+00
  0.00000000e+00  0.00000000e+00 -2.80011830e-07 -8.56782573e-07
  0.00000000e+00  0.00000000e+00  0.00000000e+00  2.63868981e-06]","[[ 0.00027609  0.01425962]
 [-0.00057157  0.00712694]]",[],0.0,0.0
1787145671.9159276,2.6654301223678267,0.0014342253523561357,2.017419437610797,"[ 1.79356142e-05  3.70786712e-07  0.00000000e+00  0.00000000e+00
  0.00000000e+00 -1.48455601e-07  3.70786712e-07  1.65870902e-05
  0.00000000e+00  0.00000000e+00  0.00000000e+00 -5.00877682e-07
  0.00000000e+00  0.00000000e+00  0.00000000e+00  0.00000000e+00
  0.00000000e+00  0.00000000e+00  0.00000000e+00  0.00000000e+00
  0.00000000e+00  0.00000000e+00  0.00000000e+00  0.00000000e+00
  0.00000000e+00  0.00000000e+00  0.00000000e+00  0.00000000e+00
  0.00000000e+00  0.00000000e+00 -1.48455601e-07 -5.00877682e-07
  0.00000000e+00  0.00000000e+00  0.00000000e+00  2.58434901e-06]","[[ 0.00017252  0.00930761]
 [-0.00037565  0.00467836]]",[],0.0,0.0
1787145671.9672165,2.6654301223678267,0.0014342253523561357,2.017419437610797,"[ 1.79356142e-05  3.70786712e-07  0.00000000e+00  0.00000000e+00
  0.00000000e+00 -1.48455601e-07  3.70786712e-07  1.65870902e-05
  0.00000000e+00  0.00000000e+00  0.00000000e+00 -5.00877682e-07
  0.00000000e+00  0.00000000e+00  0.00000000e+00  0.00000000e+00
  0.00000000e+00  0.00000000e+00  0.00000000e+00  0.00000000e+00
  0.00000000e+00  0.00000000e+00  0.00000000e+00  0.00000000e+00
  0.00000000e+00  0.00000000e+00  0.00000000e+00  0.00000000e+00
  0.00000000e+00  0.00000000e+00 -1.48455601e-07 -5.00877682e-07
  0.00000000e+00  0.00000000e+00  0.00000000e+00  2.58434901e-06]","[[ 0.00017252  0.00930761]
 [-0.00037565  0.00467836]]",[],0.0,0.0
1787145672.0150187,2.6654301223678267,0.0014342253523561357,2.017419437610797,"[ 1.79356142e-05  3.70786712e-07  0.00000000e+00  0.00000000e+00
  0.00000000e+00 -1.48455601e-07  3.70786712e-07  1.65870902e-05
  0.00000000e+00  0.00000000e+00  0.00000000e+00 -5.00877682e-07
  0.00000000e+00  0.00000000e+00  0.00000000e+00  0.00000000e+00
  0.00000000e+00  0.00000000e+00  0.00000000e+00  0.00000000e+00
  0.00000000e+00  0.00000000e+00  0.00000000e+00  0.00000000e+00
  0.00000000e+00  0.00000000e+00  0.00000000e+00  0.00000000e+00
  0.00000000e+00  0.00000000e+00 -1.48455601e-07 -5.00877682e-07
  0.00000000e+00  0.00000000e+00  0.00000000e+00  2.58434901e-06]","[[ 0.00017252  0.00930761]
 [-0.00037565  0.00467836]]",[],0.0,0.0
1787145672.0830832,2.6654301223678267,0.0014342253523561357,2.017419437610797,"[ 1.79356142e-05  3.70786712e-07  0.00000000e+00  0.00000000e+00
  0.00000000e+00 -1.48455601e-07  3.70786712e-07  1.65870902e-05
  0.00000000e+00  0.00000000e+00  0.00000000e+00 -5.00877682e-07
  0.00000000e+00  0.00000000e+00  0.00000000e+00  0.00000000e+00
  0.00000000e+00  0.00000000e+00  0.00000000e+00  0.00000000e+00
  0.00000000e+00  0.00000000e+00  0.00000000e+00  0.00000000e+00
  0.00000000e+00  0.00000000e+00  0.00000000e+00  0.00000000e+00
  0.00000000e+00  0.00000000e+00 -1.48455601e-07 -5.00877682e-07
  0.00000000e+00  0.00000000e+00  0.00000000e+00  2.58434901e-06]","[[ 0.00017252  0.00930761]
 [-0.00037565  0.00467836]]",[],0.0,0.0
1787145672.132951,2.6654301223678267,0.0014342253523561357,2.017419437610797,"[ 1.79356142e-05  3.70786712e-07  0.00000000e+00  0.00000000e+00
  0.00000000e+00 -1.48455601e-07  3.70786712e-07  1.65870902e-05
  0.00000000e+00  0.00000000e+00  0.00000000e+00 -5.00877682e-07
  0.00000000e+00  0.00000000e+00  0.00000000e+00  0.00000000e+00
  0.00000000e+00  0.00000000e+00  0.00000000e+00  0.00000000e+00
  0.00000000e+00  0.00000000e+00  0.00000000e+00  0.00000000e+00
  0.00000000e+00  0.00000000e+00  0.00000000e+00  0.00000000e+00
  0.00000000e+00  0.00000000e+00 -1.48455601e-07 -5.00877682e-07
  0.00000000e+00  0.00000000e+00  0.00000000e+00  2.58434901e-06]","[[ 0.00017252  0.00930761]
 [-0.00037565  0.00467836]]",[],0.0,0.0
1787145672.1646671,2.6654301223678267,0.0014342253523561357,2.017419437610797,"[ 1.79356142e-05  3.70786712e-07  0.00000000e+00  0.00000000e+00
  0.00000000e+00 -1.48455601e-07  3.70786712e-07  1.65870902e-05
  0.00000000e+00  0.00000000e+00  0.00000000e+00 -5.00877682e-07
  0.00000000e+00  0.00000000e+00  0.00000000e+00  0.00000000e+00
  0.00000000e+00  0.00000000e+00  0.00000000e+00  0.00000000e+00
  0.00000000e+00  0.00000000e+00  0.00000000e+00  0.00000000e+00
  0.00000000e+00  0.00000000e+00  0.00000000e+00  0.00000000e+00
  0.00000000e+00  0.00000000e+00 -1.48455601e-07 -5.00877682e-07
  0.00000000e+00  0.00000000e+00  0.00000000e+00  2.58434901e-06]","[[ 0.00017252  0.00930761]
 [-0.00037565  0.00467836]]",[],0.0,0.0
1787145672.2170947,2.6654301223678267,0.0014342253523561357,2.017419437610797,"[ 1.79356142e-05  3.70786712e-07  0.00000000e+00  0.00000000e+00
  0.00000000e+00 -1.48455601e-07  3.70786712e-07  1.65870902e-05
  0.00000000e+00  0.00000000e+00  0.00000000e+00 -5.00877682e-07
  0.00000000e+00  0.00000000e+00  0.00000000e+00  0.00000000e+00
  0.00000000e+00  0.00000000e+00  0.00000000e+00  0.00000000e+00
  0.00000000e+00  0.00000000e+00  0.00000000e+00  0.00000000e+00
  0.00000000e+00  0.00000000e+00  0.00000000e+00  0.00000000e+00
  0.00000000e+00  0.00000000e+00 -1.48455601e-07 -5.00877682e-07
  0.00000000e+00  0.00000000e+00  0.00000000e+00  2.58434901e-06]","[[ 0.00017252  0.00930761]
 [-0.00037565  0.00467836]]",[],0.0,0.0
1787145672.265664,2.6654301223678267,0.0014342253523561357,2.017419437610797,"[ 1.79356142e-05  3.70786712e-07  0.00000000e+00  0.00000000e+00
  0.00000000e+00 -1.48455601e-07  3.70786712e-07  1.65870902e-05
  0.00000000e+00  0.00000000e+00  0.00000000e+00 -5.00877682e-07
  0.00000000e+00  0.00000000e+00  0.00000000e+00  0.00000000e+00
  0.00000000e+00  0.00000000e+00  0.00000000e+00  0.00000000e+00
  0.00000000e+00  0.00000000e+00  0.00000000e+00  0.00000000e+00
  0.00000000e+00  0.00000000e+00  0.00000000e+00  0.00000000e+00
  0.00000000e+00  0.00000000e+00 -1.48455601e-07 -5.00877682e-07
  0.00000000e+00  0.00000000e+00  0.00000000e+00  2.58434901e-06]","[[ 0.00017252  0.00930761]
 [-0.00037565  0.00467836]]",[],0.0,0.0
1787145672.3159068,2.6654301223678267,0.0014342253523561357,2.017419437610797,"[ 1.79356142e-05  3.70786712e-07  0.00000000e+00  0.00000000e+00
  0.00000000e+00 -1.48455601e-07  3.70786712e-07  1.65870902e-05
  0.00000000e+00  0.00000000e+00  0.00000000e+00 -5.00877682e-07
  0.00000000e+00  0.00000000e+00  0.00000000e+00  0.00000000e+00
  0.00000000e+00  0.00000000e+00  0.00000000e+00  0.00000000e+00
  0.00000000e+00  0.00000000e+00  0.00000000e+00  0.00000000e+00
  0.00000000e+00  0.00000000e+00  0.00000000e+00  0.00000000e+00
  0.00000000e+00  0.00000000e+00 -1.48455601e-07 -5.00877682e-07
  0.00000000e+00  0.00000000e+00  0.00000000e+00  2.58434901e-06]","[[ 0.00017252  0.00930761]
 [-0.00037565  0.00467836]]",[],0.0,0.0
1787145672.3650258,2.6654301223678267,0.0014342253523561357,2.017419437610797,"[ 1.79356142e-05  3.70786712e-07  0.00000000e+00  0.00000000e+00
  0.00000000e+00 -1.48455601e-07  3.70786712e-07  1.65870902e-05
  0.00000000e+00  0.00000000e+00  0.00000000e+00 -5.00877682e-07
  0.00000000e+00  0.00000000e+00  0.00000000e+00  0.00000000e+00
  0.00000000e+00  0.00000000e+00  0.00000000e+00  0.00000000e+00
  0.00000000e+00  0.00000000e+00  0.00000000e+00  0.00000000e+00
  0.00000000e+00  0.00000000e+00  0.00000000e+00  0.00000000e+00
  0.00000000e+00  0.00000000e+00 -1.48455601e-07 -5.00877682e-07
  0.00000000e+00  0.00000000e+00  0.00000000e+00  2.58434901e-06]","[[ 0.00017252  0.00930761]
 [-0.00037565  0.00467836]]",[],0.0,0.0
1787145672.4138994,2.6654301223678267,0.0014342253523561357,2.017419437610797,"[ 1.79356142e-05  3.70786712e-07  0.00000000e+00  0.00000000e+00
  0.00000000e+00 -1.48455601e-07  3.70786712e-07  1.65870902e-05
  0.00000000e+00  0.00000000e+00  0.00000000e+00 -5.00877682e-07
  0.00000000e+00  0.00000000e+00  0.00000000e+00  0.00000000e+00
  0.00000000e+00  0.00000000e+00  0.00000000e+00  0.00000000e+00
  0.00000000e+00  0.00000000e+00  0.00000000e+00  0.00000000e+00
  0.00000000e+00  0.00000000e+00  0.00000000e+00  0.00000000e+00
  0.00000000e+00  0.00000000e+00 -1.48455601e-07 -5.00877682e-07
  0.00000000e+00  0.00000000e+00  0.00000000e+00  2.58434901e-06]","[[ 0.00017252  0.00930761]
 [-0.00037565  0.00467836]]",[],0.0,0.0
1787145672.4643133,2.6654301223678267,0.0014342253523561357,2.017419437610797,"[ 1.79356142e-05  3.70786712e-07  0.00000000e+00  0.00000000e+00
  0.00000000e+00 -1.48455601e-07  3.70786712e-07  1.65870902e-05
  0.00000000e+00  0.00000000e+00  0.00000000e+00 -5.00877682e-07
  0.00000000e+00  0.00000000e+00  0.00000000e+00  0.00000000e+00
  0.00000000e+00  0.00000000e+00  0.00000000e+00  0.00000000e+00
  0.00000000e+00  0.00000000e+00  0.00000000e+00  0.00000000e+00
  0.00000000e+00  0.00000000e+00  0.00000000e+00  0.00000000e+00
  0.00000000e+00  0.00000000e+00 -1.48455601e-07 -5.00877682e-07
  0.00000000e+00  0.00000000e+00  0.00000000e+00  2.58434901e-06]","[[ 0.00017252  0.00930761]
 [-0.00037565  0.00467836]]",[],0.0,0.0
1787145672.514713,2.6654301223678267,0.0014342253523561357,2.017419437610797,"[ 1.79356142e-05  3.70786712e-07  0.00000000e+00  0.00000000e+00
  0.00000000e+00 -1.48455601e-07  3.70786712e-07  1.65870902e-05
  0.00000000e+00  0.00000000e+00  0.00000000e+00 -5.00877682e-07
  0.00000000e+00  0.00000000e+00  0.00000000e+00  0.00000000e+00
  0.00000000e+00  0.00000000e+00  0.00000000e+00  0.00000000e+00
  0.00000000e+00  0.00000000e+00  0.00000000e+00  0.00000000e+00
  0.00000000e+00  0.00000000e+00  0.00000000e+00  0.00000000e+00
  0.00000000e+00  0.00000000e+00 -1.48455601e-07 -5.00877682e-07
  0.00000000e+00  0.00000000e+00  0.00000000e+00  2.58434901e-06]","[[ 0.00017252  0.00930761]
 [-0.00037565  0.00467836]]",[],0.0,0.0
1787145672.5642905,2.6654301223678267,0.0014342253523561357,2.017419437610797,"[ 1.79356142e-05  3.70786712e-07  0.00000000e+00  0.00000000e+00
  0.00000000e+00 -1.48455601e-07  3.70786712e-07  1.65870902e-05
  0.00000000e+00  0.00000000e+00  0.00000000e+00 -5.00877682e-07
  0.00000000e+00  0.00000000e+00  0.00000000e+00  0.00000000e+00
  0.00000000e+00  0.00000000e+00  0.00000000e+00  0.00000000e+00
  0.00000000e+00  0.00000000e+00  0.00000000e+00  0.00000000e+00
  0.00000000e+00  0.00000000e+00  0.00000000e+00  0.00000000e+00
  0.00000000e+00  0.00000000e+00 -1.48455601e-07 -5.00877682e-07
  0.00000000e+00  0.00000000e+00  0.00000000e+00  2.58434901e-06]","[[ 0.00017252  0.00930761]
 [-0.00037565  0.00467836]]",[],0.0,0.0
1787145672.614762,2.6654301223678267,0.0014342253523561357,2.017419437610797,"[ 1.79356142e-05  3.70786712e-07  0.00000000e+00  0.00000000e+00
  0.00000000e+00 -1.48455601e-07  3.70786712e-07  1.65870902e-05
  0.00000000e+00  0.00000000e+00  0.00000000e+00 -5.00877682e-07
  0.00000000e+00  0.00000000e+00  0.00000000e+00  0.00000000e+00
  0.00000000e+00  0.00000000e+00  0.00000000e+00  0.00000000e+00
  0.00000000e+00  0.00000000e+00  0.00000000e+00  0.00000000e+00
  0.00000000e+00  0.00000000e+00  0.00000000e+00  0.00000000e+00
  0.00000000e+00  0.00000000e+00 -1.48455601e-07 -5.00877682e-07
  0.00000000e+00  0.00000000e+00  0.00000000e+00  2.58434901e-06]","[[ 0.00017252  0.00930761]
 [-0.00037565  0.00467836]]",[],0.0,0.0
1787145672.664251,2.6635777954750597,-0.0035926589919167678,2.015377536124195,"[ 1.33630200e-05  2.82396552e-07  0.00000000e+00  0.00000000e+00
  0.00000000e+00  2.04675150e-08  2.82396552e-07  1.24665885e-05
  0.00000000e+00  0.00000000e+00  0.00000000e+00 -2.43388261e-07
  0.00000000e+00  0.00000000e+00  0.00000000e+00  0.00000000e+00
  0.00000000e+00  0.00000000e+00  0.00000000e+00  0.00000000e+00
  0.00000000e+00  0.00000000e+00  0.00000000e+00  0.00000000e+00
  0.00000000e+00  0.00000000e+00  0.00000000e+00  0.00000000e+00
  0.00000000e+00  0.00000000e+00  2.04675150e-08 -2.43388261e-07
  0.00000000e+00  0.00000000e+00  0.00000000e+00  2.78950290e-06]","[[ 0.00013222  0.00687944]
 [-0.00028063  0.00346099]]",[],0.0,0.0
1787145672.7161093,2.6635777954750597,-0.0035926589919167678,2.015377536124195,"[ 1.33630200e-05  2.82396552e-07  0.00000000e+00  0.00000000e+00
  0.00000000e+00  2.04675150e-08  2.82396552e-07  1.24665885e-05
  0.00000000e+00  0.00000000e+00  0.00000000e+00 -2.43388261e-07
  0.00000000e+00  0.00000000e+00  0.00000000e+00  0.00000000e+00
  0.00000000e+00  0.00000000e+00  0.00000000e+00  0.00000000e+00
  0.00000000e+00  0.00000000e+00  0.00000000e+00  0.00000000e+00
  0.00000000e+00  0.00000000e+00  0.00000000e+00  0.00000000e+00
  0.00000000e+00  0.00000000e+00  2.04675150e-08 -2.43388261e-07
  0.00000000e+00  0.00000000e+00  0.00000000e+00  2.78950290e-06]","[[ 0.00013222  0.00687944]
 [-0.00028063  0.00346099]]",[],0.0,0.0
1787145672.7643456,2.6635777954750597,-0.0035926589919167678,2.015377536124195,"[ 1.33630200e-05  2.82396552e-07  0.00000000e+00  0.00000000e+00
  0.00000000e+00  2.04675150e-08  2.82396552e-07  1.24665885e-05
  0.00000000e+00  0.00000000e+00  0.00000000e+00 -2.43388261e-07
  0.00000000e+00  0.00000000e+00  0.00000000e+00  0.00000000e+00
  0.00000000e+00  0.00000000e+00  0.00000000e+00  0.00000000e+00
  0.00000000e+00  0.00000000e+00  0.00000000e+00  0.00000000e+00
  0.00000000e+00  0.00000000e+00  0.00000000e+00  0.00000000e+00
  0.00000000e+00  0.00000000e+00  2.04675150e-08 -2.43388261e-07
  0.00000000e+00  0.00000000e+00  0.00000000e+00  2.78950290e-06]","[[ 0.00013222  0.00687944]
 [-0.00028063  0.00346099]]",[],0.0,0.0
1787145672.8166566,2.6635777954750597,-0.0035926589919167678,2.015377536124195,"[ 1.33630200e-05  2.82396552e-07  0.00000000e+00  0.00000000e+00
  0.00000000e+00  2.04675150e-08  2.82396552e-07  1.24665885e-05
  0.00000000e+00  0.00000000e+00  0.00000000e+00 -2.43388261e-07
  0.00000000e+00  0.00000000e+00  0.00000000e+00  0.00000000e+00
  0.00000000e+00  0.00000000e+00  0.00000000e+00  0.00000000e+00
  0.00000000e+00  0.00000000e+00  0.00000000e+00  0.00000000e+00
  0.00000000e+00  0.00000000e+00  0.00000000e+00  0.00000000e+00
  0.00000000e+00  0.00000000e+00  2.04675150e-08 -2.43388261e-07
  0.00000000e+00  0.00000000e+00  0.00000000e+00  2.78950290e-06]","[[ 0.00013222  0.00687944]
 [-0.00028063  0.00346099]]",[],0.0,0.0
1787145672.8669758,2.6635777954750597,-0.0035926589919167678,2.015377536124195,"[ 1.33630200e-05  2.82396552e-07  0.00000000e+00  0.00000000e+00
  0.00000000e+00  2.04675150e-08  2.82396552e-07  1.24665885e-05
  0.00000000e+00  0.00000000e+00  0.00000000e+00 -2.43388261e-07
  0.00000000e+00  0.00000000e+00  0.00000000e+00  0.00000000e+00
  0.00000000e+00  0.00000000e+00  0.00000000e+00  0.00000000e+00
  0.00000000e+00  0.00000000e+00  0.00000000e+00  0.00000000e+00
  0.00000000e+00  0.00000000e+00  0.00000000e+00  0.00000000e+00
  0.00000000e+00  0.00000000e+00  2.04675150e-08 -2.43388261e-07
  0.00000000e+00  0.00000000e+00  0.00000000e+00  2.78950290e-06]","[[ 0.00013222  0.00687944]
 [-0.00028063  0.00346099]]",[],0.0,0.0
1787145672.9158487,2.6635777954750597,-0.0035926589919167678,2.015377536124195,"[ 1.33630200e-05  2.82396552e-07  0.00000000e+00  0.00000000e+00
  0.00000000e+00  2.04675150e-08  2.82396552e-07  1.24665885e-05
  0.00000000e+00  0.00000000e+00  0.00000000e+00 -2.43388261e-07
  0.00000000e+00  0.00000000e+00  0.00000000e+00  0.00000000e+00
  0.00000000e+00  0.00000000e+00  0.00000000e+00  0.00000000e+00
  0.00000000e+00  0.00000000e+00  0.00000000e+00  0.00000000e+00
  0.00000000e+00  0.00000000e+00  0.00000000e+00  0.00000000e+00
  0.00000000e+00  0.00000000e+00  2.04675150e-08 -2.43388261e-07
  0.00000000e+00  0.00000000e+00  0.00000000e+00  2.78950290e-06]","[[ 0.00013222  0.00687944]
 [-0.00028063  0.00346099]]",[],0.0,0.0
1787145672.9657483,2.6635777954750597,-0.0035926589919167678,2.015377536124195,"[ 1.33630200e-05  2.82396552e-07  0.00000000e+00  0.00000000e+00
  0.00000000e+00  2.04675150e-08  2.82396552e-07  1.24665885e-05
  0.00000000e+00  0.00000000e+00  0.00000000e+00 -2.43388261e-07
  0.00000000e+00  0.00000000e+00  0.00000000e+00  0.00000000e+00
  0.00000000e+00  0.00000000e+00  0.00000000e+00  0.00000000e+00
  0.00000000e+00  0.00000000e+00  0.00000000e+00  0.00000000e+00
  0.00000000e+00  0.00000000e+00  0.00000000e+00  0.00000000e+00
  0.00000000e+00  0.00000000e+00  2.04675150e-08 -2.43388261e-07
  0.00000000e+00  0.00000000e+00  0.00000000e+00  2.78950290e-06]","[[ 0.00013222  0.00687944]
 [-0.00028063  0.00346099]]",[],0.0,0.0
1787145673.0168173,2.6635777954750597,-0.0035926589919167678,2.015377536124195,"[ 1.33630200e-05  2.82396552e-07  0.00000000e+00  0.00000000e+00
  0.00000000e+00  2.04675150e-08  2.82396552e-07  1.24665885e-05
  0.00000000e+00  0.00000000e+00  0.00000000e+00 -2.43388261e-07
  0.00000000e+00  0.00000000e+00  0.00000000e+00  0.00000000e+00
  0.00000000e+00  0.00000000e+00  0.00000000e+00  0.00000000e+00
  0.00000000e+00  0.00000000e+00  0.00000000e+00  0.00000000e+00
  0.00000000e+00  0.00000000e+00  0.00000000e+00  0.00000000e+00
  0.00000000e+00  0.00000000e+00  2.04675150e-08 -2.43388261e-07
  0.00000000e+00  0.00000000e+00  0.00000000e+00  2.78950290e-06]","[[ 0.00013222  0.00687944]
 [-0.00028063  0.00346099]]",[],0.0,0.0
1787145673.0750947,2.6635777954750597,-0.0035926589919167678,2.015377536124195,"[ 1.33630200e-05  2.82396552e-07  0.00000000e+00  0.00000000e+00
  0.00000000e+00  2.04675150e-08  2.82396552e-07  1.24665885e-05
  0.00000000e+00  0.00000000e+00  0.00000000e+00 -2.43388261e-07
  0.00000000e+00  0.00000000e+00  0.00000000e+00  0.00000000e+00
  0.00000000e+00  0.00000000e+00  0.00000000e+00  0.00000000e+00
  0.00000000e+00  0.00000000e+00  0.00000000e+00  0.00000000e+00
  0.00000000e+00  0.00000000e+00  0.00000000e+00  0.00000000e+00
  0.00000000e+00  0.00000000e+00  2.04675150e-08 -2.43388261e-07
  0.00000000e+00  0.00000000e+00  0.00000000e+00  2.78950290e-06]","[[ 0.00013222  0.00687944]
 [-0.00028063  0.00346099]]",[],0.0,0.0
1787145673.1219046,2.6635777954750597,-0.0035926589919167678,2.015377536124195,"[ 1.33630200e-05  2.82396552e-07  0.00000000e+00  0.00000000e+00
  0.00000000e+00  2.04675150e-08  2.82396552e-07  1.24665885e-05
  0.00000000e+00  0.00000000e+00  0.00000000e+00 -2.43388261e-07
  0.00000000e+00  0.00000000e+00  0.00000000e+00  0.00000000e+00
  0.00000000e+00  0.00000000e+00  0.00000000e+00  0.00000000e+00
  0.00000000e+00  0.00000000e+00  0.00000000e+00  0.00000000e+00
  0.00000000e+00  0.00000000e+00  0.00000000e+00  0.00000000e+00
  0.00000000e+00  0.00000000e+00  2.04675150e-08 -2.43388261e-07
  0.00000000e+00  0.00000000e+00  0.00000000e+00  2.78950290e-06]","[[ 0.00013222  0.00687944]
 [-0.00028063  0.00346099]]",[],0.0,0.0
1787145673.1667395,2.6635777954750597,-0.0035926589919167678,2.015377536124195,"[ 1.33630200e-05  2.82396552e-07  0.00000000e+00  0.00000000e+00
  0.00000000e+00  2.04675150e-08  2.82396552e-07  1.24665885e-05
  0.00000000e+00  0.00000000e+00  0.00000000e+00 -2.43388261e-07
  0.00000000e+00  0.00000000e+00  0.00000000e+00  0.00000000e+00
  0.00000000e+00  0.00000000e+00  0.00000000e+00  0.00000000e+00
  0.00000000e+00  0.00000000e+00  0.00000000e+00  0.00000000e+00
  0.00000000e+00  0.00000000e+00  0.00000000e+00  0.00000000e+00
  0.00000000e+00  0.00000000e+00  2.04675150e-08 -2.43388261e-07
  0.00000000e+00  0.00000000e+00  0.00000000e+00  2.78950290e-06]","[[ 0.00013222  0.00687944]
 [-0.00028063  0.00346099]]",[],0.0,0.0
1787145673.2139127,2.6635777954750597,-0.0035926589919167678,2.015377536124195,"[ 1.33630200e-05  2.82396552e-07  0.00000000e+00  0.00000000e+00
  0.00000000e+00  2.04675150e-08  2.82396552e-07  1.24665885e-05
  0.00000000e+00  0.00000000e+00  0.00000000e+00 -2.43388261e-07
  0.00000000e+00  0.00000000e+00  0.00000000e+00  0.00000000e+00
  0.00000000e+00  0.00000000e+00  0.00000000e+00  0.00000000e+00
  0.00000000e+00  0.00000000e+00  0.00000000e+00  0.00000000e+00
  0.00000000e+00  0.00000000e+00  0.00000000e+00  0.00000000e+00
  0.00000000e+00  0.00000000e+00  2.04675150e-08 -2.43388261e-07
  0.00000000e+00  0.00000000e+00  0.00000000e+00  2.78950290e-06]","[[ 0.00013222  0.00687944]
 [-0.00028063  0.00346099]]",[],0.0,0.0
1787145673.2639637,2.6635777954750597,-0.0035926589919167678,2.015377536124195,"[ 1.33630200e-05  2.82396552e-07  0.00000000e+00  0.00000000e+00
  0.00000000e+00  2.04675150e-08  2.82396552e-07  1.24665885e-05
  0.00000000e+00  0.00000000e+00  0.00000000e+00 -2.43388261e-07
  0.00000000e+00  0.00000000e+00  0.00000000e+00  0.00000000e+00
  0.00000000e+00  0.00000000e+00  0.00000000e+00  0.00000000e+00
  0.00000000e+00  0.00000000e+00  0.00000000e+00  0.00000000e+00
  0.00000000e+00  0.00000000e+00  0.00000000e+00  0.00000000e+00
  0.00000000e+00  0.00000000e+00  2.04675150e-08 -2.43388261e-07
  0.00000000e+00  0.00000000e+00  0.00000000e+00  2.78950290e-06]","[[ 0.00013222  0.00687944]
 [-0.00028063  0.00346099]]",[],0.0,0.0
1787145673.3169432,2.6635777954750597,-0.0035926589919167678,2.015377536124195,"[ 1.33630200e-05  2.82396552e-07  0.00000000e+00  0.00000000e+00
  0.00000000e+00  2.04675150e-08  2.82396552e-07  1.24665885e-05
  0.00000000e+00  0.00000000e+00  0.00000000e+00 -2.43388261e-07
  0.00000000e+00  0.00000000e+00  0.00000000e+00  0.00000000e+00
  0.00000000e+00  0.00000000e+00  0.00000000e+00  0.00000000e+00
  0.00000000e+00  0.00000000e+00  0.00000000e+00  0.00000000e+00
  0.00000000e+00  0.00000000e+00  0.00000000e+00  0.00000000e+00
  0.00000000e+00  0.00000000e+00  2.04675150e-08 -2.43388261e-07
  0.00000000e+00  0.00000000e+00  0.00000000e+00  2.78950290e-06]","[[ 0.00013222  0.00687944]
 [-0.00028063  0.00346099]]",[],0.0,0.0
1787145673.3640263,2.6635777954750597,-0.0035926589919167678,2.015377536124195,"[ 1.33630200e-05  2.82396552e-07  0.00000000e+00  0.00000000e+00
  0.00000000e+00  2.04675150e-08  2.82396552e-07  1.24665885e-05
  0.00000000e+00  0.00000000e+00  0.00000000e+00 -2.43388261e-07
  0.00000000e+00  0.00000000e+00  0.00000000e+00  0.00000000e+00
  0.00000000e+00  0.00000000e+00  0.00000000e+00  0.00000000e+00
  0.00000000e+00  0.00000000e+00  0.00000000e+00  0.00000000e+00
  0.00000000e+00  0.00000000e+00  0.00000000e+00  0.00000000e+00
  0.00000000e+00  0.00000000e+00  2.04675150e-08 -2.43388261e-07
  0.00000000e+00  0.00000000e+00  0.00000000e+00  2.78950290e-06]","[[ 0.00013222  0.00687944]
 [-0.00028063  0.00346099]]",[],0.0,0.0
1787145673.4145634,2.664202614718607,-0.004996123236431183,2.013020567860538,"[ 1.05126654e-05  1.81740702e-07  0.00000000e+00  0.00000000e+00
  0.00000000e+00 -6.99888894e-08  1.81740702e-07  9.95630248e-06
  0.00000000e+00  0.00000000e+00  0.00000000e+00 -2.45345108e-07
  0.00000000e+00  0.00000000e+00  0.00000000e+00  0.00000000e+00
  0.00000000e+00  0.00000000e+00  0.00000000e+00  0.00000000e+00
  0.00000000e+00  0.00000000e+00  0.00000000e+00  0.00000000e+00
  0.00000000e+00  0.00000000e+00  0.00000000e+00  0.00000000e+00
  0.00000000e+00  0.00000000e+00 -6.99888894e-08 -2.45345108e-07
  0.00000000e+00  0.00000000e+00  0.00000000e+00  2.71638298e-06]","[[ 0.00010462  0.00554098]
 [-0.00022471  0.00281632]]",[],0.0,0.0
1787145673.4636986,2.664202614718607,-0.004996123236431183,2.013020567860538,"[ 1.05126654e-05  1.81740702e-07  0.00000000e+00  0.00000000e+00
  0.00000000e+00 -6.99888894e-08  1.81740702e-07  9.95630248e-06
  0.00000000e+00  0.00000000e+00  0.00000000e+00 -2.45345108e-07
  0.00000000e+00  0.00000000e+00  0.00000000e+00  0.00000000e+00
  0.00000000e+00  0.00000000e+00  0.00000000e+00  0.00000000e+00
  0.00000000e+00  0.00000000e+00  0.00000000e+00  0.00000000e+00
  0.00000000e+00  0.00000000e+00  0.00000000e+00  0.00000000e+00
  0.00000000e+00  0.00000000e+00 -6.99888894e-08 -2.45345108e-07
  0.00000000e+00  0.00000000e+00  0.00000000e+00  2.71638298e-06]","[[ 0.00010462  0.00554098]
 [-0.00022471  0.00281632]]",[],0.0,0.0
1787145673.5148406,2.664202614718607,-0.004996123236431183,2.013020567860538,"[ 1.05126654e-05  1.81740702e-07  0.00000000e+00  0.00000000e+00
  0.00000000e+00 -6.99888894e-08  1.81740702e-07  9.95630248e-06
  0.00000000e+00  0.00000000e+00  0.00000000e+00 -2.45345108e-07
  0.00000000e+00  0.00000000e+00  0.00000000e+00  0.00000000e+00
  0.00000000e+00  0.00000000e+00  0.00000000e+00  0.00000000e+00
  0.00000000e+00  0.00000000e+00  0.00000000e+00  0.00000000e+00
  0.00000000e+00  0.00000000e+00  0.00000000e+00  0.00000000e+00
  0.00000000e+00  0.00000000e+00 -6.99888894e-08 -2.45345108e-07
  0.00000000e+00  0.00000000e+00  0.00000000e+00  2.71638298e-06]","[[ 0.00010462  0.00554098]
 [-0.00022471  0.00281632]]",[],0.0,0.0
1787145673.5649118,2.664202614718607,-0.004996123236431183,2.013020567860538,"[ 1.05126654e-05  1.81740702e-07  0.00000000e+00  0.00000000e+00
  0.00000000e+00 -6.99888894e-08  1.81740702e-07  9.95630248e-06
  0.00000000e+00  0.00000000e+00  0.00000000e+00 -2.45345108e-07
  0.00000000e+00  0.00000000e+00  0.00000000e+00  0.00000000e+00
  0.00000000e+00  0.00000000e+00  0.00000000e+00  0.00000000e+00
  0.00000000e+00  0.00000000e+00  0.00000000e+00  0.00000000e+00
  0.00000000e+00  0.00000000e+00  0.00000000e+00  0.00000000e+00
  0.00000000e+00  0.00000000e+00 -6.99888894e-08 -2.45345108e-07
  0.00000000e+00  0.00000000e+00  0.00000000e+00  2.71638298e-06]","[[ 0.00010462  0.00554098]
 [-0.00022471  0.00281632]]",[],0.0,0.0
1787145673.6140065,2.664202614718607,-0.004996123236431183,2.013020567860538,"[ 1.05126654e-05  1.81740702e-07  0.00000000e+00  0.00000000e+00
  0.00000000e+00 -6.99888894e-08  1.81740702e-07  9.95630248e-06
  0.00000000e+00  0.00000000e+00  0.00000000e+00 -2.45345108e-07
  0.00000000e+00  0.00000000e+00  0.00000000e+00  0.00000000e+00
  0.00000000e+00  0.00000000e+00  0.00000000e+00  0.00000000e+00
  0.00000000e+00  0.00000000e+00  0.00000000e+00  0.00000000e+00
  0.00000000e+00  0.00000000e+00  0.00000000e+00  0.00000000e+00
  0.00000000e+00  0.00000000e+00 -6.99888894e-08 -2.45345108e-07
  0.00000000e+00  0.00000000e+00  0.00000000e+00  2.71638298e-06]","[[ 0.00010462  0.00554098]
 [-0.00022471  0.00281632]]",[],0.0,0.0
1787145673.6639388,2.664202614718607,-0.004996123236431183,2.013020567860538,"[ 1.05126654e-05  1.81740702e-07  0.00000000e+00  0.00000000e+00
  0.00000000e+00 -6.99888894e-08  1.81740702e-07  9.95630248e-06
  0.00000000e+00  0.00000000e+00  0.00000000e+00 -2.45345108e-07
  0.00000000e+00  0.00000000e+00  0.00000000e+00  0.00000000e+00
  0.00000000e+00  0.00000000e+00  0.00000000e+00  0.00000000e+00
  0.00000000e+00  0.00000000e+00  0.00000000e+00  0.00000000e+00
  0.00000000e+00  0.00000000e+00  0.00000000e+00  0.00000000e+00
  0.00000000e+00  0.00000000e+00 -6.99888894e-08 -2.45345108e-07
  0.00000000e+00  0.00000000e+00  0.00000000e+00  2.71638298e-06]","[[ 0.00010462  0.00554098]
 [-0.00022471  0.00281632]]",[],0.0,0.0
1787145673.7156088,2.664202614718607,-0.004996123236431183,2.013020567860538,"[ 1.05126654e-05  1.81740702e-07  0.00000000e+00  0.00000000e+00
  0.00000000e+00 -6.99888894e-08  1.81740702e-07  9.95630248e-06
  0.00000000e+00  0.00000000e+00  0.00000000e+00 -2.45345108e-07
  0.00000000e+00  0.00000000e+00  0.00000000e+00  0.00000000e+00
  0.00000000e+00  0.00000000e+00  0.00000000e+00  0.00000000e+00
  0.00000000e+00  0.00000000e+00  0.00000000e+00  0.00000000e+00
  0.00000000e+00  0.00000000e+00  0.00000000e+00  0.00000000e+00
  0.00000000e+00  0.00000000e+00 -6.99888894e-08 -2.45345108e-07
  0.00000000e+00  0.00000000e+00  0.00000000e+00  2.71638298e-06]","[[ 0.00010462  0.00554098]
 [-0.00022471  0.00281632]]",[],0.0,0.0
1787145673.7648356,2.664202614718607,-0.004996123236431183,2.013020567860538,"[ 1.05126654e-05  1.81740702e-07  0.00000000e+00  0.00000000e+00
  0.00000000e+00 -6.99888894e-08  1.81740702e-07  9.95630248e-06
  0.00000000e+00  0.00000000e+00  0.00000000e+00 -2.45345108e-07
  0.00000000e+00  0.00000000e+00  0.00000000e+00  0.00000000e+00
  0.00000000e+00  0.00000000e+00  0.00000000e+00  0.00000000e+00
  0.00000000e+00  0.00000000e+00  0.00000000e+00  0.00000000e+00
  0.00000000e+00  0.00000000e+00  0.00000000e+00  0.00000000e+00
  0.00000000e+00  0.00000000e+00 -6.99888894e-08 -2.45345108e-07
  0.00000000e+00  0.00000000e+00  0.00000000e+00  2.71638298e-06]","[[ 0.00010462  0.00554098]
 [-0.00022471  0.00281632]]",[],0.0,0.0
1787145673.8270972,2.664202614718607,-0.004996123236431183,2.013020567860538,"[ 1.05126654e-05  1.81740702e-07  0.00000000e+00  0.00000000e+00
  0.00000000e+00 -6.99888894e-08  1.81740702e-07  9.95630248e-06
  0.00000000e+00  0.00000000e+00  0.00000000e+00 -2.45345108e-07
  0.00000000e+00  0.00000000e+00  0.00000000e+00  0.00000000e+00
  0.00000000e+00  0.00000000e+00  0.00000000e+00  0.00000000e+00
  0.00000000e+00  0.00000000e+00  0.00000000e+00  0.00000000e+00
  0.00000000e+00  0.00000000e+00  0.00000000e+00  0.00000000e+00
  0.00000000e+00  0.00000000e+00 -6.99888894e-08 -2.45345108e-07
  0.00000000e+00  0.00000000e+00  0.00000000e+00  2.71638298e-06]","[[ 0.00010462  0.00554098]
 [-0.00022471  0.00281632]]",[],0.0,0.0
1787145673.8643932,2.664202614718607,-0.004996123236431183,2.013020567860538,"[ 1.05126654e-05  1.81740702e-07  0.00000000e+00  0.00000000e+00
  0.00000000e+00 -6.99888894e-08  1.81740702e-07  9.95630248e-06
  0.00000000e+00  0.00000000e+00  0.00000000e+00 -2.45345108e-07
  0.00000000e+00  0.00000000e+00  0.00000000e+00  0.00000000e+00
  0.00000000e+00  0.00000000e+00  0.00000000e+00  0.00000000e+00
  0.00000000e+00  0.00000000e+00  0.00000000e+00  0.00000000e+00
  0.00000000e+00  0.00000000e+00  0.00000000e+00  0.00000000e+00
  0.00000000e+00  0.00000000e+00 -6.99888894e-08 -2.45345108e-07
  0.00000000e+00  0.00000000e+00  0.00000000e+00  2.71638298e-06]","[[ 0.00010462  0.00554098]
 [-0.00022471  0.00281632]]",[],0.0,0.0
1787145673.9198942,2.664202614718607,-0.004996123236431183,2.013020567860538,"[ 1.05126654e-05  1.81740702e-07  0.00000000e+00  0.00000000e+00
  0.00000000e+00 -6.99888894e-08  1.81740702e-07  9.95630248e-06
  0.00000000e+00  0.00000000e+00  0.00000000e+00 -2.45345108e-07
  0.00000000e+00  0.00000000e+00  0.00000000e+00  0.00000000e+00
  0.00000000e+00  0.00000000e+00  0.00000000e+00  0.00000000e+00
  0.00000000e+00  0.00000000e+00  0.00000000e+00  0.00000000e+00
  0.00000000e+00  0.00000000e+00  0.00000000e+00  0.00000000e+00
  0.00000000e+00  0.00000000e+00 -6.99888894e-08 -2.45345108e-07
  0.00000000e+00  0.00000000e+00  0.00000000e+00  2.71638298e-06]","[[ 0.00010462  0.00554098]
 [-0.00022471  0.00281632]]",[],0.0,0.0
1787145673.9642777,2.664202614718607,-0.004996123236431183,2.013020567860538,"[ 1.05126654e-05  1.81740702e-07  0.00000000e+00  0.00000000e+00
  0.00000000e+00 -6.99888894e-08  1.81740702e-07  9.95630248e-06
  0.00000000e+00  0.00000000e+00  0.00000000e+00 -2.45345108e-07
  0.00000000e+00  0.00000000e+00  0.00000000e+00  0.00000000e+00
  0.00000000e+00  0.00000000e+00  0.00000000e+00  0.00000000e+00
  0.00000000e+00  0.00000000e+00  0.00000000e+00  0.00000000e+00
  0.00000000e+00  0.00000000e+00  0.00000000e+00  0.00000000e+00
  0.00000000e+00  0.00000000e+00 -6.99888894e-08 -2.45345108e-07
  0.00000000e+00  0.00000000e+00  0.00000000e+00  2.71638298e-06]","[[ 0.00010462  0.00554098]
 [-0.00022471  0.00281632]]",[],0.0,0.0
1787145674.0430624,2.664202614718607,-0.004996123236431183,2.013020567860538,"[ 1.05126654e-05  1.81740702e-07  0.00000000e+00  0.00000000e+00
  0.00000000e+00 -6.99888894e-08  1.81740702e-07  9.95630248e-06
  0.00000000e+00  0.00000000e+00  0.00000000e+00 -2.45345108e-07
  0.00000000e+00  0.00000000e+00  0.00000000e+00  0.00000000e+00
  0.00000000e+00  0.00000000e+00  0.00000000e+00  0.00000000e+00
  0.00000000e+00  0.00000000e+00  0.00000000e+00  0.00000000e+00
  0.00000000e+00  0.00000000e+00  0.00000000e+00  0.00000000e+00
  0.00000000e+00  0.00000000e+00 -6.99888894e-08 -2.45345108e-07
  0.00000000e+00  0.00000000e+00  0.00000000e+00  2.71638298e-06]","[[ 0.00010462  0.00554098]
 [-0.00022471  0.00281632]]",[],0.0,0.0
1787145674.0679364,2.664202614718607,-0.004996123236431183,2.013020567860538,"[ 1.05126654e-05  1.81740702e-07  0.00000000e+00  0.00000000e+00
  0.00000000e+00 -6.99888894e-08  1.81740702e-07  9.95630248e-06
  0.00000000e+00  0.00000000e+00  0.00000000e+00 -2.45345108e-07
  0.00000000e+00  0.00000000e+00  0.00000000e+00  0.00000000e+00
  0.00000000e+00  0.00000000e+00  0.00000000e+00  0.00000000e+00
  0.00000000e+00  0.00000000e+00  0.00000000e+00  0.00000000e+00
  0.00000000e+00  0.00000000e+00  0.00000000e+00  0.00000000e+00
  0.00000000e+00  0.00000000e+00 -6.99888894e-08 -2.45345108e-07
  0.00000000e+00  0.00000000e+00  0.00000000e+00  2.71638298e-06]","[[ 0.00010462  0.00554098]
 [-0.00022471  0.00281632]]",[],0.0,0.0
1787145674.1151307,2.666124368869797,-0.0070862205167951005,2.007187328460832,"[ 8.75788477e-06  1.39248854e-07  0.00000000e+00  0.00000000e+00
  0.00000000e+00 -6.28179473e-08  1.39248854e-07  8.45512387e-06
  0.00000000e+00  0.00000000e+00  0.00000000e+00 -2.53033403e-07
  0.00000000e+00  0.00000000e+00  0.00000000e+00  0.00000000e+00
  0.00000000e+00  0.00000000e+00  0.00000000e+00  0.00000000e+00
  0.00000000e+00  0.00000000e+00  0.00000000e+00  0.00000000e+00
  0.00000000e+00  0.00000000e+00  0.00000000e+00  0.00000000e+00
  0.00000000e+00  0.00000000e+00 -6.28179473e-08 -2.53033403e-07
  0.00000000e+00  0.00000000e+00  0.00000000e+00  2.80409024e-06]","[[ 8.74367539e-05  4.61836029e-03]
 [-1.90988746e-04  2.45677999e-03]]",[],0.0,0.0
1787145674.1638136,2.666124368869797,-0.0070862205167951005,2.007187328460832,"[ 8.75788477e-06  1.39248854e-07  0.00000000e+00  0.00000000e+00
  0.00000000e+00 -6.28179473e-08  1.39248854e-07  8.45512387e-06
  0.00000000e+00  0.00000000e+00  0.00000000e+00 -2.53033403e-07
  0.00000000e+00  0.00000000e+00  0.00000000e+00  0.00000000e+00
  0.00000000e+00  0.00000000e+00  0.00000000e+00  0.00000000e+00
  0.00000000e+00  0.00000000e+00  0.00000000e+00  0.00000000e+00
  0.00000000e+00  0.00000000e+00  0.00000000e+00  0.00000000e+00
  0.00000000e+00  0.00000000e+00 -6.28179473e-08 -2.53033403e-07
  0.00000000e+00  0.00000000e+00  0.00000000e+00  2.80409024e-06]","[[ 8.74367539e-05  4.61836029e-03]
 [-1.90988746e-04  2.45677999e-03]]",[],0.0,0.0
1787145674.2272198,2.666124368869797,-0.0070862205167951005,2.007187328460832,"[ 8.75788477e-06  1.39248854e-07  0.00000000e+00  0.00000000e+00
  0.00000000e+00 -6.28179473e-08  1.39248854e-07  8.45512387e-06
  0.00000000e+00  0.00000000e+00  0.00000000e+00 -2.53033403e-07
  0.00000000e+00  0.00000000e+00  0.00000000e+00  0.00000000e+00
  0.00000000e+00  0.00000000e+00  0.00000000e+00  0.00000000e+00
  0.00000000e+00  0.00000000e+00  0.00000000e+00  0.00000000e+00
  0.00000000e+00  0.00000000e+00  0.00000000e+00  0.00000000e+00
  0.00000000e+00  0.00000000e+00 -6.28179473e-08 -2.53033403e-07
  0.00000000e+00  0.00000000e+00  0.00000000e+00  2.80409024e-06]","[[ 8.74367539e-05  4.61836029e-03]
 [-1.90988746e-04  2.45677999e-03]]",[],0.0,0.0
1787145674.366408,2.666124368869797,-0.0070862205167951005,2.007187328460832,"[ 8.75788477e-06  1.39248854e-07  0.00000000e+00  0.00000000e+00
  0.00000000e+00 -6.28179473e-08  1.39248854e-07  8.45512387e-06
  0.00000000e+00  0.00000000e+00  0.00000000e+00 -2.53033403e-07
  0.00000000e+00  0.00000000e+00  0.00000000e+00  0.00000000e+00
  0.00000000e+00  0.00000000e+00  0.00000000e+00  0.00000000e+00
  0.00000000e+00  0.00000000e+00  0.00000000e+00  0.00000000e+00
  0.00000000e+00  0.00000000e+00  0.00000000e+00  0.00000000e+00
  0.00000000e+00  0.00000000e+00 -6.28179473e-08 -2.53033403e-07
  0.00000000e+00  0.00000000e+00  0.00000000e+00  2.80409024e-06]","[[ 8.74367539e-05  4.61836029e-03]
 [-1.90988746e-04  2.45677999e-03]]",[],0.0,0.0
1787145674.685639,2.666124368869797,-0.0070862205167951005,2.007187328460832,"[ 8.75788477e-06  1.39248854e-07  0.00000000e+00  0.00000000e+00
  0.00000000e+00 -6.28179473e-08  1.39248854e-07  8.45512387e-06
  0.00000000e+00  0.00000000e+00  0.00000000e+00 -2.53033403e-07
  0.00000000e+00  0.00000000e+00  0.00000000e+00  0.00000000e+00
  0.00000000e+00  0.00000000e+00  0.00000000e+00  0.00000000e+00
  0.00000000e+00  0.00000000e+00  0.00000000e+00  0.00000000e+00
  0.00000000e+00  0.00000000e+00  0.00000000e+00  0.00000000e+00
  0.00000000e+00  0.00000000e+00 -6.28179473e-08 -2.53033403e-07
  0.00000000e+00  0.00000000e+00  0.00000000e+00  2.80409024e-06]","[[ 8.74367539e-05  4.61836029e-03]
 [-1.90988746e-04  2.45677999e-03]]",[],0.0,0.0
1787145675.2295353,2.666266888173656,-0.008012639567481265,2.0064539406333033,"[ 7.46836969e-06  8.76018139e-08  0.00000000e+00  0.00000000e+00
  0.00000000e+00 -7.35706220e-08  8.76018139e-08  7.28849430e-06
  0.00000000e+00  0.00000000e+00  0.00000000e+00 -2.20026844e-07
  0.00000000e+00  0.00000000e+00  0.00000000e+00  0.00000000e+00
  0.00000000e+00  0.00000000e+00  0.00000000e+00  0.00000000e+00
  0.00000000e+00  0.00000000e+00  0.00000000e+00  0.00000000e+00
  0.00000000e+00  0.00000000e+00  0.00000000e+00  0.00000000e+00
  0.00000000e+00  0.00000000e+00 -7.35706220e-08 -2.20026844e-07
  0.00000000e+00  0.00000000e+00  0.00000000e+00  2.58346468e-06]","[[ 6.39812890e-05  4.01467630e-03]
 [-1.69662857e-04  1.83946541e-03]]",[],0.0,0.0
1787145675.2643774,2.666266888173656,-0.008012639567481265,2.0064539406333033,"[ 7.46836969e-06  8.76018139e-08  0.00000000e+00  0.00000000e+00
  0.00000000e+00 -7.35706220e-08  8.76018139e-08  7.28849430e-06
  0.00000000e+00  0.00000000e+00  0.00000000e+00 -2.20026844e-07
  0.00000000e+00  0.00000000e+00  0.00000000e+00  0.00000000e+00
  0.00000000e+00  0.00000000e+00  0.00000000e+00  0.00000000e+00
  0.00000000e+00  0.00000000e+00  0.00000000e+00  0.00000000e+00
  0.00000000e+00  0.00000000e+00  0.00000000e+00  0.00000000e+00
  0.00000000e+00  0.00000000e+00 -7.35706220e-08 -2.20026844e-07
  0.00000000e+00  0.00000000e+00  0.00000000e+00  2.58346468e-06]","[[ 6.39812890e-05  4.01467630e-03]
 [-1.69662857e-04  1.83946541e-03]]",[],0.0,0.0
1787145675.3179612,2.6662688038716125,-0.010053717495736587,2.0069491039896423,"[ 6.53584089e-06  6.71652097e-08  0.00000000e+00  0.00000000e+00
  0.00000000e+00 -8.37754839e-08  6.71652097e-08  6.36964148e-06
  0.00000000e+00  0.00000000e+00  0.00000000e+00 -1.45936858e-07
  0.00000000e+00  0.00000000e+00  0.00000000e+00  0.00000000e+00
  0.00000000e+00  0.00000000e+00  0.00000000e+00  0.00000000e+00
  0.00000000e+00  0.00000000e+00  0.00000000e+00  0.00000000e+00
  0.00000000e+00  0.00000000e+00  0.00000000e+00  0.00000000e+00
  0.00000000e+00  0.00000000e+00 -8.37754839e-08 -1.45936858e-07
  0.00000000e+00  0.00000000e+00  0.00000000e+00  2.50023218e-06]","[[ 6.38430172e-05  3.41380690e-03]
 [-1.45264951e-04  1.66233923e-03]]",[],0.0,0.0
1787145675.365977,2.6662688038716125,-0.010053717495736587,2.0069491039896423,"[ 6.53584089e-06  6.71652097e-08  0.00000000e+00  0.00000000e+00
  0.00000000e+00 -8.37754839e-08  6.71652097e-08  6.36964148e-06
  0.00000000e+00  0.00000000e+00  0.00000000e+00 -1.45936858e-07
  0.00000000e+00  0.00000000e+00  0.00000000e+00  0.00000000e+00
  0.00000000e+00  0.00000000e+00  0.00000000e+00  0.00000000e+00
  0.00000000e+00  0.00000000e+00  0.00000000e+00  0.00000000e+00
  0.00000000e+00  0.00000000e+00  0.00000000e+00  0.00000000e+00
  0.00000000e+00  0.00000000e+00 -8.37754839e-08 -1.45936858e-07
  0.00000000e+00  0.00000000e+00  0.00000000e+00  2.50023218e-06]","[[ 6.38430172e-05  3.41380690e-03]
 [-1.45264951e-04  1.66233923e-03]]",[],0.0,0.0
1787145675.4168522,2.6662688038716125,-0.010053717495736587,2.0069491039896423,"[ 6.53584089e-06  6.71652097e-08  0.00000000e+00  0.00000000e+00
  0.00000000e+00 -8.37754839e-08  6.71652097e-08  6.36964148e-06
  0.00000000e+00  0.00000000e+00  0.00000000e+00 -1.45936858e-07
  0.00000000e+00  0.00000000e+00  0.00000000e+00  0.00000000e+00
  0.00000000e+00  0.00000000e+00  0.00000000e+00  0.00000000e+00
  0.00000000e+00  0.00000000e+00  0.00000000e+00  0.00000000e+00
  0.00000000e+00  0.00000000e+00  0.00000000e+00  0.00000000e+00
  0.00000000e+00  0.00000000e+00 -8.37754839e-08 -1.45936858e-07
  0.00000000e+00  0.00000000e+00  0.00000000e+00  2.50023218e-06]","[[ 6.38430172e-05  3.41380690e-03]
 [-1.45264951e-04  1.66233923e-03]]",[],0.0,0.0
1787145675.9573126,2.6662688038716125,-0.010053717495736587,2.0069491039896423,"[ 6.53584089e-06  6.71652097e-08  0.00000000e+00  0.00000000e+00
  0.00000000e+00 -8.37754839e-08  6.71652097e-08  6.36964148e-06
  0.00000000e+00  0.00000000e+00  0.00000000e+00 -1.45936858e-07
  0.00000000e+00  0.00000000e+00  0.00000000e+00  0.00000000e+00
  0.00000000e+00  0.00000000e+00  0.00000000e+00  0.00000000e+00
  0.00000000e+00  0.00000000e+00  0.00000000e+00  0.00000000e+00
  0.00000000e+00  0.00000000e+00  0.00000000e+00  0.00000000e+00
  0.00000000e+00  0.00000000e+00 -8.37754839e-08 -1.45936858e-07
  0.00000000e+00  0.00000000e+00  0.00000000e+00  2.50023218e-06]","[[ 6.38430172e-05  3.41380690e-03]
 [-1.45264951e-04  1.66233923e-03]]",[],0.0,0.0
1787145675.9657366,2.6662688038716125,-0.010053717495736587,2.0069491039896423,"[ 6.53584089e-06  6.71652097e-08  0.00000000e+00  0.00000000e+00
  0.00000000e+00 -8.37754839e-08  6.71652097e-08  6.36964148e-06
  0.00000000e+00  0.00000000e+00  0.00000000e+00 -1.45936858e-07
  0.00000000e+00  0.00000000e+00  0.00000000e+00  0.00000000e+00
  0.00000000e+00  0.00000000e+00  0.00000000e+00  0.00000000e+00
  0.00000000e+00  0.00000000e+00  0.00000000e+00  0.00000000e+00
  0.00000000e+00  0.00000000e+00  0.00000000e+00  0.00000000e+00
  0.00000000e+00  0.00000000e+00 -8.37754839e-08 -1.45936858e-07
  0.00000000e+00  0.00000000e+00  0.00000000e+00  2.50023218e-06]","[[ 6.38430172e-05  3.41380690e-03]
 [-1.45264951e-04  1.66233923e-03]]",[],0.0,0.0
1787145676.5893176,2.66531738201103,-0.010742423323368208,2.0079508249375024,"[ 5.75142808e-06  1.91684650e-08  0.00000000e+00  0.00000000e+00
  0.00000000e+00 -8.99033546e-08  1.91684650e-08  5.72402817e-06
  0.00000000e+00  0.00000000e+00  0.00000000e+00 -1.18560543e-07
  0.00000000e+00  0.00000000e+00  0.00000000e+00  0.00000000e+00
  0.00000000e+00  0.00000000e+00  0.00000000e+00  0.00000000e+00
  0.00000000e+00  0.00000000e+00  0.00000000e+00  0.00000000e+00
  0.00000000e+00  0.00000000e+00  0.00000000e+00  0.00000000e+00
  0.00000000e+00  0.00000000e+00 -8.99033546e-08 -1.18560543e-07
  0.00000000e+00  0.00000000e+00  0.00000000e+00  2.64782172e-06]","[[ 5.90565111e-05  3.09123019e-03]
 [-1.30078596e-04  1.53485234e-03]]",[],0.0,0.0
1787145677.1784444,2.6623814124878407,-0.014236079043746935,2.000336867044041,"[ 5.15115099e-06 -1.22661039e-08  0.00000000e+00  0.00000000e+00
  0.00000000e+00 -8.27115600e-08 -1.22661039e-08  5.19483228e-06
  0.00000000e+00  0.00000000e+00  0.00000000e+00 -1.04525688e-07
  0.00000000e+00  0.00000000e+00  0.00000000e+00  0.00000000e+00
  0.00000000e+00  0.00000000e+00  0.00000000e+00  0.00000000e+00
  0.00000000e+00  0.00000000e+00  0.00000000e+00  0.00000000e+00
  0.00000000e+00  0.00000000e+00  0.00000000e+00  0.00000000e+00
  0.00000000e+00  0.00000000e+00 -8.27115600e-08 -1.04525688e-07
  0.00000000e+00  0.00000000e+00  0.00000000e+00  2.56027304e-06]","[[ 5.17349188e-05  2.70288352e-03]
 [-1.19176465e-04  1.29585933e-03]]",[],0.0,0.0
1787145677.2145698,2.6623814124878407,-0.014236079043746935,2.000336867044041,"[ 5.15115099e-06 -1.22661039e-08  0.00000000e+00  0.00000000e+00
  0.00000000e+00 -8.27115600e-08 -1.22661039e-08  5.19483228e-06
  0.00000000e+00  0.00000000e+00  0.00000000e+00 -1.04525688e-07
  0.00000000e+00  0.00000000e+00  0.00000000e+00  0.00000000e+00
  0.00000000e+00  0.00000000e+00  0.00000000e+00  0.00000000e+00
  0.00000000e+00  0.00000000e+00  0.00000000e+00  0.00000000e+00
  0.00000000e+00  0.00000000e+00  0.00000000e+00  0.00000000e+00
  0.00000000e+00  0.00000000e+00 -8.27115600e-08 -1.04525688e-07
  0.00000000e+00  0.00000000e+00  0.00000000e+00  2.56027304e-06]","[[ 5.17349188e-05  2.70288352e-03]
 [-1.19176465e-04  1.29585933e-03]]",[],0.0,0.0
1787145677.2813118,2.660678600598514,-0.016252276725418117,2.0009851641044127,"[ 4.71281360e-06 -3.19704186e-08  0.00000000e+00  0.00000000e+00
  0.00000000e+00 -6.49913435e-08 -3.19704186e-08  4.76491426e-06
  0.00000000e+00  0.00000000e+00  0.00000000e+00 -9.45136143e-08
  0.00000000e+00  0.00000000e+00  0.00000000e+00  0.00000000e+00
  0.00000000e+00  0.00000000e+00  0.00000000e+00  0.00000000e+00
  0.00000000e+00  0.00000000e+00  0.00000000e+00  0.00000000e+00
  0.00000000e+00  0.00000000e+00  0.00000000e+00  0.00000000e+00
  0.00000000e+00  0.00000000e+00 -6.49913435e-08 -9.45136143e-08
  0.00000000e+00  0.00000000e+00  0.00000000e+00  2.57501224e-06]","[[ 4.92858844e-05  2.50776873e-03]
 [-1.08865055e-04  1.24110070e-03]]",[],0.0,0.0
1787145677.841996,2.660678600598514,-0.016252276725418117,2.0009851641044127,"[ 4.71281360e-06 -3.19704186e-08  0.00000000e+00  0.00000000e+00
  0.00000000e+00 -6.49913435e-08 -3.19704186e-08  4.76491426e-06
  0.00000000e+00  0.00000000e+00  0.00000000e+00 -9.45136143e-08
  0.00000000e+00  0.00000000e+00  0.00000000e+00  0.00000000e+00
  0.00000000e+00  0.00000000e+00  0.00000000e+00  0.00000000e+00
  0.00000000e+00  0.00000000e+00  0.00000000e+00  0.00000000e+00
  0.00000000e+00  0.00000000e+00  0.00000000e+00  0.00000000e+00
  0.00000000e+00  0.00000000e+00 -6.49913435e-08 -9.45136143e-08
  0.00000000e+00  0.00000000e+00  0.00000000e+00  2.57501224e-06]","[[ 4.92858844e-05  2.50776873e-03]
 [-1.08865055e-04  1.24110070e-03]]",[],0.0,0.0
1787145678.392778,2.661107257236538,-0.01770081858816169,2.000226361907295,"[ 4.33402724e-06 -6.65990540e-08  0.00000000e+00  0.00000000e+00
  0.00000000e+00 -6.99011467e-08 -6.65990540e-08  4.43522307e-06
  0.00000000e+00  0.00000000e+00  0.00000000e+00 -7.50210129e-08
  0.00000000e+00  0.00000000e+00  0.00000000e+00  0.00000000e+00
  0.00000000e+00  0.00000000e+00  0.00000000e+00  0.00000000e+00
  0.00000000e+00  0.00000000e+00  0.00000000e+00  0.00000000e+00
  0.00000000e+00  0.00000000e+00  0.00000000e+00  0.00000000e+00
  0.00000000e+00  0.00000000e+00 -6.99011467e-08 -7.50210129e-08
  0.00000000e+00  0.00000000e+00  0.00000000e+00  2.63015344e-06]","[[ 4.46087232e-05  2.26220831e-03]
 [-1.02401113e-04  1.04916674e-03]]",[],0.0,0.0
1787145678.4157276,2.659101622611096,-0.0179513370417822,2.0056290949189766,"[ 4.00773376e-06 -8.10467775e-08  0.00000000e+00  0.00000000e+00
  0.00000000e+00 -4.63253837e-08 -8.10467775e-08  4.13551169e-06
  0.00000000e+00  0.00000000e+00  0.00000000e+00 -7.12233216e-08
  0.00000000e+00  0.00000000e+00  0.00000000e+00  0.00000000e+00
  0.00000000e+00  0.00000000e+00  0.00000000e+00  0.00000000e+00
  0.00000000e+00  0.00000000e+00  0.00000000e+00  0.00000000e+00
  0.00000000e+00  0.00000000e+00  0.00000000e+00  0.00000000e+00
  0.00000000e+00  0.00000000e+00 -4.63253837e-08 -7.12233216e-08
  0.00000000e+00  0.00000000e+00  0.00000000e+00  2.53305984e-06]","[[ 4.30597515e-05  2.10438419e-03]
 [-9.50698221e-05  1.02937732e-03]]",[],0.0,0.0
1787145679.0365982,2.659101622611096,-0.0179513370417822,2.0056290949189766,"[ 4.00773376e-06 -8.10467775e-08  0.00000000e+00  0.00000000e+00
  0.00000000e+00 -4.63253837e-08 -8.10467775e-08  4.13551169e-06
  0.00000000e+00  0.00000000e+00  0.00000000e+00 -7.12233216e-08
  0.00000000e+00  0.00000000e+00  0.00000000e+00  0.00000000e+00
  0.00000000e+00  0.00000000e+00  0.00000000e+00  0.00000000e+00
  0.00000000e+00  0.00000000e+00  0.00000000e+00  0.00000000e+00
  0.00000000e+00  0.00000000e+00  0.00000000e+00  0.00000000e+00
  0.00000000e+00  0.00000000e+00 -4.63253837e-08 -7.12233216e-08
  0.00000000e+00  0.00000000e+00  0.00000000e+00  2.53305984e-06]","[[ 4.30597515e-05  2.10438419e-03]
 [-9.50698221e-05  1.02937732e-03]]",[],0.0,0.0
1787145679.0638306,2.659101622611096,-0.0179513370417822,2.0056290949189766,"[ 4.00773376e-06 -8.10467775e-08  0.00000000e+00  0.00000000e+00
  0.00000000e+00 -4.63253837e-08 -8.10467775e-08  4.13551169e-06
  0.00000000e+00  0.00000000e+00  0.00000000e+00 -7.12233216e-08
  0.00000000e+00  0.00000000e+00  0.00000000e+00  0.00000000e+00
  0.00000000e+00  0.00000000e+00  0.00000000e+00  0.00000000e+00
  0.00000000e+00  0.00000000e+00  0.00000000e+00  0.00000000e+00
  0.00000000e+00  0.00000000e+00  0.00000000e+00  0.00000000e+00
  0.00000000e+00  0.00000000e+00 -4.63253837e-08 -7.12233216e-08
  0.00000000e+00  0.00000000e+00  0.00000000e+00  2.53305984e-06]","[[ 4.30597515e-05  2.10438419e-03]
 [-9.50698221e-05  1.02937732e-03]]",[],0.0,0.0
1787145679.1141074,2.658979195827686,-0.0203291741647645,2.0079127570960553,"[ 3.74859624e-06 -1.08725536e-07  0.00000000e+00  0.00000000e+00
  0.00000000e+00 -4.36360407e-08 -1.08725536e-07  3.90586572e-06
  0.00000000e+00  0.00000000e+00  0.00000000e+00 -5.91490972e-08
  0.00000000e+00  0.00000000e+00  0.00000000e+00  0.00000000e+00
  0.00000000e+00  0.00000000e+00  0.00000000e+00  0.00000000e+00
  0.00000000e+00  0.00000000e+00  0.00000000e+00  0.00000000e+00
  0.00000000e+00  0.00000000e+00  0.00000000e+00  0.00000000e+00
  0.00000000e+00  0.00000000e+00 -4.36360407e-08 -5.91490972e-08
  0.00000000e+00  0.00000000e+00  0.00000000e+00  2.61427845e-06]","[[ 4.09705083e-05  1.96221911e-03]
 [-9.01461197e-05  9.41204162e-04]]",[],0.0,0.0
1787145679.1669433,2.658979195827686,-0.0203291741647645,2.0079127570960553,"[ 3.74859624e-06 -1.08725536e-07  0.00000000e+00  0.00000000e+00
  0.00000000e+00 -4.36360407e-08 -1.08725536e-07  3.90586572e-06
  0.00000000e+00  0.00000000e+00  0.00000000e+00 -5.91490972e-08
  0.00000000e+00  0.00000000e+00  0.00000000e+00  0.00000000e+00
  0.00000000e+00  0.00000000e+00  0.00000000e+00  0.00000000e+00
  0.00000000e+00  0.00000000e+00  0.00000000e+00  0.00000000e+00
  0.00000000e+00  0.00000000e+00  0.00000000e+00  0.00000000e+00
  0.00000000e+00  0.00000000e+00 -4.36360407e-08 -5.91490972e-08
  0.00000000e+00  0.00000000e+00  0.00000000e+00  2.61427845e-06]","[[ 4.09705083e-05  1.96221911e-03]
 [-9.01461197e-05  9.41204162e-04]]",[],0.0,0.0
1787145679.2146819,2.658979195827686,-0.0203291741647645,2.0079127570960553,"[ 3.74859624e-06 -1.08725536e-07  0.00000000e+00  0.00000000e+00
  0.00000000e+00 -4.36360407e-08 -1.08725536e-07  3.90586572e-06
  0.00000000e+00  0.00000000e+00  0.00000000e+00 -5.91490972e-08
  0.00000000e+00  0.00000000e+00  0.00000000e+00  0.00000000e+00
  0.00000000e+00  0.00000000e+00  0.00000000e+00  0.00000000e+00
  0.00000000e+00  0.00000000e+00  0.00000000e+00  0.00000000e+00
  0.00000000e+00  0.00000000e+00  0.00000000e+00  0.00000000e+00
  0.00000000e+00  0.00000000e+00 -4.36360407e-08 -5.91490972e-08
  0.00000000e+00  0.00000000e+00  0.00000000e+00  2.61427845e-06]","[[ 4.09705083e-05  1.96221911e-03]
 [-9.01461197e-05  9.41204162e-04]]",[],0.0,0.0
1787145679.26412,2.658979195827686,-0.0203291741647645,2.0079127570960553,"[ 3.74859624e-06 -1.08725536e-07  0.00000000e+00  0.00000000e+00
  0.00000000e+00 -4.36360407e-08 -1.08725536e-07  3.90586572e-06
  0.00000000e+00  0.00000000e+00  0.00000000e+00 -5.91490972e-08
  0.00000000e+00  0.00000000e+00  0.00000000e+00  0.00000000e+00
  0.00000000e+00  0.00000000e+00  0.00000000e+00  0.00000000e+00
  0.00000000e+00  0.00000000e+00  0.00000000e+00  0.00000000e+00
  0.00000000e+00  0.00000000e+00  0.00000000e+00  0.00000000e+00
  0.00000000e+00  0.00000000e+00 -4.36360407e-08 -5.91490972e-08
  0.00000000e+00  0.00000000e+00  0.00000000e+00  2.61427845e-06]","[[ 4.09705083e-05  1.96221911e-03]
 [-9.01461197e-05  9.41204162e-04]]",[],0.0,0.0
1787145679.316104,2.658979195827686,-0.0203291741647645,2.0079127570960553,"[ 3.74859624e-06 -1.08725536e-07  0.00000000e+00  0.00000000e+00
  0.00000000e+00 -4.36360407e-08 -1.08725536e-07  3.90586572e-06
  0.00000000e+00  0.00000000e+00  0.00000000e+00 -5.91490972e-08
  0.00000000e+00  0.00000000e+00  0.00000000e+00  0.00000000e+00
  0.00000000e+00  0.00000000e+00  0.00000000e+00  0.00000000e+00
  0.00000000e+00  0.00000000e+00  0.00000000e+00  0.00000000e+00
  0.00000000e+00  0.00000000e+00  0.00000000e+00  0.00000000e+00
  0.00000000e+00  0.00000000e+00 -4.36360407e-08 -5.91490972e-08
  0.00000000e+00  0.00000000e+00  0.00000000e+00  2.61427845e-06]","[[ 4.09705083e-05  1.96221911e-03]
 [-9.01461197e-05  9.41204162e-04]]",[],0.0,0.0
1787145679.3637328,2.658979195827686,-0.0203291741647645,2.0079127570960553,"[ 3.74859624e-06 -1.08725536e-07  0.00000000e+00  0.00000000e+00
  0.00000000e+00 -4.36360407e-08 -1.08725536e-07  3.90586572e-06
  0.00000000e+00  0.00000000e+00  0.00000000e+00 -5.91490972e-08
  0.00000000e+00  0.00000000e+00  0.00000000e+00  0.00000000e+00
  0.00000000e+00  0.00000000e+00  0.00000000e+00  0.00000000e+00
  0.00000000e+00  0.00000000e+00  0.00000000e+00  0.00000000e+00
  0.00000000e+00  0.00000000e+00  0.00000000e+00  0.00000000e+00
  0.00000000e+00  0.00000000e+00 -4.36360407e-08 -5.91490972e-08
  0.00000000e+00  0.00000000e+00  0.00000000e+00  2.61427845e-06]","[[ 4.09705083e-05  1.96221911e-03]
 [-9.01461197e-05  9.41204162e-04]]",[],0.0,0.0
1787145679.413873,2.658979195827686,-0.0203291741647645,2.0079127570960553,"[ 3.74859624e-06 -1.08725536e-07  0.00000000e+00  0.00000000e+00
  0.00000000e+00 -4.36360407e-08 -1.08725536e-07  3.90586572e-06
  0.00000000e+00  0.00000000e+00  0.00000000e+00 -5.91490972e-08
  0.00000000e+00  0.00000000e+00  0.00000000e+00  0.00000000e+00
  0.00000000e+00  0.00000000e+00  0.00000000e+00  0.00000000e+00
  0.00000000e+00  0.00000000e+00  0.00000000e+00  0.00000000e+00
  0.00000000e+00  0.00000000e+00  0.00000000e+00  0.00000000e+00
  0.00000000e+00  0.00000000e+00 -4.36360407e-08 -5.91490972e-08
  0.00000000e+00  0.00000000e+00  0.00000000e+00  2.61427845e-06]","[[ 4.09705083e-05  1.96221911e-03]
 [-9.01461197e-05  9.41204162e-04]]",[],0.0,0.0
1787145679.469175,2.658979195827686,-0.0203291741647645,2.0079127570960553,"[ 3.74859624e-06 -1.08725536e-07  0.00000000e+00  0.00000000e+00
  0.00000000e+00 -4.36360407e-08 -1.08725536e-07  3.90586572e-06
  0.00000000e+00  0.00000000e+00  0.00000000e+00 -5.91490972e-08
  0.00000000e+00  0.00000000e+00  0.00000000e+00  0.00000000e+00
  0.00000000e+00  0.00000000e+00  0.00000000e+00  0.00000000e+00
  0.00000000e+00  0.00000000e+00  0.00000000e+00  0.00000000e+00
  0.00000000e+00  0.00000000e+00  0.00000000e+00  0.00000000e+00
  0.00000000e+00  0.00000000e+00 -4.36360407e-08 -5.91490972e-08
  0.00000000e+00  0.00000000e+00  0.00000000e+00  2.61427845e-06]","[[ 4.09705083e-05  1.96221911e-03]
 [-9.01461197e-05  9.41204162e-04]]",[],0.0,0.0
1787145679.5138333,2.658979195827686,-0.0203291741647645,2.0079127570960553,"[ 3.74859624e-06 -1.08725536e-07  0.00000000e+00  0.00000000e+00
  0.00000000e+00 -4.36360407e-08 -1.08725536e-07  3.90586572e-06
  0.00000000e+00  0.00000000e+00  0.00000000e+00 -5.91490972e-08
  0.00000000e+00  0.00000000e+00  0.00000000e+00  0.00000000e+00
  0.00000000e+00  0.00000000e+00  0.00000000e+00  0.00000000e+00
  0.00000000e+00  0.00000000e+00  0.00000000e+00  0.00000000e+00
  0.00000000e+00  0.00000000e+00  0.00000000e+00  0.00000000e+00
  0.00000000e+00  0.00000000e+00 -4.36360407e-08 -5.91490972e-08
  0.00000000e+00  0.00000000e+00  0.00000000e+00  2.61427845e-06]","[[ 4.09705083e-05  1.96221911e-03]
 [-9.01461197e-05  9.41204162e-04]]",[],0.0,0.0
1787145679.5663793,2.658979195827686,-0.0203291741647645,2.0079127570960553,"[ 3.74859624e-06 -1.08725536e-07  0.00000000e+00  0.00000000e+00
  0.00000000e+00 -4.36360407e-08 -1.08725536e-07  3.90586572e-06
  0.00000000e+00  0.00000000e+00  0.00000000e+00 -5.91490972e-08
  0.00000000e+00  0.00000000e+00  0.00000000e+00  0.00000000e+00
  0.00000000e+00  0.00000000e+00  0.00000000e+00  0.00000000e+00
  0.00000000e+00  0.00000000e+00  0.00000000e+00  0.00000000e+00
  0.00000000e+00  0.00000000e+00  0.00000000e+00  0.00000000e+00
  0.00000000e+00  0.00000000e+00 -4.36360407e-08 -5.91490972e-08
  0.00000000e+00  0.00000000e+00  0.00000000e+00  2.61427845e-06]","[[ 4.09705083e-05  1.96221911e-03]
 [-9.01461197e-05  9.41204162e-04]]",[],0.0,0.0
1787145679.6159017,2.658979195827686,-0.0203291741647645,2.0079127570960553,"[ 3.74859624e-06 -1.08725536e-07  0.00000000e+00  0.00000000e+00
  0.00000000e+00 -4.36360407e-08 -1.08725536e-07  3.90586572e-06
  0.00000000e+00  0.00000000e+00  0.00000000e+00 -5.91490972e-08
  0.00000000e+00  0.00000000e+00  0.00000000e+00  0.00000000e+00
  0.00000000e+00  0.00000000e+00  0.00000000e+00  0.00000000e+00
  0.00000000e+00  0.00000000e+00  0.00000000e+00  0.00000000e+00
  0.00000000e+00  0.00000000e+00  0.00000000e+00  0.00000000e+00
  0.00000000e+00  0.00000000e+00 -4.36360407e-08 -5.91490972e-08
  0.00000000e+00  0.00000000e+00  0.00000000e+00  2.61427845e-06]","[[ 4.09705083e-05  1.96221911e-03]
 [-9.01461197e-05  9.41204162e-04]]",[],0.0,0.0
1787145679.6649914,2.658979195827686,-0.0203291741647645,2.0079127570960553,"[ 3.74859624e-06 -1.08725536e-07  0.00000000e+00  0.00000000e+00
  0.00000000e+00 -4.36360407e-08 -1.08725536e-07  3.90586572e-06
  0.00000000e+00  0.00000000e+00  0.00000000e+00 -5.91490972e-08
  0.00000000e+00  0.00000000e+00  0.00000000e+00  0.00000000e+00
  0.00000000e+00  0.00000000e+00  0.00000000e+00  0.00000000e+00
  0.00000000e+00  0.00000000e+00  0.00000000e+00  0.00000000e+00
  0.00000000e+00  0.00000000e+00  0.00000000e+00  0.00000000e+00
  0.00000000e+00  0.00000000e+00 -4.36360407e-08 -5.91490972e-08
  0.00000000e+00  0.00000000e+00  0.00000000e+00  2.61427845e-06]","[[ 4.09705083e-05  1.96221911e-03]
 [-9.01461197e-05  9.41204162e-04]]",[],0.0,0.0
1787145679.7245586,2.658979195827686,-0.0203291741647645,2.0079127570960553,"[ 3.74859624e-06 -1.08725536e-07  0.00000000e+00  0.00000000e+00
  0.00000000e+00 -4.36360407e-08 -1.08725536e-07  3.90586572e-06
  0.00000000e+00  0.00000000e+00  0.00000000e+00 -5.91490972e-08
  0.00000000e+00  0.00000000e+00  0.00000000e+00  0.00000000e+00
  0.00000000e+00  0.00000000e+00  0.00000000e+00  0.00000000e+00
  0.00000000e+00  0.00000000e+00  0.00000000e+00  0.00000000e+00
  0.00000000e+00  0.00000000e+00  0.00000000e+00  0.00000000e+00
  0.00000000e+00  0.00000000e+00 -4.36360407e-08 -5.91490972e-08
  0.00000000e+00  0.00000000e+00  0.00000000e+00  2.61427845e-06]","[[ 4.09705083e-05  1.96221911e-03]
 [-9.01461197e-05  9.41204162e-04]]",[],0.0,0.0
1787145679.7682998,2.658979195827686,-0.0203291741647645,2.0079127570960553,"[ 3.74859624e-06 -1.08725536e-07  0.00000000e+00  0.00000000e+00
  0.00000000e+00 -4.36360407e-08 -1.08725536e-07  3.90586572e-06
  0.00000000e+00  0.00000000e+00  0.00000000e+00 -5.91490972e-08
  0.00000000e+00  0.00000000e+00  0.00000000e+00  0.00000000e+00
  0.00000000e+00  0.00000000e+00  0.00000000e+00  0.00000000e+00
  0.00000000e+00  0.00000000e+00  0.00000000e+00  0.00000000e+00
  0.00000000e+00  0.00000000e+00  0.00000000e+00  0.00000000e+00
  0.00000000e+00  0.00000000e+00 -4.36360407e-08 -5.91490972e-08
  0.00000000e+00  0.00000000e+00  0.00000000e+00  2.61427845e-06]","[[ 4.09705083e-05  1.96221911e-03]
 [-9.01461197e-05  9.41204162e-04]]",[],0.0,0.0
1787145679.8137245,2.6574176029326746,-0.02028332051604138,2.0114170927088555,"[ 3.50656709e-06 -1.53303307e-07  0.00000000e+00  0.00000000e+00
  0.00000000e+00 -3.34009809e-08 -1.53303307e-07  3.76806765e-06
  0.00000000e+00  0.00000000e+00  0.00000000e+00 -7.86586311e-08
  0.00000000e+00  0.00000000e+00  0.00000000e+00  0.00000000e+00
  0.00000000e+00  0.00000000e+00  0.00000000e+00  0.00000000e+00
  0.00000000e+00  0.00000000e+00  0.00000000e+00  0.00000000e+00
  0.00000000e+00  0.00000000e+00  0.00000000e+00  0.00000000e+00
  0.00000000e+00  0.00000000e+00 -3.34009809e-08 -7.86586311e-08
  0.00000000e+00  0.00000000e+00  0.00000000e+00  2.78677817e-06]","[[ 4.09705083e-05  1.96221911e-03]
 [-9.01461197e-05  9.41204162e-04]]",[],0.0,0.0
1787145679.8668482,2.6574176029326746,-0.02028332051604138,2.0114170927088555,"[ 3.50656709e-06 -1.53303307e-07  0.00000000e+00  0.00000000e+00
  0.00000000e+00 -3.34009809e-08 -1.53303307e-07  3.76806765e-06
  0.00000000e+00  0.00000000e+00  0.00000000e+00 -7.86586311e-08
  0.00000000e+00  0.00000000e+00  0.00000000e+00  0.00000000e+00
  0.00000000e+00  0.00000000e+00  0.00000000e+00  0.00000000e+00
  0.00000000e+00  0.00000000e+00  0.00000000e+00  0.00000000e+00
  0.00000000e+00  0.00000000e+00  0.00000000e+00  0.00000000e+00
  0.00000000e+00  0.00000000e+00 -3.34009809e-08 -7.86586311e-08
  0.00000000e+00  0.00000000e+00  0.00000000e+00  2.78677817e-06]","[[ 3.94724754e-05  1.81045087e-03]
 [-8.74758781e-05  9.17697971e-04]]",[],0.0,0.0
1787145679.9150574,2.6574176029326746,-0.02028332051604138,2.0114170927088555,"[ 3.50656709e-06 -1.53303307e-07  0.00000000e+00  0.00000000e+00
  0.00000000e+00 -3.34009809e-08 -1.53303307e-07  3.76806765e-06
  0.00000000e+00  0.00000000e+00  0.00000000e+00 -7.86586311e-08
  0.00000000e+00  0.00000000e+00  0.00000000e+00  0.00000000e+00
  0.00000000e+00  0.00000000e+00  0.00000000e+00  0.00000000e+00
  0.00000000e+00  0.00000000e+00  0.00000000e+00  0.00000000e+00
  0.00000000e+00  0.00000000e+00  0.00000000e+00  0.00000000e+00
  0.00000000e+00  0.00000000e+00 -3.34009809e-08 -7.86586311e-08
  0.00000000e+00  0.00000000e+00  0.00000000e+00  2.78677817e-06]","[[ 3.94724754e-05  1.81045087e-03]
 [-8.74758781e-05  9.17697971e-04]]",[],0.0,0.0
1787145679.9863248,2.6574176029326746,-0.02028332051604138,2.0114170927088555,"[ 3.50656709e-06 -1.53303307e-07  0.00000000e+00  0.00000000e+00
  0.00000000e+00 -3.34009809e-08 -1.53303307e-07  3.76806765e-06
  0.00000000e+00  0.00000000e+00  0.00000000e+00 -7.86586311e-08
  0.00000000e+00  0.00000000e+00  0.00000000e+00  0.00000000e+00
  0.00000000e+00  0.00000000e+00  0.00000000e+00  0.00000000e+00
  0.00000000e+00  0.00000000e+00  0.00000000e+00  0.00000000e+00
  0.00000000e+00  0.00000000e+00  0.00000000e+00  0.00000000e+00
  0.00000000e+00  0.00000000e+00 -3.34009809e-08 -7.86586311e-08
  0.00000000e+00  0.00000000e+00  0.00000000e+00  2.78677817e-06]","[[ 3.94724754e-05  1.81045087e-03]
 [-8.74758781e-05  9.17697971e-04]]",[],0.0,0.0
1787145680.013958,2.6574176029326746,-0.02028332051604138,2.0114170927088555,"[ 3.50656709e-06 -1.53303307e-07  0.00000000e+00  0.00000000e+00
  0.00000000e+00 -3.34009809e-08 -1.53303307e-07  3.76806765e-06
  0.00000000e+00  0.00000000e+00  0.00000000e+00 -7.86586311e-08
  0.00000000e+00  0.00000000e+00  0.00000000e+00  0.00000000e+00
  0.00000000e+00  0.00000000e+00  0.00000000e+00  0.00000000e+00
  0.00000000e+00  0.00000000e+00  0.00000000e+00  0.00000000e+00
  0.00000000e+00  0.00000000e+00  0.00000000e+00  0.00000000e+00
  0.00000000e+00  0.00000000e+00 -3.34009809e-08 -7.86586311e-08
  0.00000000e+00  0.00000000e+00  0.00000000e+00  2.78677817e-06]","[[ 3.94724754e-05  1.81045087e-03]
 [-8.74758781e-05  9.17697971e-04]]",[],0.0,0.0
1787145680.0680258,2.6574176029326746,-0.02028332051604138,2.0114170927088555,"[ 3.50656709e-06 -1.53303307e-07  0.00000000e+00  0.00000000e+00
  0.00000000e+00 -3.34009809e-08 -1.53303307e-07  3.76806765e-06
  0.00000000e+00  0.00000000e+00  0.00000000e+00 -7.86586311e-08
  0.00000000e+00  0.00000000e+00  0.00000000e+00  0.00000000e+00
  0.00000000e+00  0.00000000e+00  0.00000000e+00  0.00000000e+00
  0.00000000e+00  0.00000000e+00  0.00000000e+00  0.00000000e+00
  0.00000000e+00  0.00000000e+00  0.00000000e+00  0.00000000e+00
  0.00000000e+00  0.00000000e+00 -3.34009809e-08 -7.86586311e-08
  0.00000000e+00  0.00000000e+00  0.00000000e+00  2.78677817e-06]","[[ 3.94724754e-05  1.81045087e-03]
 [-8.74758781e-05  9.17697971e-04]]",[],0.0,0.0
1787145680.116703,2.6574176029326746,-0.02028332051604138,2.0114170927088555,"[ 3.50656709e-06 -1.53303307e-07  0.00000000e+00  0.00000000e+00
  0.00000000e+00 -3.34009809e-08 -1.53303307e-07  3.76806765e-06
  0.00000000e+00  0.00000000e+00  0.00000000e+00 -7.86586311e-08
  0.00000000e+00  0.00000000e+00  0.00000000e+00  0.00000000e+00
  0.00000000e+00  0.00000000e+00  0.00000000e+00  0.00000000e+00
  0.00000000e+00  0.00000000e+00  0.00000000e+00  0.00000000e+00
  0.00000000e+00  0.00000000e+00  0.00000000e+00  0.00000000e+00
  0.00000000e+00  0.00000000e+00 -3.34009809e-08 -7.86586311e-08
  0.00000000e+00  0.00000000e+00  0.00000000e+00  2.78677817e-06]","[[ 3.94724754e-05  1.81045087e-03]
 [-8.74758781e-05  9.17697971e-04]]",[],0.0,0.0
1787145680.164698,2.6574176029326746,-0.02028332051604138,2.0114170927088555,"[ 3.50656709e-06 -1.53303307e-07  0.00000000e+00  0.00000000e+00
  0.00000000e+00 -3.34009809e-08 -1.53303307e-07  3.76806765e-06
  0.00000000e+00  0.00000000e+00  0.00000000e+00 -7.86586311e-08
  0.00000000e+00  0.00000000e+00  0.00000000e+00  0.00000000e+00
  0.00000000e+00  0.00000000e+00  0.00000000e+00  0.00000000e+00
  0.00000000e+00  0.00000000e+00  0.00000000e+00  0.00000000e+00
  0.00000000e+00  0.00000000e+00  0.00000000e+00  0.00000000e+00
  0.00000000e+00  0.00000000e+00 -3.34009809e-08 -7.86586311e-08
  0.00000000e+00  0.00000000e+00  0.00000000e+00  2.78677817e-06]","[[ 3.94724754e-05  1.81045087e-03]
 [-8.74758781e-05  9.17697971e-04]]",[],0.0,0.0
1787145680.214661,2.6574176029326746,-0.02028332051604138,2.0114170927088555,"[ 3.50656709e-06 -1.53303307e-07  0.00000000e+00  0.00000000e+00
  0.00000000e+00 -3.34009809e-08 -1.53303307e-07  3.76806765e-06
  0.00000000e+00  0.00000000e+00  0.00000000e+00 -7.86586311e-08
  0.00000000e+00  0.00000000e+00  0.00000000e+00  0.00000000e+00
  0.00000000e+00  0.00000000e+00  0.00000000e+00  0.00000000e+00
  0.00000000e+00  0.00000000e+00  0.00000000e+00  0.00000000e+00
  0.00000000e+00  0.00000000e+00  0.00000000e+00  0.00000000e+00
  0.00000000e+00  0.00000000e+00 -3.34009809e-08 -7.86586311e-08
  0.00000000e+00  0.00000000e+00  0.00000000e+00  2.78677817e-06]","[[ 3.94724754e-05  1.81045087e-03]
 [-8.74758781e-05  9.17697971e-04]]",[],0.0,0.0
1787145680.2709775,2.6574176029326746,-0.02028332051604138,2.0114170927088555,"[ 3.50656709e-06 -1.53303307e-07  0.00000000e+00  0.00000000e+00
  0.00000000e+00 -3.34009809e-08 -1.53303307e-07  3.76806765e-06
  0.00000000e+00  0.00000000e+00  0.00000000e+00 -7.86586311e-08
  0.00000000e+00  0.00000000e+00  0.00000000e+00  0.00000000e+00
  0.00000000e+00  0.00000000e+00  0.00000000e+00  0.00000000e+00
  0.00000000e+00  0.00000000e+00  0.00000000e+00  0.00000000e+00
  0.00000000e+00  0.00000000e+00  0.00000000e+00  0.00000000e+00
  0.00000000e+00  0.00000000e+00 -3.34009809e-08 -7.86586311e-08
  0.00000000e+00  0.00000000e+00  0.00000000e+00  2.78677817e-06]","[[ 3.94724754e-05  1.81045087e-03]
 [-8.74758781e-05  9.17697971e-04]]",[],0.0,0.0
1787145680.3139882,2.6574176029326746,-0.02028332051604138,2.0114170927088555,"[ 3.50656709e-06 -1.53303307e-07  0.00000000e+00  0.00000000e+00
  0.00000000e+00 -3.34009809e-08 -1.53303307e-07  3.76806765e-06
  0.00000000e+00  0.00000000e+00  0.00000000e+00 -7.86586311e-08
  0.00000000e+00  0.00000000e+00  0.00000000e+00  0.00000000e+00
  0.00000000e+00  0.00000000e+00  0.00000000e+00  0.00000000e+00
  0.00000000e+00  0.00000000e+00  0.00000000e+00  0.00000000e+00
  0.00000000e+00  0.00000000e+00  0.00000000e+00  0.00000000e+00
  0.00000000e+00  0.00000000e+00 -3.34009809e-08 -7.86586311e-08
  0.00000000e+00  0.00000000e+00  0.00000000e+00  2.78677817e-06]","[[ 3.94724754e-05  1.81045087e-03]
 [-8.74758781e-05  9.17697971e-04]]",[],0.0,0.0
1787145680.373441,2.6574176029326746,-0.02028332051604138,2.0114170927088555,"[ 3.50656709e-06 -1.53303307e-07  0.00000000e+00  0.00000000e+00
  0.00000000e+00 -3.34009809e-08 -1.53303307e-07  3.76806765e-06
  0.00000000e+00  0.00000000e+00  0.00000000e+00 -7.86586311e-08
  0.00000000e+00  0.00000000e+00  0.00000000e+00  0.00000000e+00
  0.00000000e+00  0.00000000e+00  0.00000000e+00  0.00000000e+00
  0.00000000e+00  0.00000000e+00  0.00000000e+00  0.00000000e+00
  0.00000000e+00  0.00000000e+00  0.00000000e+00  0.00000000e+00
  0.00000000e+00  0.00000000e+00 -3.34009809e-08 -7.86586311e-08
  0.00000000e+00  0.00000000e+00  0.00000000e+00  2.78677817e-06]","[[ 3.94724754e-05  1.81045087e-03]
 [-8.74758781e-05  9.17697971e-04]]",[],0.0,0.0
1787145680.4140952,2.6574176029326746,-0.02028332051604138,2.0114170927088555,"[ 3.50656709e-06 -1.53303307e-07  0.00000000e+00  0.00000000e+00
  0.00000000e+00 -3.34009809e-08 -1.53303307e-07  3.76806765e-06
  0.00000000e+00  0.00000000e+00  0.00000000e+00 -7.86586311e-08
  0.00000000e+00  0.00000000e+00  0.00000000e+00  0.00000000e+00
  0.00000000e+00  0.00000000e+00  0.00000000e+00  0.00000000e+00
  0.00000000e+00  0.00000000e+00  0.00000000e+00  0.00000000e+00
  0.00000000e+00  0.00000000e+00  0.00000000e+00  0.00000000e+00
  0.00000000e+00  0.00000000e+00 -3.34009809e-08 -7.86586311e-08
  0.00000000e+00  0.00000000e+00  0.00000000e+00  2.78677817e-06]","[[ 3.94724754e-05  1.81045087e-03]
 [-8.74758781e-05  9.17697971e-04]]",[],0.0,0.0
1787145680.4649734,2.6574176029326746,-0.02028332051604138,2.0114170927088555,"[ 3.50656709e-06 -1.53303307e-07  0.00000000e+00  0.00000000e+00
  0.00000000e+00 -3.34009809e-08 -1.53303307e-07  3.76806765e-06
  0.00000000e+00  0.00000000e+00  0.00000000e+00 -7.86586311e-08
  0.00000000e+00  0.00000000e+00  0.00000000e+00  0.00000000e+00
  0.00000000e+00  0.00000000e+00  0.00000000e+00  0.00000000e+00
  0.00000000e+00  0.00000000e+00  0.00000000e+00  0.00000000e+00
  0.00000000e+00  0.00000000e+00  0.00000000e+00  0.00000000e+00
  0.00000000e+00  0.00000000e+00 -3.34009809e-08 -7.86586311e-08
  0.00000000e+00  0.00000000e+00  0.00000000e+00  2.78677817e-06]","[[ 3.94724754e-05  1.81045087e-03]
 [-8.74758781e-05  9.17697971e-04]]",[],0.0,0.0
1787145680.5147922,2.6574176029326746,-0.02028332051604138,2.0114170927088555,"[ 3.50656709e-06 -1.53303307e-07  0.00000000e+00  0.00000000e+00
  0.00000000e+00 -3.34009809e-08 -1.53303307e-07  3.76806765e-06
  0.00000000e+00  0.00000000e+00  0.00000000e+00 -7.86586311e-08
  0.00000000e+00  0.00000000e+00  0.00000000e+00  0.00000000e+00
  0.00000000e+00  0.00000000e+00  0.00000000e+00  0.00000000e+00
  0.00000000e+00  0.00000000e+00  0.00000000e+00  0.00000000e+00
  0.00000000e+00  0.00000000e+00  0.00000000e+00  0.00000000e+00
  0.00000000e+00  0.00000000e+00 -3.34009809e-08 -7.86586311e-08
  0.00000000e+00  0.00000000e+00  0.00000000e+00  2.78677817e-06]","[[ 3.94724754e-05  1.81045087e-03]
 [-8.74758781e-05  9.17697971e-04]]",[],0.0,0.0
1787145680.5638497,2.6557503129214473,-0.02214463842551117,2.0056321210806525,"[ 3.29160983e-06 -1.84566065e-07  0.00000000e+00  0.00000000e+00
  0.00000000e+00 -5.09751872e-08 -1.84566065e-07  3.62233596e-06
  0.00000000e+00  0.00000000e+00  0.00000000e+00 -1.64501868e-08
  0.00000000e+00  0.00000000e+00  0.00000000e+00  0.00000000e+00
  0.00000000e+00  0.00000000e+00  0.00000000e+00  0.00000000e+00
  0.00000000e+00  0.00000000e+00  0.00000000e+00  0.00000000e+00
  0.00000000e+00  0.00000000e+00  0.00000000e+00  0.00000000e+00
  0.00000000e+00  0.00000000e+00 -5.09751872e-08 -1.64501868e-08
  0.00000000e+00  0.00000000e+00  0.00000000e+00  2.67594336e-06]","[[ 3.79449129e-05  1.72336159e-03]
 [-8.44899715e-05  7.64625475e-04]]",[],0.0,0.0
1787145680.6300244,2.6557503129214473,-0.02214463842551117,2.0056321210806525,"[ 3.29160983e-06 -1.84566065e-07  0.00000000e+00  0.00000000e+00
  0.00000000e+00 -5.09751872e-08 -1.84566065e-07  3.62233596e-06
  0.00000000e+00  0.00000000e+00  0.00000000e+00 -1.64501868e-08
  0.00000000e+00  0.00000000e+00  0.00000000e+00  0.00000000e+00
  0.00000000e+00  0.00000000e+00  0.00000000e+00  0.00000000e+00
  0.00000000e+00  0.00000000e+00  0.00000000e+00  0.00000000e+00
  0.00000000e+00  0.00000000e+00  0.00000000e+00  0.00000000e+00
  0.00000000e+00  0.00000000e+00 -5.09751872e-08 -1.64501868e-08
  0.00000000e+00  0.00000000e+00  0.00000000e+00  2.67594336e-06]","[[ 3.79449129e-05  1.72336159e-03]
 [-8.44899715e-05  7.64625475e-04]]",[],0.0,0.0
1787145680.6639755,2.6557503129214473,-0.02214463842551117,2.0056321210806525,"[ 3.29160983e-06 -1.84566065e-07  0.00000000e+00  0.00000000e+00
  0.00000000e+00 -5.09751872e-08 -1.84566065e-07  3.62233596e-06
  0.00000000e+00  0.00000000e+00  0.00000000e+00 -1.64501868e-08
  0.00000000e+00  0.00000000e+00  0.00000000e+00  0.00000000e+00
  0.00000000e+00  0.00000000e+00  0.00000000e+00  0.00000000e+00
  0.00000000e+00  0.00000000e+00  0.00000000e+00  0.00000000e+00
  0.00000000e+00  0.00000000e+00  0.00000000e+00  0.00000000e+00
  0.00000000e+00  0.00000000e+00 -5.09751872e-08 -1.64501868e-08
  0.00000000e+00  0.00000000e+00  0.00000000e+00  2.67594336e-06]","[[ 3.79449129e-05  1.72336159e-03]
 [-8.44899715e-05  7.64625475e-04]]",[],0.0,0.0
1787145680.7199657,2.6557503129214473,-0.02214463842551117,2.0056321210806525,"[ 3.29160983e-06 -1.84566065e-07  0.00000000e+00  0.00000000e+00
  0.00000000e+00 -5.09751872e-08 -1.84566065e-07  3.62233596e-06
  0.00000000e+00  0.00000000e+00  0.00000000e+00 -1.64501868e-08
  0.00000000e+00  0.00000000e+00  0.00000000e+00  0.00000000e+00
  0.00000000e+00  0.00000000e+00  0.00000000e+00  0.00000000e+00
  0.00000000e+00  0.00000000e+00  0.00000000e+00  0.00000000e+00
  0.00000000e+00  0.00000000e+00  0.00000000e+00  0.00000000e+00
  0.00000000e+00  0.00000000e+00 -5.09751872e-08 -1.64501868e-08
  0.00000000e+00  0.00000000e+00  0.00000000e+00  2.67594336e-06]","[[ 3.79449129e-05  1.72336159e-03]
 [-8.44899715e-05  7.64625475e-04]]",[],0.0,0.0
1787145680.7667317,2.6557503129214473,-0.02214463842551117,2.0056321210806525,"[ 3.29160983e-06 -1.84566065e-07  0.00000000e+00  0.00000000e+00
  0.00000000e+00 -5.09751872e-08 -1.84566065e-07  3.62233596e-06
  0.00000000e+00  0.00000000e+00  0.00000000e+00 -1.64501868e-08
  0.00000000e+00  0.00000000e+00  0.00000000e+00  0.00000000e+00
  0.00000000e+00  0.00000000e+00  0.00000000e+00  0.00000000e+00
  0.00000000e+00  0.00000000e+00  0.00000000e+00  0.00000000e+00
  0.00000000e+00  0.00000000e+00  0.00000000e+00  0.00000000e+00
  0.00000000e+00  0.00000000e+00 -5.09751872e-08 -1.64501868e-08
  0.00000000e+00  0.00000000e+00  0.00000000e+00  2.67594336e-06]","[[ 3.79449129e-05  1.72336159e-03]
 [-8.44899715e-05  7.64625475e-04]]",[],0.0,0.0
1787145680.8151689,2.6557503129214473,-0.02214463842551117,2.0056321210806525,"[ 3.29160983e-06 -1.84566065e-07  0.00000000e+00  0.00000000e+00
  0.00000000e+00 -5.09751872e-08 -1.84566065e-07  3.62233596e-06
  0.00000000e+00  0.00000000e+00  0.00000000e+00 -1.64501868e-08
  0.00000000e+00  0.00000000e+00  0.00000000e+00  0.00000000e+00
  0.00000000e+00  0.00000000e+00  0.00000000e+00  0.00000000e+00
  0.00000000e+00  0.00000000e+00  0.00000000e+00  0.00000000e+00
  0.00000000e+00  0.00000000e+00  0.00000000e+00  0.00000000e+00
  0.00000000e+00  0.00000000e+00 -5.09751872e-08 -1.64501868e-08
  0.00000000e+00  0.00000000e+00  0.00000000e+00  2.67594336e-06]","[[ 3.79449129e-05  1.72336159e-03]
 [-8.44899715e-05  7.64625475e-04]]",[],0.0,0.0
1787145680.8748252,2.6557503129214473,-0.02214463842551117,2.0056321210806525,"[ 3.29160983e-06 -1.84566065e-07  0.00000000e+00  0.00000000e+00
  0.00000000e+00 -5.09751872e-08 -1.84566065e-07  3.62233596e-06
  0.00000000e+00  0.00000000e+00  0.00000000e+00 -1.64501868e-08
  0.00000000e+00  0.00000000e+00  0.00000000e+00  0.00000000e+00
  0.00000000e+00  0.00000000e+00  0.00000000e+00  0.00000000e+00
  0.00000000e+00  0.00000000e+00  0.00000000e+00  0.00000000e+00
  0.00000000e+00  0.00000000e+00  0.00000000e+00  0.00000000e+00
  0.00000000e+00  0.00000000e+00 -5.09751872e-08 -1.64501868e-08
  0.00000000e+00  0.00000000e+00  0.00000000e+00  2.67594336e-06]","[[ 3.79449129e-05  1.72336159e-03]
 [-8.44899715e-05  7.64625475e-04]]",[],0.0,0.0
1787145680.9149165,2.6557503129214473,-0.02214463842551117,2.0056321210806525,"[ 3.29160983e-06 -1.84566065e-07  0.00000000e+00  0.00000000e+00
  0.00000000e+00 -5.09751872e-08 -1.84566065e-07  3.62233596e-06
  0.00000000e+00  0.00000000e+00  0.00000000e+00 -1.64501868e-08
  0.00000000e+00  0.00000000e+00  0.00000000e+00  0.00000000e+00
  0.00000000e+00  0.00000000e+00  0.00000000e+00  0.00000000e+00
  0.00000000e+00  0.00000000e+00  0.00000000e+00  0.00000000e+00
  0.00000000e+00  0.00000000e+00  0.00000000e+00  0.00000000e+00
  0.00000000e+00  0.00000000e+00 -5.09751872e-08 -1.64501868e-08
  0.00000000e+00  0.00000000e+00  0.00000000e+00  2.67594336e-06]","[[ 3.79449129e-05  1.72336159e-03]
 [-8.44899715e-05  7.64625475e-04]]",[],0.0,0.0
1787145680.9719696,2.6557503129214473,-0.02214463842551117,2.0056321210806525,"[ 3.29160983e-06 -1.84566065e-07  0.00000000e+00  0.00000000e+00
  0.00000000e+00 -5.09751872e-08 -1.84566065e-07  3.62233596e-06
  0.00000000e+00  0.00000000e+00  0.00000000e+00 -1.64501868e-08
  0.00000000e+00  0.00000000e+00  0.00000000e+00  0.00000000e+00
  0.00000000e+00  0.00000000e+00  0.00000000e+00  0.00000000e+00
  0.00000000e+00  0.00000000e+00  0.00000000e+00  0.00000000e+00
  0.00000000e+00  0.00000000e+00  0.00000000e+00  0.00000000e+00
  0.00000000e+00  0.00000000e+00 -5.09751872e-08 -1.64501868e-08
  0.00000000e+00  0.00000000e+00  0.00000000e+00  2.67594336e-06]","[[ 3.79449129e-05  1.72336159e-03]
 [-8.44899715e-05  7.64625475e-04]]",[],0.0,0.0
1787145681.0299563,2.6557503129214473,-0.02214463842551117,2.0056321210806525,"[ 3.29160983e-06 -1.84566065e-07  0.00000000e+00  0.00000000e+00
  0.00000000e+00 -5.09751872e-08 -1.84566065e-07  3.62233596e-06
  0.00000000e+00  0.00000000e+00  0.00000000e+00 -1.64501868e-08
  0.00000000e+00  0.00000000e+00  0.00000000e+00  0.00000000e+00
  0.00000000e+00  0.00000000e+00  0.00000000e+00  0.00000000e+00
  0.00000000e+00  0.00000000e+00  0.00000000e+00  0.00000000e+00
  0.00000000e+00  0.00000000e+00  0.00000000e+00  0.00000000e+00
  0.00000000e+00  0.00000000e+00 -5.09751872e-08 -1.64501868e-08
  0.00000000e+00  0.00000000e+00  0.00000000e+00  2.67594336e-06]","[[ 3.79449129e-05  1.72336159e-03]
 [-8.44899715e-05  7.64625475e-04]]",[],0.0,0.0
1787145681.093568,2.6557503129214473,-0.02214463842551117,2.0056321210806525,"[ 3.29160983e-06 -1.84566065e-07  0.00000000e+00  0.00000000e+00
  0.00000000e+00 -5.09751872e-08 -1.84566065e-07  3.62233596e-06
  0.00000000e+00  0.00000000e+00  0.00000000e+00 -1.64501868e-08
  0.00000000e+00  0.00000000e+00  0.00000000e+00  0.00000000e+00
  0.00000000e+00  0.00000000e+00  0.00000000e+00  0.00000000e+00
  0.00000000e+00  0.00000000e+00  0.00000000e+00  0.00000000e+00
  0.00000000e+00  0.00000000e+00  0.00000000e+00  0.00000000e+00
  0.00000000e+00  0.00000000e+00 -5.09751872e-08 -1.64501868e-08
  0.00000000e+00  0.00000000e+00  0.00000000e+00  2.67594336e-06]","[[ 3.79449129e-05  1.72336159e-03]
 [-8.44899715e-05  7.64625475e-04]]",[],0.0,0.0
1787145681.114184,2.6557503129214473,-0.02214463842551117,2.0056321210806525,"[ 3.29160983e-06 -1.84566065e-07  0.00000000e+00  0.00000000e+00
  0.00000000e+00 -5.09751872e-08 -1.84566065e-07  3.62233596e-06
  0.00000000e+00  0.00000000e+00  0.00000000e+00 -1.64501868e-08
  0.00000000e+00  0.00000000e+00  0.00000000e+00  0.00000000e+00
  0.00000000e+00  0.00000000e+00  0.00000000e+00  0.00000000e+00
  0.00000000e+00  0.00000000e+00  0.00000000e+00  0.00000000e+00
  0.00000000e+00  0.00000000e+00  0.00000000e+00  0.00000000e+00
  0.00000000e+00  0.00000000e+00 -5.09751872e-08 -1.64501868e-08
  0.00000000e+00  0.00000000e+00  0.00000000e+00  2.67594336e-06]","[[ 3.79449129e-05  1.72336159e-03]
 [-8.44899715e-05  7.64625475e-04]]",[],0.0,0.0
1787145681.1660984,2.6557503129214473,-0.02214463842551117,2.0056321210806525,"[ 3.29160983e-06 -1.84566065e-07  0.00000000e+00  0.00000000e+00
  0.00000000e+00 -5.09751872e-08 -1.84566065e-07  3.62233596e-06
  0.00000000e+00  0.00000000e+00  0.00000000e+00 -1.64501868e-08
  0.00000000e+00  0.00000000e+00  0.00000000e+00  0.00000000e+00
  0.00000000e+00  0.00000000e+00  0.00000000e+00  0.00000000e+00
  0.00000000e+00  0.00000000e+00  0.00000000e+00  0.00000000e+00
  0.00000000e+00  0.00000000e+00  0.00000000e+00  0.00000000e+00
  0.00000000e+00  0.00000000e+00 -5.09751872e-08 -1.64501868e-08
  0.00000000e+00  0.00000000e+00  0.00000000e+00  2.67594336e-06]","[[ 3.79449129e-05  1.72336159e-03]
 [-8.44899715e-05  7.64625475e-04]]",[],0.0,0.0
1787145681.214839,2.6557503129214473,-0.02214463842551117,2.0056321210806525,"[ 3.29160983e-06 -1.84566065e-07  0.00000000e+00  0.00000000e+00
  0.00000000e+00 -5.09751872e-08 -1.84566065e-07  3.62233596e-06
  0.00000000e+00  0.00000000e+00  0.00000000e+00 -1.64501868e-08
  0.00000000e+00  0.00000000e+00  0.00000000e+00  0.00000000e+00
  0.00000000e+00  0.00000000e+00  0.00000000e+00  0.00000000e+00
  0.00000000e+00  0.00000000e+00  0.00000000e+00  0.00000000e+00
  0.00000000e+00  0.00000000e+00  0.00000000e+00  0.00000000e+00
  0.00000000e+00  0.00000000e+00 -5.09751872e-08 -1.64501868e-08
  0.00000000e+00  0.00000000e+00  0.00000000e+00  2.67594336e-06]","[[ 3.79449129e-05  1.72336159e-03]
 [-8.44899715e-05  7.64625475e-04]]",[],0.0,0.0
1787145681.2653086,2.6557503129214473,-0.02214463842551117,2.0056321210806525,"[ 3.29160983e-06 -1.84566065e-07  0.00000000e+00  0.00000000e+00
  0.00000000e+00 -5.09751872e-08 -1.84566065e-07  3.62233596e-06
  0.00000000e+00  0.00000000e+00  0.00000000e+00 -1.64501868e-08
  0.00000000e+00  0.00000000e+00  0.00000000e+00  0.00000000e+00
  0.00000000e+00  0.00000000e+00  0.00000000e+00  0.00000000e+00
  0.00000000e+00  0.00000000e+00  0.00000000e+00  0.00000000e+00
  0.00000000e+00  0.00000000e+00  0.00000000e+00  0.00000000e+00
  0.00000000e+00  0.00000000e+00 -5.09751872e-08 -1.64501868e-08
  0.00000000e+00  0.00000000e+00  0.00000000e+00  2.67594336e-06]","[[ 3.79449129e-05  1.72336159e-03]
 [-8.44899715e-05  7.64625475e-04]]",[],0.0,0.0
1787145681.3140602,2.6557503129214473,-0.02214463842551117,2.0056321210806525,"[ 3.29160983e-06 -1.84566065e-07  0.00000000e+00  0.00000000e+00
  0.00000000e+00 -5.09751872e-08 -1.84566065e-07  3.62233596e-06
  0.00000000e+00  0.00000000e+00  0.00000000e+00 -1.64501868e-08
  0.00000000e+00  0.00000000e+00  0.00000000e+00  0.00000000e+00
  0.00000000e+00  0.00000000e+00  0.00000000e+00  0.00000000e+00
  0.00000000e+00  0.00000000e+00  0.00000000e+00  0.00000000e+00
  0.00000000e+00  0.00000000e+00  0.00000000e+00  0.00000000e+00
  0.00000000e+00  0.00000000e+00 -5.09751872e-08 -1.64501868e-08
  0.00000000e+00  0.00000000e+00  0.00000000e+00  2.67594336e-06]","[[ 3.79449129e-05  1.72336159e-03]
 [-8.44899715e-05  7.64625475e-04]]",[],0.0,0.0
1787145681.3677297,2.6559397703659613,-0.02332793222012402,2.0097005243606985,"[ 3.11786939e-06 -2.30008350e-07  0.00000000e+00  0.00000000e+00
  0.00000000e+00 -3.12278553e-08 -2.30008350e-07  3.51479490e-06
  0.00000000e+00  0.00000000e+00  0.00000000e+00 -3.16826590e-08
  0.00000000e+00  0.00000000e+00  0.00000000e+00  0.00000000e+00
  0.00000000e+00  0.00000000e+00  0.00000000e+00  0.00000000e+00
  0.00000000e+00  0.00000000e+00  0.00000000e+00  0.00000000e+00
  0.00000000e+00  0.00000000e+00  0.00000000e+00  0.00000000e+00
  0.00000000e+00  0.00000000e+00 -3.12278553e-08 -3.16826590e-08
  0.00000000e+00  0.00000000e+00  0.00000000e+00  2.67556722e-06]","[[ 3.71472626e-05  1.59163018e-03]
 [-8.25272823e-05  7.40249758e-04]]",[],0.0,0.0
1787145681.4190943,2.6559397703659613,-0.02332793222012402,2.0097005243606985,"[ 3.11786939e-06 -2.30008350e-07  0.00000000e+00  0.00000000e+00
  0.00000000e+00 -3.12278553e-08 -2.30008350e-07  3.51479490e-06
  0.00000000e+00  0.00000000e+00  0.00000000e+00 -3.16826590e-08
  0.00000000e+00  0.00000000e+00  0.00000000e+00  0.00000000e+00
  0.00000000e+00  0.00000000e+00  0.00000000e+00  0.00000000e+00
  0.00000000e+00  0.00000000e+00  0.00000000e+00  0.00000000e+00
  0.00000000e+00  0.00000000e+00  0.00000000e+00  0.00000000e+00
  0.00000000e+00  0.00000000e+00 -3.12278553e-08 -3.16826590e-08
  0.00000000e+00  0.00000000e+00  0.00000000e+00  2.67556722e-06]","[[ 3.71472626e-05  1.59163018e-03]
 [-8.25272823e-05  7.40249758e-04]]",[],0.0,0.0
1787145681.4751983,2.6559397703659613,-0.02332793222012402,2.0097005243606985,"[ 3.11786939e-06 -2.30008350e-07  0.00000000e+00  0.00000000e+00
  0.00000000e+00 -3.12278553e-08 -2.30008350e-07  3.51479490e-06
  0.00000000e+00  0.00000000e+00  0.00000000e+00 -3.16826590e-08
  0.00000000e+00  0.00000000e+00  0.00000000e+00  0.00000000e+00
  0.00000000e+00  0.00000000e+00  0.00000000e+00  0.00000000e+00
  0.00000000e+00  0.00000000e+00  0.00000000e+00  0.00000000e+00
  0.00000000e+00  0.00000000e+00  0.00000000e+00  0.00000000e+00
  0.00000000e+00  0.00000000e+00 -3.12278553e-08 -3.16826590e-08
  0.00000000e+00  0.00000000e+00  0.00000000e+00  2.67556722e-06]","[[ 3.71472626e-05  1.59163018e-03]
 [-8.25272823e-05  7.40249758e-04]]",[],0.0,0.0
1787145681.5264854,2.6559397703659613,-0.02332793222012402,2.0097005243606985,"[ 3.11786939e-06 -2.30008350e-07  0.00000000e+00  0.00000000e+00
  0.00000000e+00 -3.12278553e-08 -2.30008350e-07  3.51479490e-06
  0.00000000e+00  0.00000000e+00  0.00000000e+00 -3.16826590e-08
  0.00000000e+00  0.00000000e+00  0.00000000e+00  0.00000000e+00
  0.00000000e+00  0.00000000e+00  0.00000000e+00  0.00000000e+00
  0.00000000e+00  0.00000000e+00  0.00000000e+00  0.00000000e+00
  0.00000000e+00  0.00000000e+00  0.00000000e+00  0.00000000e+00
  0.00000000e+00  0.00000000e+00 -3.12278553e-08 -3.16826590e-08
  0.00000000e+00  0.00000000e+00  0.00000000e+00  2.67556722e-06]","[[ 3.71472626e-05  1.59163018e-03]
 [-8.25272823e-05  7.40249758e-04]]",[],0.0,0.0
1787145681.5751936,2.6559397703659613,-0.02332793222012402,2.0097005243606985,"[ 3.11786939e-06 -2.30008350e-07  0.00000000e+00  0.00000000e+00
  0.00000000e+00 -3.12278553e-08 -2.30008350e-07  3.51479490e-06
  0.00000000e+00  0.00000000e+00  0.00000000e+00 -3.16826590e-08
  0.00000000e+00  0.00000000e+00  0.00000000e+00  0.00000000e+00
  0.00000000e+00  0.00000000e+00  0.00000000e+00  0.00000000e+00
  0.00000000e+00  0.00000000e+00  0.00000000e+00  0.00000000e+00
  0.00000000e+00  0.00000000e+00  0.00000000e+00  0.00000000e+00
  0.00000000e+00  0.00000000e+00 -3.12278553e-08 -3.16826590e-08
  0.00000000e+00  0.00000000e+00  0.00000000e+00  2.67556722e-06]","[[ 3.71472626e-05  1.59163018e-03]
 [-8.25272823e-05  7.40249758e-04]]",[],0.0,0.0
1787145681.634313,2.6559397703659613,-0.02332793222012402,2.0097005243606985,"[ 3.11786939e-06 -2.30008350e-07  0.00000000e+00  0.00000000e+00
  0.00000000e+00 -3.12278553e-08 -2.30008350e-07  3.51479490e-06
  0.00000000e+00  0.00000000e+00  0.00000000e+00 -3.16826590e-08
  0.00000000e+00  0.00000000e+00  0.00000000e+00  0.00000000e+00
  0.00000000e+00  0.00000000e+00  0.00000000e+00  0.00000000e+00
  0.00000000e+00  0.00000000e+00  0.00000000e+00  0.00000000e+00
  0.00000000e+00  0.00000000e+00  0.00000000e+00  0.00000000e+00
  0.00000000e+00  0.00000000e+00 -3.12278553e-08 -3.16826590e-08
  0.00000000e+00  0.00000000e+00  0.00000000e+00  2.67556722e-06]","[[ 3.71472626e-05  1.59163018e-03]
 [-8.25272823e-05  7.40249758e-04]]",[],0.0,0.0
1787145681.6673512,2.6559397703659613,-0.02332793222012402,2.0097005243606985,"[ 3.11786939e-06 -2.30008350e-07  0.00000000e+00  0.00000000e+00
  0.00000000e+00 -3.12278553e-08 -2.30008350e-07  3.51479490e-06
  0.00000000e+00  0.00000000e+00  0.00000000e+00 -3.16826590e-08
  0.00000000e+00  0.00000000e+00  0.00000000e+00  0.00000000e+00
  0.00000000e+00  0.00000000e+00  0.00000000e+00  0.00000000e+00
  0.00000000e+00  0.00000000e+00  0.00000000e+00  0.00000000e+00
  0.00000000e+00  0.00000000e+00  0.00000000e+00  0.00000000e+00
  0.00000000e+00  0.00000000e+00 -3.12278553e-08 -3.16826590e-08
  0.00000000e+00  0.00000000e+00  0.00000000e+00  2.67556722e-06]","[[ 3.71472626e-05  1.59163018e-03]
 [-8.25272823e-05  7.40249758e-04]]",[],0.0,0.0
1787145681.7289178,2.6559397703659613,-0.02332793222012402,2.0097005243606985,"[ 3.11786939e-06 -2.30008350e-07  0.00000000e+00  0.00000000e+00
  0.00000000e+00 -3.12278553e-08 -2.30008350e-07  3.51479490e-06
  0.00000000e+00  0.00000000e+00  0.00000000e+00 -3.16826590e-08
  0.00000000e+00  0.00000000e+00  0.00000000e+00  0.00000000e+00
  0.00000000e+00  0.00000000e+00  0.00000000e+00  0.00000000e+00
  0.00000000e+00  0.00000000e+00  0.00000000e+00  0.00000000e+00
  0.00000000e+00  0.00000000e+00  0.00000000e+00  0.00000000e+00
  0.00000000e+00  0.00000000e+00 -3.12278553e-08 -3.16826590e-08
  0.00000000e+00  0.00000000e+00  0.00000000e+00  2.67556722e-06]","[[ 3.71472626e-05  1.59163018e-03]
 [-8.25272823e-05  7.40249758e-04]]",[],0.0,0.0
1787145681.7677608,2.6559397703659613,-0.02332793222012402,2.0097005243606985,"[ 3.11786939e-06 -2.30008350e-07  0.00000000e+00  0.00000000e+00
  0.00000000e+00 -3.12278553e-08 -2.30008350e-07  3.51479490e-06
  0.00000000e+00  0.00000000e+00  0.00000000e+00 -3.16826590e-08
  0.00000000e+00  0.00000000e+00  0.00000000e+00  0.00000000e+00
  0.00000000e+00  0.00000000e+00  0.00000000e+00  0.00000000e+00
  0.00000000e+00  0.00000000e+00  0.00000000e+00  0.00000000e+00
  0.00000000e+00  0.00000000e+00  0.00000000e+00  0.00000000e+00
  0.00000000e+00  0.00000000e+00 -3.12278553e-08 -3.16826590e-08
  0.00000000e+00  0.00000000e+00  0.00000000e+00  2.67556722e-06]","[[ 3.71472626e-05  1.59163018e-03]
 [-8.25272823e-05  7.40249758e-04]]",[],0.0,0.0
1787145681.8142474,2.6559397703659613,-0.02332793222012402,2.0097005243606985,"[ 3.11786939e-06 -2.30008350e-07  0.00000000e+00  0.00000000e+00
  0.00000000e+00 -3.12278553e-08 -2.30008350e-07  3.51479490e-06
  0.00000000e+00  0.00000000e+00  0.00000000e+00 -3.16826590e-08
  0.00000000e+00  0.00000000e+00  0.00000000e+00  0.00000000e+00
  0.00000000e+00  0.00000000e+00  0.00000000e+00  0.00000000e+00
  0.00000000e+00  0.00000000e+00  0.00000000e+00  0.00000000e+00
  0.00000000e+00  0.00000000e+00  0.00000000e+00  0.00000000e+00
  0.00000000e+00  0.00000000e+00 -3.12278553e-08 -3.16826590e-08
  0.00000000e+00  0.00000000e+00  0.00000000e+00  2.67556722e-06]","[[ 3.71472626e-05  1.59163018e-03]
 [-8.25272823e-05  7.40249758e-04]]",[],0.0,0.0
1787145681.8637567,2.6559397703659613,-0.02332793222012402,2.0097005243606985,"[ 3.11786939e-06 -2.30008350e-07  0.00000000e+00  0.00000000e+00
  0.00000000e+00 -3.12278553e-08 -2.30008350e-07  3.51479490e-06
  0.00000000e+00  0.00000000e+00  0.00000000e+00 -3.16826590e-08
  0.00000000e+00  0.00000000e+00  0.00000000e+00  0.00000000e+00
  0.00000000e+00  0.00000000e+00  0.00000000e+00  0.00000000e+00
  0.00000000e+00  0.00000000e+00  0.00000000e+00  0.00000000e+00
  0.00000000e+00  0.00000000e+00  0.00000000e+00  0.00000000e+00
  0.00000000e+00  0.00000000e+00 -3.12278553e-08 -3.16826590e-08
  0.00000000e+00  0.00000000e+00  0.00000000e+00  2.67556722e-06]","[[ 3.71472626e-05  1.59163018e-03]
 [-8.25272823e-05  7.40249758e-04]]",[],0.0,0.0
1787145681.9192317,2.6559397703659613,-0.02332793222012402,2.0097005243606985,"[ 3.11786939e-06 -2.30008350e-07  0.00000000e+00  0.00000000e+00
  0.00000000e+00 -3.12278553e-08 -2.30008350e-07  3.51479490e-06
  0.00000000e+00  0.00000000e+00  0.00000000e+00 -3.16826590e-08
  0.00000000e+00  0.00000000e+00  0.00000000e+00  0.00000000e+00
  0.00000000e+00  0.00000000e+00  0.00000000e+00  0.00000000e+00
  0.00000000e+00  0.00000000e+00  0.00000000e+00  0.00000000e+00
  0.00000000e+00  0.00000000e+00  0.00000000e+00  0.00000000e+00
  0.00000000e+00  0.00000000e+00 -3.12278553e-08 -3.16826590e-08
  0.00000000e+00  0.00000000e+00  0.00000000e+00  2.67556722e-06]","[[ 3.71472626e-05  1.59163018e-03]
 [-8.25272823e-05  7.40249758e-04]]",[],0.0,0.0
1787145681.9647152,2.6559397703659613,-0.02332793222012402,2.0097005243606985,"[ 3.11786939e-06 -2.30008350e-07  0.00000000e+00  0.00000000e+00
  0.00000000e+00 -3.12278553e-08 -2.30008350e-07  3.51479490e-06
  0.00000000e+00  0.00000000e+00  0.00000000e+00 -3.16826590e-08
  0.00000000e+00  0.00000000e+00  0.00000000e+00  0.00000000e+00
  0.00000000e+00  0.00000000e+00  0.00000000e+00  0.00000000e+00
  0.00000000e+00  0.00000000e+00  0.00000000e+00  0.00000000e+00
  0.00000000e+00  0.00000000e+00  0.00000000e+00  0.00000000e+00
  0.00000000e+00  0.00000000e+00 -3.12278553e-08 -3.16826590e-08
  0.00000000e+00  0.00000000e+00  0.00000000e+00  2.67556722e-06]","[[ 3.71472626e-05  1.59163018e-03]
 [-8.25272823e-05  7.40249758e-04]]",[],0.0,0.0
1787145682.0143108,2.6559397703659613,-0.02332793222012402,2.0097005243606985,"[ 3.11786939e-06 -2.30008350e-07  0.00000000e+00  0.00000000e+00
  0.00000000e+00 -3.12278553e-08 -2.30008350e-07  3.51479490e-06
  0.00000000e+00  0.00000000e+00  0.00000000e+00 -3.16826590e-08
  0.00000000e+00  0.00000000e+00  0.00000000e+00  0.00000000e+00
  0.00000000e+00  0.00000000e+00  0.00000000e+00  0.00000000e+00
  0.00000000e+00  0.00000000e+00  0.00000000e+00  0.00000000e+00
  0.00000000e+00  0.00000000e+00  0.00000000e+00  0.00000000e+00
  0.00000000e+00  0.00000000e+00 -3.12278553e-08 -3.16826590e-08
  0.00000000e+00  0.00000000e+00  0.00000000e+00  2.67556722e-06]","[[ 3.71472626e-05  1.59163018e-03]
 [-8.25272823e-05  7.40249758e-04]]",[],0.0,0.0
1787145682.6375773,2.656426255957069,-0.02341277996647303,2.017436402704794,"[ 2.95571328e-06 -2.57569815e-07  0.00000000e+00  0.00000000e+00
  0.00000000e+00 -2.26820250e-08 -2.57569815e-07  3.41878805e-06
  0.00000000e+00  0.00000000e+00  0.00000000e+00 -4.37720311e-08
  0.00000000e+00  0.00000000e+00  0.00000000e+00  0.00000000e+00
  0.00000000e+00  0.00000000e+00  0.00000000e+00  0.00000000e+00
  0.00000000e+00  0.00000000e+00  0.00000000e+00  0.00000000e+00
  0.00000000e+00  0.00000000e+00  0.00000000e+00  0.00000000e+00
  0.00000000e+00  0.00000000e+00 -2.26820250e-08 -4.37720311e-08
  0.00000000e+00  0.00000000e+00  0.00000000e+00  2.72609598e-06]","[[ 3.61100140e-05  1.48786430e-03]
 [-8.06223891e-05  7.23723064e-04]]",[],0.0,0.0
1787145682.6642773,2.656426255957069,-0.02341277996647303,2.017436402704794,"[ 2.95571328e-06 -2.57569815e-07  0.00000000e+00  0.00000000e+00
  0.00000000e+00 -2.26820250e-08 -2.57569815e-07  3.41878805e-06
  0.00000000e+00  0.00000000e+00  0.00000000e+00 -4.37720311e-08
  0.00000000e+00  0.00000000e+00  0.00000000e+00  0.00000000e+00
  0.00000000e+00  0.00000000e+00  0.00000000e+00  0.00000000e+00
  0.00000000e+00  0.00000000e+00  0.00000000e+00  0.00000000e+00
  0.00000000e+00  0.00000000e+00  0.00000000e+00  0.00000000e+00
  0.00000000e+00  0.00000000e+00 -2.26820250e-08 -4.37720311e-08
  0.00000000e+00  0.00000000e+00  0.00000000e+00  2.72609598e-06]","[[ 3.61100140e-05  1.48786430e-03]
 [-8.06223891e-05  7.23723064e-04]]",[],0.0,0.0
1787145682.716116,2.657126641957078,-0.023063116221460282,2.015117426766027,"[ 2.82207632e-06 -2.64889155e-07  0.00000000e+00  0.00000000e+00
  0.00000000e+00 -3.49592073e-08 -2.64889155e-07  3.27767502e-06
  0.00000000e+00  0.00000000e+00  0.00000000e+00 -4.68212303e-08
  0.00000000e+00  0.00000000e+00  0.00000000e+00  0.00000000e+00
  0.00000000e+00  0.00000000e+00  0.00000000e+00  0.00000000e+00
  0.00000000e+00  0.00000000e+00  0.00000000e+00  0.00000000e+00
  0.00000000e+00  0.00000000e+00  0.00000000e+00  0.00000000e+00
  0.00000000e+00  0.00000000e+00 -3.49592073e-08 -4.68212303e-08
  0.00000000e+00  0.00000000e+00  0.00000000e+00  2.65378703e-06]","[[ 3.39906510e-05  1.40717258e-03]
 [-7.78777654e-05  6.48888212e-04]]",[],0.0,0.0
1787145682.7640698,2.657126641957078,-0.023063116221460282,2.015117426766027,"[ 2.82207632e-06 -2.64889155e-07  0.00000000e+00  0.00000000e+00
  0.00000000e+00 -3.49592073e-08 -2.64889155e-07  3.27767502e-06
  0.00000000e+00  0.00000000e+00  0.00000000e+00 -4.68212303e-08
  0.00000000e+00  0.00000000e+00  0.00000000e+00  0.00000000e+00
  0.00000000e+00  0.00000000e+00  0.00000000e+00  0.00000000e+00
  0.00000000e+00  0.00000000e+00  0.00000000e+00  0.00000000e+00
  0.00000000e+00  0.00000000e+00  0.00000000e+00  0.00000000e+00
  0.00000000e+00  0.00000000e+00 -3.49592073e-08 -4.68212303e-08
  0.00000000e+00  0.00000000e+00  0.00000000e+00  2.65378703e-06]","[[ 3.39906510e-05  1.40717258e-03]
 [-7.78777654e-05  6.48888212e-04]]",[],0.0,0.0
1787145682.8150806,2.657126641957078,-0.023063116221460282,2.015117426766027,"[ 2.82207632e-06 -2.64889155e-07  0.00000000e+00  0.00000000e+00
  0.00000000e+00 -3.49592073e-08 -2.64889155e-07  3.27767502e-06
  0.00000000e+00  0.00000000e+00  0.00000000e+00 -4.68212303e-08
  0.00000000e+00  0.00000000e+00  0.00000000e+00  0.00000000e+00
  0.00000000e+00  0.00000000e+00  0.00000000e+00  0.00000000e+00
  0.00000000e+00  0.00000000e+00  0.00000000e+00  0.00000000e+00
  0.00000000e+00  0.00000000e+00  0.00000000e+00  0.00000000e+00
  0.00000000e+00  0.00000000e+00 -3.49592073e-08 -4.68212303e-08
  0.00000000e+00  0.00000000e+00  0.00000000e+00  2.65378703e-06]","[[ 3.39906510e-05  1.40717258e-03]
 [-7.78777654e-05  6.48888212e-04]]",[],0.0,0.0
1787145682.863894,2.657126641957078,-0.023063116221460282,2.015117426766027,"[ 2.82207632e-06 -2.64889155e-07  0.00000000e+00  0.00000000e+00
  0.00000000e+00 -3.49592073e-08 -2.64889155e-07  3.27767502e-06
  0.00000000e+00  0.00000000e+00  0.00000000e+00 -4.68212303e-08
  0.00000000e+00  0.00000000e+00  0.00000000e+00  0.00000000e+00
  0.00000000e+00  0.00000000e+00  0.00000000e+00  0.00000000e+00
  0.00000000e+00  0.00000000e+00  0.00000000e+00  0.00000000e+00
  0.00000000e+00  0.00000000e+00  0.00000000e+00  0.00000000e+00
  0.00000000e+00  0.00000000e+00 -3.49592073e-08 -4.68212303e-08
  0.00000000e+00  0.00000000e+00  0.00000000e+00  2.65378703e-06]","[[ 3.39906510e-05  1.40717258e-03]
 [-7.78777654e-05  6.48888212e-04]]",[],0.0,0.0
1787145682.9147491,2.657126641957078,-0.023063116221460282,2.015117426766027,"[ 2.82207632e-06 -2.64889155e-07  0.00000000e+00  0.00000000e+00
  0.00000000e+00 -3.49592073e-08 -2.64889155e-07  3.27767502e-06
  0.00000000e+00  0.00000000e+00  0.00000000e+00 -4.68212303e-08
  0.00000000e+00  0.00000000e+00  0.00000000e+00  0.00000000e+00
  0.00000000e+00  0.00000000e+00  0.00000000e+00  0.00000000e+00
  0.00000000e+00  0.00000000e+00  0.00000000e+00  0.00000000e+00
  0.00000000e+00  0.00000000e+00  0.00000000e+00  0.00000000e+00
  0.00000000e+00  0.00000000e+00 -3.49592073e-08 -4.68212303e-08
  0.00000000e+00  0.00000000e+00  0.00000000e+00  2.65378703e-06]","[[ 3.39906510e-05  1.40717258e-03]
 [-7.78777654e-05  6.48888212e-04]]",[],0.0,0.0
1787145682.9680445,2.657126641957078,-0.023063116221460282,2.015117426766027,"[ 2.82207632e-06 -2.64889155e-07  0.00000000e+00  0.00000000e+00
  0.00000000e+00 -3.49592073e-08 -2.64889155e-07  3.27767502e-06
  0.00000000e+00  0.00000000e+00  0.00000000e+00 -4.68212303e-08
  0.00000000e+00  0.00000000e+00  0.00000000e+00  0.00000000e+00
  0.00000000e+00  0.00000000e+00  0.00000000e+00  0.00000000e+00
  0.00000000e+00  0.00000000e+00  0.00000000e+00  0.00000000e+00
  0.00000000e+00  0.00000000e+00  0.00000000e+00  0.00000000e+00
  0.00000000e+00  0.00000000e+00 -3.49592073e-08 -4.68212303e-08
  0.00000000e+00  0.00000000e+00  0.00000000e+00  2.65378703e-06]","[[ 3.39906510e-05  1.40717258e-03]
 [-7.78777654e-05  6.48888212e-04]]",[],0.0,0.0
1787145683.0138376,2.657126641957078,-0.023063116221460282,2.015117426766027,"[ 2.82207632e-06 -2.64889155e-07  0.00000000e+00  0.00000000e+00
  0.00000000e+00 -3.49592073e-08 -2.64889155e-07  3.27767502e-06
  0.00000000e+00  0.00000000e+00  0.00000000e+00 -4.68212303e-08
  0.00000000e+00  0.00000000e+00  0.00000000e+00  0.00000000e+00
  0.00000000e+00  0.00000000e+00  0.00000000e+00  0.00000000e+00
  0.00000000e+00  0.00000000e+00  0.00000000e+00  0.00000000e+00
  0.00000000e+00  0.00000000e+00  0.00000000e+00  0.00000000e+00
  0.00000000e+00  0.00000000e+00 -3.49592073e-08 -4.68212303e-08
  0.00000000e+00  0.00000000e+00  0.00000000e+00  2.65378703e-06]","[[ 3.39906510e-05  1.40717258e-03]
 [-7.78777654e-05  6.48888212e-04]]",[],0.0,0.0
1787145683.0638201,2.657126641957078,-0.023063116221460282,2.015117426766027,"[ 2.82207632e-06 -2.64889155e-07  0.00000000e+00  0.00000000e+00
  0.00000000e+00 -3.49592073e-08 -2.64889155e-07  3.27767502e-06
  0.00000000e+00  0.00000000e+00  0.00000000e+00 -4.68212303e-08
  0.00000000e+00  0.00000000e+00  0.00000000e+00  0.00000000e+00
  0.00000000e+00  0.00000000e+00  0.00000000e+00  0.00000000e+00
  0.00000000e+00  0.00000000e+00  0.00000000e+00  0.00000000e+00
  0.00000000e+00  0.00000000e+00  0.00000000e+00  0.00000000e+00
  0.00000000e+00  0.00000000e+00 -3.49592073e-08 -4.68212303e-08
  0.00000000e+00  0.00000000e+00  0.00000000e+00  2.65378703e-06]","[[ 3.39906510e-05  1.40717258e-03]
 [-7.78777654e-05  6.48888212e-04]]",[],0.0,0.0
1787145683.1139057,2.657126641957078,-0.023063116221460282,2.015117426766027,"[ 2.82207632e-06 -2.64889155e-07  0.00000000e+00  0.00000000e+00
  0.00000000e+00 -3.49592073e-08 -2.64889155e-07  3.27767502e-06
  0.00000000e+00  0.00000000e+00  0.00000000e+00 -4.68212303e-08
  0.00000000e+00  0.00000000e+00  0.00000000e+00  0.00000000e+00
  0.00000000e+00  0.00000000e+00  0.00000000e+00  0.00000000e+00
  0.00000000e+00  0.00000000e+00  0.00000000e+00  0.00000000e+00
  0.00000000e+00  0.00000000e+00  0.00000000e+00  0.00000000e+00
  0.00000000e+00  0.00000000e+00 -3.49592073e-08 -4.68212303e-08
  0.00000000e+00  0.00000000e+00  0.00000000e+00  2.65378703e-06]","[[ 3.39906510e-05  1.40717258e-03]
 [-7.78777654e-05  6.48888212e-04]]",[],0.0,0.0
1787145683.1656854,2.657126641957078,-0.023063116221460282,2.015117426766027,"[ 2.82207632e-06 -2.64889155e-07  0.00000000e+00  0.00000000e+00
  0.00000000e+00 -3.49592073e-08 -2.64889155e-07  3.27767502e-06
  0.00000000e+00  0.00000000e+00  0.00000000e+00 -4.68212303e-08
  0.00000000e+00  0.00000000e+00  0.00000000e+00  0.00000000e+00
  0.00000000e+00  0.00000000e+00  0.00000000e+00  0.00000000e+00
  0.00000000e+00  0.00000000e+00  0.00000000e+00  0.00000000e+00
  0.00000000e+00  0.00000000e+00  0.00000000e+00  0.00000000e+00
  0.00000000e+00  0.00000000e+00 -3.49592073e-08 -4.68212303e-08
  0.00000000e+00  0.00000000e+00  0.00000000e+00  2.65378703e-06]","[[ 3.39906510e-05  1.40717258e-03]
 [-7.78777654e-05  6.48888212e-04]]",[],0.0,0.0
1787145683.2168703,2.657126641957078,-0.023063116221460282,2.015117426766027,"[ 2.82207632e-06 -2.64889155e-07  0.00000000e+00  0.00000000e+00
  0.00000000e+00 -3.49592073e-08 -2.64889155e-07  3.27767502e-06
  0.00000000e+00  0.00000000e+00  0.00000000e+00 -4.68212303e-08
  0.00000000e+00  0.00000000e+00  0.00000000e+00  0.00000000e+00
  0.00000000e+00  0.00000000e+00  0.00000000e+00  0.00000000e+00
  0.00000000e+00  0.00000000e+00  0.00000000e+00  0.00000000e+00
  0.00000000e+00  0.00000000e+00  0.00000000e+00  0.00000000e+00
  0.00000000e+00  0.00000000e+00 -3.49592073e-08 -4.68212303e-08
  0.00000000e+00  0.00000000e+00  0.00000000e+00  2.65378703e-06]","[[ 3.39906510e-05  1.40717258e-03]
 [-7.78777654e-05  6.48888212e-04]]",[],0.0,0.0
1787145683.274755,2.657126641957078,-0.023063116221460282,2.015117426766027,"[ 2.82207632e-06 -2.64889155e-07  0.00000000e+00  0.00000000e+00
  0.00000000e+00 -3.49592073e-08 -2.64889155e-07  3.27767502e-06
  0.00000000e+00  0.00000000e+00  0.00000000e+00 -4.68212303e-08
  0.00000000e+00  0.00000000e+00  0.00000000e+00  0.00000000e+00
  0.00000000e+00  0.00000000e+00  0.00000000e+00  0.00000000e+00
  0.00000000e+00  0.00000000e+00  0.00000000e+00  0.00000000e+00
  0.00000000e+00  0.00000000e+00  0.00000000e+00  0.00000000e+00
  0.00000000e+00  0.00000000e+00 -3.49592073e-08 -4.68212303e-08
  0.00000000e+00  0.00000000e+00  0.00000000e+00  2.65378703e-06]","[[ 3.39906510e-05  1.40717258e-03]
 [-7.78777654e-05  6.48888212e-04]]",[],0.0,0.0
1787145683.315943,2.657126641957078,-0.023063116221460282,2.015117426766027,"[ 2.82207632e-06 -2.64889155e-07  0.00000000e+00  0.00000000e+00
  0.00000000e+00 -3.49592073e-08 -2.64889155e-07  3.27767502e-06
  0.00000000e+00  0.00000000e+00  0.00000000e+00 -4.68212303e-08
  0.00000000e+00  0.00000000e+00  0.00000000e+00  0.00000000e+00
  0.00000000e+00  0.00000000e+00  0.00000000e+00  0.00000000e+00
  0.00000000e+00  0.00000000e+00  0.00000000e+00  0.00000000e+00
  0.00000000e+00  0.00000000e+00  0.00000000e+00  0.00000000e+00
  0.00000000e+00  0.00000000e+00 -3.49592073e-08 -4.68212303e-08
  0.00000000e+00  0.00000000e+00  0.00000000e+00  2.65378703e-06]","[[ 3.39906510e-05  1.40717258e-03]
 [-7.78777654e-05  6.48888212e-04]]",[],0.0,0.0
1787145683.3727322,2.657126641957078,-0.023063116221460282,2.015117426766027,"[ 2.82207632e-06 -2.64889155e-07  0.00000000e+00  0.00000000e+00
  0.00000000e+00 -3.49592073e-08 -2.64889155e-07  3.27767502e-06
  0.00000000e+00  0.00000000e+00  0.00000000e+00 -4.68212303e-08
  0.00000000e+00  0.00000000e+00  0.00000000e+00  0.00000000e+00
  0.00000000e+00  0.00000000e+00  0.00000000e+00  0.00000000e+00
  0.00000000e+00  0.00000000e+00  0.00000000e+00  0.00000000e+00
  0.00000000e+00  0.00000000e+00  0.00000000e+00  0.00000000e+00
  0.00000000e+00  0.00000000e+00 -3.49592073e-08 -4.68212303e-08
  0.00000000e+00  0.00000000e+00  0.00000000e+00  2.65378703e-06]","[[ 3.39906510e-05  1.40717258e-03]
 [-7.78777654e-05  6.48888212e-04]]",[],0.0,0.0
1787145683.4151492,2.657126641957078,-0.023063116221460282,2.015117426766027,"[ 2.82207632e-06 -2.64889155e-07  0.00000000e+00  0.00000000e+00
  0.00000000e+00 -3.49592073e-08 -2.64889155e-07  3.27767502e-06
  0.00000000e+00  0.00000000e+00  0.00000000e+00 -4.68212303e-08
  0.00000000e+00  0.00000000e+00  0.00000000e+00  0.00000000e+00
  0.00000000e+00  0.00000000e+00  0.00000000e+00  0.00000000e+00
  0.00000000e+00  0.00000000e+00  0.00000000e+00  0.00000000e+00
  0.00000000e+00  0.00000000e+00  0.00000000e+00  0.00000000e+00
  0.00000000e+00  0.00000000e+00 -3.49592073e-08 -4.68212303e-08
  0.00000000e+00  0.00000000e+00  0.00000000e+00  2.65378703e-06]","[[ 3.39906510e-05  1.40717258e-03]
 [-7.78777654e-05  6.48888212e-04]]",[],0.0,0.0
1787145683.4672217,2.657126641957078,-0.023063116221460282,2.015117426766027,"[ 2.82207632e-06 -2.64889155e-07  0.00000000e+00  0.00000000e+00
  0.00000000e+00 -3.49592073e-08 -2.64889155e-07  3.27767502e-06
  0.00000000e+00  0.00000000e+00  0.00000000e+00 -4.68212303e-08
  0.00000000e+00  0.00000000e+00  0.00000000e+00  0.00000000e+00
  0.00000000e+00  0.00000000e+00  0.00000000e+00  0.00000000e+00
  0.00000000e+00  0.00000000e+00  0.00000000e+00  0.00000000e+00
  0.00000000e+00  0.00000000e+00  0.00000000e+00  0.00000000e+00
  0.00000000e+00  0.00000000e+00 -3.49592073e-08 -4.68212303e-08
  0.00000000e+00  0.00000000e+00  0.00000000e+00  2.65378703e-06]","[[ 3.39906510e-05  1.40717258e-03]
 [-7.78777654e-05  6.48888212e-04]]",[],0.0,0.0
1787145683.5157743,2.6565024232619563,-0.024607902882082918,2.005746142057369,"[ 2.71466889e-06 -3.11213615e-07  0.00000000e+00  0.00000000e+00
  0.00000000e+00 -6.38551670e-08 -3.11213615e-07  3.24218891e-06
  0.00000000e+00  0.00000000e+00  0.00000000e+00 -2.41575709e-08
  0.00000000e+00  0.00000000e+00  0.00000000e+00  0.00000000e+00
  0.00000000e+00  0.00000000e+00  0.00000000e+00  0.00000000e+00
  0.00000000e+00  0.00000000e+00  0.00000000e+00  0.00000000e+00
  0.00000000e+00  0.00000000e+00  0.00000000e+00  0.00000000e+00
  0.00000000e+00  0.00000000e+00 -6.38551670e-08 -2.41575709e-08
  0.00000000e+00  0.00000000e+00  0.00000000e+00  2.86267191e-06]","[[ 3.48917018e-05  1.42016836e-03]
 [-7.71321174e-05  6.24097048e-04]]",[],0.0,0.0
1787145683.5653462,2.6565024232619563,-0.024607902882082918,2.005746142057369,"[ 2.71466889e-06 -3.11213615e-07  0.00000000e+00  0.00000000e+00
  0.00000000e+00 -6.38551670e-08 -3.11213615e-07  3.24218891e-06
  0.00000000e+00  0.00000000e+00  0.00000000e+00 -2.41575709e-08
  0.00000000e+00  0.00000000e+00  0.00000000e+00  0.00000000e+00
  0.00000000e+00  0.00000000e+00  0.00000000e+00  0.00000000e+00
  0.00000000e+00  0.00000000e+00  0.00000000e+00  0.00000000e+00
  0.00000000e+00  0.00000000e+00  0.00000000e+00  0.00000000e+00
  0.00000000e+00  0.00000000e+00 -6.38551670e-08 -2.41575709e-08
  0.00000000e+00  0.00000000e+00  0.00000000e+00  2.86267191e-06]","[[ 3.48917018e-05  1.42016836e-03]
 [-7.71321174e-05  6.24097048e-04]]",[],0.0,0.0
1787145683.6137211,2.6565024232619563,-0.024607902882082918,2.005746142057369,"[ 2.71466889e-06 -3.11213615e-07  0.00000000e+00  0.00000000e+00
  0.00000000e+00 -6.38551670e-08 -3.11213615e-07  3.24218891e-06
  0.00000000e+00  0.00000000e+00  0.00000000e+00 -2.41575709e-08
  0.00000000e+00  0.00000000e+00  0.00000000e+00  0.00000000e+00
  0.00000000e+00  0.00000000e+00  0.00000000e+00  0.00000000e+00
  0.00000000e+00  0.00000000e+00  0.00000000e+00  0.00000000e+00
  0.00000000e+00  0.00000000e+00  0.00000000e+00  0.00000000e+00
  0.00000000e+00  0.00000000e+00 -6.38551670e-08 -2.41575709e-08
  0.00000000e+00  0.00000000e+00  0.00000000e+00  2.86267191e-06]","[[ 3.48917018e-05  1.42016836e-03]
 [-7.71321174e-05  6.24097048e-04]]",[],0.0,0.0
1787145683.665365,2.6565024232619563,-0.024607902882082918,2.005746142057369,"[ 2.71466889e-06 -3.11213615e-07  0.00000000e+00  0.00000000e+00
  0.00000000e+00 -6.38551670e-08 -3.11213615e-07  3.24218891e-06
  0.00000000e+00  0.00000000e+00  0.00000000e+00 -2.41575709e-08
  0.00000000e+00  0.00000000e+00  0.00000000e+00  0.00000000e+00
  0.00000000e+00  0.00000000e+00  0.00000000e+00  0.00000000e+00
  0.00000000e+00  0.00000000e+00  0.00000000e+00  0.00000000e+00
  0.00000000e+00  0.00000000e+00  0.00000000e+00  0.00000000e+00
  0.00000000e+00  0.00000000e+00 -6.38551670e-08 -2.41575709e-08
  0.00000000e+00  0.00000000e+00  0.00000000e+00  2.86267191e-06]","[[ 3.48917018e-05  1.42016836e-03]
 [-7.71321174e-05  6.24097048e-04]]",[],0.0,0.0
1787145683.7138448,2.6565024232619563,-0.024607902882082918,2.005746142057369,"[ 2.71466889e-06 -3.11213615e-07  0.00000000e+00  0.00000000e+00
  0.00000000e+00 -6.38551670e-08 -3.11213615e-07  3.24218891e-06
  0.00000000e+00  0.00000000e+00  0.00000000e+00 -2.41575709e-08
  0.00000000e+00  0.00000000e+00  0.00000000e+00  0.00000000e+00
  0.00000000e+00  0.00000000e+00  0.00000000e+00  0.00000000e+00
  0.00000000e+00  0.00000000e+00  0.00000000e+00  0.00000000e+00
  0.00000000e+00  0.00000000e+00  0.00000000e+00  0.00000000e+00
  0.00000000e+00  0.00000000e+00 -6.38551670e-08 -2.41575709e-08
  0.00000000e+00  0.00000000e+00  0.00000000e+00  2.86267191e-06]","[[ 3.48917018e-05  1.42016836e-03]
 [-7.71321174e-05  6.24097048e-04]]",[],0.0,0.0
1787145683.7638485,2.6565024232619563,-0.024607902882082918,2.005746142057369,"[ 2.71466889e-06 -3.11213615e-07  0.00000000e+00  0.00000000e+00
  0.00000000e+00 -6.38551670e-08 -3.11213615e-07  3.24218891e-06
  0.00000000e+00  0.00000000e+00  0.00000000e+00 -2.41575709e-08
  0.00000000e+00  0.00000000e+00  0.00000000e+00  0.00000000e+00
  0.00000000e+00  0.00000000e+00  0.00000000e+00  0.00000000e+00
  0.00000000e+00  0.00000000e+00  0.00000000e+00  0.00000000e+00
  0.00000000e+00  0.00000000e+00  0.00000000e+00  0.00000000e+00
  0.00000000e+00  0.00000000e+00 -6.38551670e-08 -2.41575709e-08
  0.00000000e+00  0.00000000e+00  0.00000000e+00  2.86267191e-06]","[[ 3.48917018e-05  1.42016836e-03]
 [-7.71321174e-05  6.24097048e-04]]",[],0.0,0.0
1787145683.813625,2.6565024232619563,-0.024607902882082918,2.005746142057369,"[ 2.71466889e-06 -3.11213615e-07  0.00000000e+00  0.00000000e+00
  0.00000000e+00 -6.38551670e-08 -3.11213615e-07  3.24218891e-06
  0.00000000e+00  0.00000000e+00  0.00000000e+00 -2.41575709e-08
  0.00000000e+00  0.00000000e+00  0.00000000e+00  0.00000000e+00
  0.00000000e+00  0.00000000e+00  0.00000000e+00  0.00000000e+00
  0.00000000e+00  0.00000000e+00  0.00000000e+00  0.00000000e+00
  0.00000000e+00  0.00000000e+00  0.00000000e+00  0.00000000e+00
  0.00000000e+00  0.00000000e+00 -6.38551670e-08 -2.41575709e-08
  0.00000000e+00  0.00000000e+00  0.00000000e+00  2.86267191e-06]","[[ 3.48917018e-05  1.42016836e-03]
 [-7.71321174e-05  6.24097048e-04]]",[],0.0,0.0
1787145683.8638866,2.6565024232619563,-0.024607902882082918,2.005746142057369,"[ 2.71466889e-06 -3.11213615e-07  0.00000000e+00  0.00000000e+00
  0.00000000e+00 -6.38551670e-08 -3.11213615e-07  3.24218891e-06
  0.00000000e+00  0.00000000e+00  0.00000000e+00 -2.41575709e-08
  0.00000000e+00  0.00000000e+00  0.00000000e+00  0.00000000e+00
  0.00000000e+00  0.00000000e+00  0.00000000e+00  0.00000000e+00
  0.00000000e+00  0.00000000e+00  0.00000000e+00  0.00000000e+00
  0.00000000e+00  0.00000000e+00  0.00000000e+00  0.00000000e+00
  0.00000000e+00  0.00000000e+00 -6.38551670e-08 -2.41575709e-08
  0.00000000e+00  0.00000000e+00  0.00000000e+00  2.86267191e-06]","[[ 3.48917018e-05  1.42016836e-03]
 [-7.71321174e-05  6.24097048e-04]]",[],0.0,0.0
1787145683.9149299,2.6565024232619563,-0.024607902882082918,2.005746142057369,"[ 2.71466889e-06 -3.11213615e-07  0.00000000e+00  0.00000000e+00
  0.00000000e+00 -6.38551670e-08 -3.11213615e-07  3.24218891e-06
  0.00000000e+00  0.00000000e+00  0.00000000e+00 -2.41575709e-08
  0.00000000e+00  0.00000000e+00  0.00000000e+00  0.00000000e+00
  0.00000000e+00  0.00000000e+00  0.00000000e+00  0.00000000e+00
  0.00000000e+00  0.00000000e+00  0.00000000e+00  0.00000000e+00
  0.00000000e+00  0.00000000e+00  0.00000000e+00  0.00000000e+00
  0.00000000e+00  0.00000000e+00 -6.38551670e-08 -2.41575709e-08
  0.00000000e+00  0.00000000e+00  0.00000000e+00  2.86267191e-06]","[[ 3.48917018e-05  1.42016836e-03]
 [-7.71321174e-05  6.24097048e-04]]",[],0.0,0.0
1787145683.9669776,2.6565024232619563,-0.024607902882082918,2.005746142057369,"[ 2.71466889e-06 -3.11213615e-07  0.00000000e+00  0.00000000e+00
  0.00000000e+00 -6.38551670e-08 -3.11213615e-07  3.24218891e-06
  0.00000000e+00  0.00000000e+00  0.00000000e+00 -2.41575709e-08
  0.00000000e+00  0.00000000e+00  0.00000000e+00  0.00000000e+00
  0.00000000e+00  0.00000000e+00  0.00000000e+00  0.00000000e+00
  0.00000000e+00  0.00000000e+00  0.00000000e+00  0.00000000e+00
  0.00000000e+00  0.00000000e+00  0.00000000e+00  0.00000000e+00
  0.00000000e+00  0.00000000e+00 -6.38551670e-08 -2.41575709e-08
  0.00000000e+00  0.00000000e+00  0.00000000e+00  2.86267191e-06]","[[ 3.48917018e-05  1.42016836e-03]
 [-7.71321174e-05  6.24097048e-04]]",[],0.0,0.0
1787145684.01527,2.6565024232619563,-0.024607902882082918,2.005746142057369,"[ 2.71466889e-06 -3.11213615e-07  0.00000000e+00  0.00000000e+00
  0.00000000e+00 -6.38551670e-08 -3.11213615e-07  3.24218891e-06
  0.00000000e+00  0.00000000e+00  0.00000000e+00 -2.41575709e-08
  0.00000000e+00  0.00000000e+00  0.00000000e+00  0.00000000e+00
  0.00000000e+00  0.00000000e+00  0.00000000e+00  0.00000000e+00
  0.00000000e+00  0.00000000e+00  0.00000000e+00  0.00000000e+00
  0.00000000e+00  0.00000000e+00  0.00000000e+00  0.00000000e+00
  0.00000000e+00  0.00000000e+00 -6.38551670e-08 -2.41575709e-08
  0.00000000e+00  0.00000000e+00  0.00000000e+00  2.86267191e-06]","[[ 3.48917018e-05  1.42016836e-03]
 [-7.71321174e-05  6.24097048e-04]]",[],0.0,0.0
1787145684.0809886,2.6565024232619563,-0.024607902882082918,2.005746142057369,"[ 2.71466889e-06 -3.11213615e-07  0.00000000e+00  0.00000000e+00
  0.00000000e+00 -6.38551670e-08 -3.11213615e-07  3.24218891e-06
  0.00000000e+00  0.00000000e+00  0.00000000e+00 -2.41575709e-08
  0.00000000e+00  0.00000000e+00  0.00000000e+00  0.00000000e+00
  0.00000000e+00  0.00000000e+00  0.00000000e+00  0.00000000e+00
  0.00000000e+00  0.00000000e+00  0.00000000e+00  0.00000000e+00
  0.00000000e+00  0.00000000e+00  0.00000000e+00  0.00000000e+00
  0.00000000e+00  0.00000000e+00 -6.38551670e-08 -2.41575709e-08
  0.00000000e+00  0.00000000e+00  0.00000000e+00  2.86267191e-06]","[[ 3.48917018e-05  1.42016836e-03]
 [-7.71321174e-05  6.24097048e-04]]",[],0.0,0.0
1787145684.1278703,2.6565024232619563,-0.024607902882082918,2.005746142057369,"[ 2.71466889e-06 -3.11213615e-07  0.00000000e+00  0.00000000e+00
  0.00000000e+00 -6.38551670e-08 -3.11213615e-07  3.24218891e-06
  0.00000000e+00  0.00000000e+00  0.00000000e+00 -2.41575709e-08
  0.00000000e+00  0.00000000e+00  0.00000000e+00  0.00000000e+00
  0.00000000e+00  0.00000000e+00  0.00000000e+00  0.00000000e+00
  0.00000000e+00  0.00000000e+00  0.00000000e+00  0.00000000e+00
  0.00000000e+00  0.00000000e+00  0.00000000e+00  0.00000000e+00
  0.00000000e+00  0.00000000e+00 -6.38551670e-08 -2.41575709e-08
  0.00000000e+00  0.00000000e+00  0.00000000e+00  2.86267191e-06]","[[ 3.48917018e-05  1.42016836e-03]
 [-7.71321174e-05  6.24097048e-04]]",[],0.0,0.0
1787145684.1648455,2.6565024232619563,-0.024607902882082918,2.005746142057369,"[ 2.71466889e-06 -3.11213615e-07  0.00000000e+00  0.00000000e+00
  0.00000000e+00 -6.38551670e-08 -3.11213615e-07  3.24218891e-06
  0.00000000e+00  0.00000000e+00  0.00000000e+00 -2.41575709e-08
  0.00000000e+00  0.00000000e+00  0.00000000e+00  0.00000000e+00
  0.00000000e+00  0.00000000e+00  0.00000000e+00  0.00000000e+00
  0.00000000e+00  0.00000000e+00  0.00000000e+00  0.00000000e+00
  0.00000000e+00  0.00000000e+00  0.00000000e+00  0.00000000e+00
  0.00000000e+00  0.00000000e+00 -6.38551670e-08 -2.41575709e-08
  0.00000000e+00  0.00000000e+00  0.00000000e+00  2.86267191e-06]","[[ 3.48917018e-05  1.42016836e-03]
 [-7.71321174e-05  6.24097048e-04]]",[],0.0,0.0
1787145684.2333183,2.657337004836604,-0.02544510024810895,2.0088445032524445,"[ 2.59000270e-06 -3.26398788e-07  0.00000000e+00  0.00000000e+00
  0.00000000e+00 -4.47662595e-08 -3.26398788e-07  3.15923368e-06
  0.00000000e+00  0.00000000e+00  0.00000000e+00 -4.30954145e-08
  0.00000000e+00  0.00000000e+00  0.00000000e+00  0.00000000e+00
  0.00000000e+00  0.00000000e+00  0.00000000e+00  0.00000000e+00
  0.00000000e+00  0.00000000e+00  0.00000000e+00  0.00000000e+00
  0.00000000e+00  0.00000000e+00  0.00000000e+00  0.00000000e+00
  0.00000000e+00  0.00000000e+00 -4.47662595e-08 -4.30954145e-08
