time,x,y,yaw,cov_prop
1786901311.928401,4.245333979068532e-21,1.3772859609335097e-58,0.0,"[ 9.99990074e-03 -3.24420221e-35  0.00000000e+00  0.00000000e+00
  0.00000000e+00  7.64180681e-10 -3.24420221e-35  9.99990000e-03
  0.00000000e+00  0.00000000e+00  0.00000000e+00  4.24529153e-23
  0.00000000e+00  0.00000000e+00  0.00000000e+00  0.00000000e+00
  0.00000000e+00  0.00000000e+00  0.00000000e+00  0.00000000e+00
  0.00000000e+00  0.00000000e+00  0.00000000e+00  0.00000000e+00
  0.00000000e+00  0.00000000e+00  0.00000000e+00  0.00000000e+00
  0.00000000e+00  0.00000000e+00  7.64180681e-10  4.24529153e-23
  0.00000000e+00  0.00000000e+00  0.00000000e+00  9.99991552e-03]"
1786901311.9738705,1.645913288507292e-21,-3.1800958313870276e-53,0.0,"[9.99970261e-03 6.79583147e-30 0.00000000e+00 0.00000000e+00
 0.00000000e+00 2.68040886e-09 6.79583147e-30 9.99970001e-03
 0.00000000e+00 0.00000000e+00 0.00000000e+00 1.64587772e-23
 0.00000000e+00 0.00000000e+00 0.00000000e+00 0.00000000e+00
 0.00000000e+00 0.00000000e+00 0.00000000e+00 0.00000000e+00
 0.00000000e+00 0.00000000e+00 0.00000000e+00 0.00000000e+00
 0.00000000e+00 0.00000000e+00 0.00000000e+00 0.00000000e+00
 0.00000000e+00 0.00000000e+00 2.68040886e-09 1.64587772e-23
 0.00000000e+00 0.00000000e+00 0.00000000e+00 9.99975445e-03]"
1786901312.0321984,-2.4384565898947086e-21,-6.413767964968465e-53,0.0,"[ 9.99950342e-03 -5.97471621e-30  0.00000000e+00  0.00000000e+00
  0.00000000e+00  3.49628070e-09 -5.97471621e-30  9.99950002e-03
  0.00000000e+00  0.00000000e+00  0.00000000e+00 -2.43834681e-23
  0.00000000e+00  0.00000000e+00  0.00000000e+00  0.00000000e+00
  0.00000000e+00  0.00000000e+00  0.00000000e+00  0.00000000e+00
  0.00000000e+00  0.00000000e+00  0.00000000e+00  0.00000000e+00
  0.00000000e+00  0.00000000e+00  0.00000000e+00  0.00000000e+00
  0.00000000e+00  0.00000000e+00  3.49628070e-09 -2.43834681e-23
  0.00000000e+00  0.00000000e+00  0.00000000e+00  9.99957104e-03]"
1786901312.07267,-3.583627522879317e-21,-9.98960274974392e-53,0.0,"[ 9.99940403e-03 -9.97833379e-30  0.00000000e+00  0.00000000e+00
  0.00000000e+00  4.10705887e-09 -9.97833379e-30  9.99940004e-03
  0.00000000e+00  0.00000000e+00  0.00000000e+00 -3.58343278e-23
  0.00000000e+00  0.00000000e+00  0.00000000e+00  0.00000000e+00
  0.00000000e+00  0.00000000e+00  0.00000000e+00  0.00000000e+00
  0.00000000e+00  0.00000000e+00  0.00000000e+00  0.00000000e+00
  0.00000000e+00  0.00000000e+00  0.00000000e+00  0.00000000e+00
  0.00000000e+00  0.00000000e+00  4.10705887e-09 -3.58343278e-23
  0.00000000e+00  0.00000000e+00  0.00000000e+00  9.99948345e-03]"
1786901312.1249394,-6.618031800416247e-21,-2.4840725644841377e-52,0.0,"[ 9.99930468e-03 -2.24403187e-29  0.00000000e+00  0.00000000e+00
  0.00000000e+00  4.76155538e-09 -2.24403187e-29  9.99930005e-03
  0.00000000e+00  0.00000000e+00  0.00000000e+00 -6.61761415e-23
  0.00000000e+00  0.00000000e+00  0.00000000e+00  0.00000000e+00
  0.00000000e+00  0.00000000e+00  0.00000000e+00  0.00000000e+00
  0.00000000e+00  0.00000000e+00  0.00000000e+00  0.00000000e+00
  0.00000000e+00  0.00000000e+00  0.00000000e+00  0.00000000e+00
  0.00000000e+00  0.00000000e+00  4.76155538e-09 -6.61761415e-23
  0.00000000e+00  0.00000000e+00  0.00000000e+00  9.99939676e-03]"
1786901312.1756203,-1.419186483825191e-20,-1.367060298110565e-51,0.0,"[ 9.99910533e-03 -5.94352997e-29  0.00000000e+00  0.00000000e+00
  0.00000000e+00  5.39724896e-09 -5.94352997e-29  9.99910008e-03
  0.00000000e+00  0.00000000e+00  0.00000000e+00 -1.41907084e-22
  0.00000000e+00  0.00000000e+00  0.00000000e+00  0.00000000e+00
  0.00000000e+00  0.00000000e+00  0.00000000e+00  0.00000000e+00
  0.00000000e+00  0.00000000e+00  0.00000000e+00  0.00000000e+00
  0.00000000e+00  0.00000000e+00  0.00000000e+00  0.00000000e+00
  0.00000000e+00  0.00000000e+00  5.39724896e-09 -1.41907084e-22
  0.00000000e+00  0.00000000e+00  0.00000000e+00  9.99920970e-03]"
1786901312.2234235,-2.062818915353546e-20,-4.902529021679592e-51,0.0,"[ 9.99890612e-03 -9.49639274e-29  0.00000000e+00  0.00000000e+00
  0.00000000e+00  6.17903927e-09 -9.49639274e-29  9.99890012e-03
  0.00000000e+00  0.00000000e+00  0.00000000e+00 -2.06261132e-22
  0.00000000e+00  0.00000000e+00  0.00000000e+00  0.00000000e+00
  0.00000000e+00  0.00000000e+00  0.00000000e+00  0.00000000e+00
  0.00000000e+00  0.00000000e+00  0.00000000e+00  0.00000000e+00
  0.00000000e+00  0.00000000e+00  0.00000000e+00  0.00000000e+00
  0.00000000e+00  0.00000000e+00  6.17903927e-09 -2.06261132e-22
  0.00000000e+00  0.00000000e+00  0.00000000e+00  9.99902562e-03]"
1786901312.288323,-2.062818915353546e-20,-4.902529021679592e-51,0.0,"[ 9.99890612e-03 -9.49639274e-29  0.00000000e+00  0.00000000e+00
  0.00000000e+00  6.17903927e-09 -9.49639274e-29  9.99890012e-03
  0.00000000e+00  0.00000000e+00  0.00000000e+00 -2.06261132e-22
  0.00000000e+00  0.00000000e+00  0.00000000e+00  0.00000000e+00
  0.00000000e+00  0.00000000e+00  0.00000000e+00  0.00000000e+00
  0.00000000e+00  0.00000000e+00  0.00000000e+00  0.00000000e+00
  0.00000000e+00  0.00000000e+00  0.00000000e+00  0.00000000e+00
  0.00000000e+00  0.00000000e+00  6.17903927e-09 -2.06261132e-22
  0.00000000e+00  0.00000000e+00  0.00000000e+00  9.99902562e-03]"
1786901312.3249226,-2.0838373425302935e-20,-8.91322469938457e-51,0.0,"[ 9.99870776e-03 -9.62670949e-29  0.00000000e+00  0.00000000e+00
  0.00000000e+00  7.81526419e-09 -9.62670949e-29  9.99870017e-03
  0.00000000e+00  0.00000000e+00  0.00000000e+00 -2.08358603e-22
  0.00000000e+00  0.00000000e+00  0.00000000e+00  0.00000000e+00
  0.00000000e+00  0.00000000e+00  0.00000000e+00  0.00000000e+00
  0.00000000e+00  0.00000000e+00  0.00000000e+00  0.00000000e+00
  0.00000000e+00  0.00000000e+00  0.00000000e+00  0.00000000e+00
  0.00000000e+00  0.00000000e+00  7.81526419e-09 -2.08358603e-22
  0.00000000e+00  0.00000000e+00  0.00000000e+00  9.99885890e-03]"
1786901312.374161,-1.414942521036042e-20,-1.0909555597151483e-50,0.0,"[ 9.99850901e-03 -4.15493338e-29  0.00000000e+00  0.00000000e+00
  0.00000000e+00  9.03882880e-09 -4.15493338e-29  9.99850022e-03
  0.00000000e+00  0.00000000e+00  0.00000000e+00 -1.41473875e-22
  0.00000000e+00  0.00000000e+00  0.00000000e+00  0.00000000e+00
  0.00000000e+00  0.00000000e+00  0.00000000e+00  0.00000000e+00
  0.00000000e+00  0.00000000e+00  0.00000000e+00  0.00000000e+00
  0.00000000e+00  0.00000000e+00  0.00000000e+00  0.00000000e+00
  0.00000000e+00  0.00000000e+00  9.03882880e-09 -1.41473875e-22
  0.00000000e+00  0.00000000e+00  0.00000000e+00  9.99868381e-03]"
1786901312.433104,-1.058682048093164e-20,-1.1008406162599382e-50,0.0,"[ 9.99840930e-03 -9.34734411e-30  0.00000000e+00  0.00000000e+00
  0.00000000e+00  9.30798533e-09 -9.34734411e-30  9.99840026e-03
  0.00000000e+00  0.00000000e+00  0.00000000e+00 -1.05851458e-22
  0.00000000e+00  0.00000000e+00  0.00000000e+00  0.00000000e+00
  0.00000000e+00  0.00000000e+00  0.00000000e+00  0.00000000e+00
  0.00000000e+00  0.00000000e+00  0.00000000e+00  0.00000000e+00
  0.00000000e+00  0.00000000e+00  0.00000000e+00  0.00000000e+00
  0.00000000e+00  0.00000000e+00  9.30798533e-09 -1.05851458e-22
  0.00000000e+00  0.00000000e+00  0.00000000e+00  9.99858931e-03]"
1786901312.4756637,-1.5844823297902598e-20,-1.179885009347516e-50,0.0,"[ 9.99821012e-03 -6.11133005e-29  0.00000000e+00  0.00000000e+00
  0.00000000e+00  1.00869322e-08 -6.11133005e-29  9.99820032e-03
  0.00000000e+00  0.00000000e+00  0.00000000e+00 -1.58420959e-22
  0.00000000e+00  0.00000000e+00  0.00000000e+00  0.00000000e+00
  0.00000000e+00  0.00000000e+00  0.00000000e+00  0.00000000e+00
  0.00000000e+00  0.00000000e+00  0.00000000e+00  0.00000000e+00
  0.00000000e+00  0.00000000e+00  0.00000000e+00  0.00000000e+00
  0.00000000e+00  0.00000000e+00  1.00869322e-08 -1.58420959e-22
  0.00000000e+00  0.00000000e+00  0.00000000e+00  9.99840519e-03]"
1786901312.5246775,-1.6785625037756296e-20,-1.298383648958182e-50,0.0,"[ 9.99811051e-03 -7.06016315e-29  0.00000000e+00  0.00000000e+00
  0.00000000e+00  1.04473732e-08 -7.06016315e-29  9.99810036e-03
  0.00000000e+00  0.00000000e+00  0.00000000e+00 -1.67825798e-22
  0.00000000e+00  0.00000000e+00  0.00000000e+00  0.00000000e+00
  0.00000000e+00  0.00000000e+00  0.00000000e+00  0.00000000e+00
  0.00000000e+00  0.00000000e+00  0.00000000e+00  0.00000000e+00
  0.00000000e+00  0.00000000e+00  0.00000000e+00  0.00000000e+00
  0.00000000e+00  0.00000000e+00  1.04473732e-08 -1.67825798e-22
  0.00000000e+00  0.00000000e+00  0.00000000e+00  9.99831255e-03]"
1786901312.58286,-2.2124568524046518e-20,-1.5779766693088702e-50,0.0,"[ 9.99801163e-03 -1.26376795e-28  0.00000000e+00  0.00000000e+00
  0.00000000e+00  1.15532425e-08 -1.26376795e-28  9.99800040e-03
  0.00000000e+00  0.00000000e+00  0.00000000e+00 -2.21204012e-22
  0.00000000e+00  0.00000000e+00  0.00000000e+00  0.00000000e+00
  0.00000000e+00  0.00000000e+00  0.00000000e+00  0.00000000e+00
  0.00000000e+00  0.00000000e+00  0.00000000e+00  0.00000000e+00
  0.00000000e+00  0.00000000e+00  0.00000000e+00  0.00000000e+00
  0.00000000e+00  0.00000000e+00  1.15532425e-08 -2.21204012e-22
  0.00000000e+00  0.00000000e+00  0.00000000e+00  9.99823505e-03]"
1786901312.626284,-2.444081392783953e-20,-2.1584359124401843e-50,0.0,"[ 9.99781250e-03 -1.56263009e-28  0.00000000e+00  0.00000000e+00
  0.00000000e+00  1.23671986e-08 -1.56263009e-28  9.99780048e-03
  0.00000000e+00  0.00000000e+00  0.00000000e+00 -2.44357555e-22
  0.00000000e+00  0.00000000e+00  0.00000000e+00  0.00000000e+00
  0.00000000e+00  0.00000000e+00  0.00000000e+00  0.00000000e+00
  0.00000000e+00  0.00000000e+00  0.00000000e+00  0.00000000e+00
  0.00000000e+00  0.00000000e+00  0.00000000e+00  0.00000000e+00
  0.00000000e+00  0.00000000e+00  1.23671986e-08 -2.44357555e-22
  0.00000000e+00  0.00000000e+00  0.00000000e+00  9.99805167e-03]"
1786901312.6753943,-3.9725360513339906e-20,-4.319103004159304e-50,0.0,"[ 9.99761320e-03 -3.46370248e-28  0.00000000e+00  0.00000000e+00
  0.00000000e+00  1.29899799e-08 -3.46370248e-28  9.99760058e-03
  0.00000000e+00  0.00000000e+00  0.00000000e+00 -3.97165322e-22
  0.00000000e+00  0.00000000e+00  0.00000000e+00  0.00000000e+00
  0.00000000e+00  0.00000000e+00  0.00000000e+00  0.00000000e+00
  0.00000000e+00  0.00000000e+00  0.00000000e+00  0.00000000e+00
  0.00000000e+00  0.00000000e+00  0.00000000e+00  0.00000000e+00
  0.00000000e+00  0.00000000e+00  1.29899799e-08 -3.97165322e-22
  0.00000000e+00  0.00000000e+00  0.00000000e+00  9.99786441e-03]"
1786901312.727356,-3.874812567860703e-20,-5.611978043585028e-50,0.0,"[ 9.99751374e-03 -3.33669118e-28  0.00000000e+00  0.00000000e+00
  0.00000000e+00  1.34976979e-08 -3.33669118e-28  9.99750062e-03
  0.00000000e+00  0.00000000e+00  0.00000000e+00 -3.87391188e-22
  0.00000000e+00  0.00000000e+00  0.00000000e+00  0.00000000e+00
  0.00000000e+00  0.00000000e+00  0.00000000e+00  0.00000000e+00
  0.00000000e+00  0.00000000e+00  0.00000000e+00  0.00000000e+00
  0.00000000e+00  0.00000000e+00  0.00000000e+00  0.00000000e+00
  0.00000000e+00  0.00000000e+00  1.34976979e-08 -3.87391188e-22
  0.00000000e+00  0.00000000e+00  0.00000000e+00  9.99777477e-03]"
1786901312.7808604,-4.521048871479689e-20,-8.982485574164356e-50,0.0,"[ 9.99731464e-03 -4.23613611e-28  0.00000000e+00  0.00000000e+00
  0.00000000e+00  1.43220957e-08 -4.23613611e-28  9.99730073e-03
  0.00000000e+00  0.00000000e+00  0.00000000e+00 -4.51991456e-22
  0.00000000e+00  0.00000000e+00  0.00000000e+00  0.00000000e+00
  0.00000000e+00  0.00000000e+00  0.00000000e+00  0.00000000e+00
  0.00000000e+00  0.00000000e+00  0.00000000e+00  0.00000000e+00
  0.00000000e+00  0.00000000e+00  0.00000000e+00  0.00000000e+00
  0.00000000e+00  0.00000000e+00  1.43220957e-08 -4.51991456e-22
  0.00000000e+00  0.00000000e+00  0.00000000e+00  9.99759162e-03]"
1786901312.8227026,-4.8957343031290385e-20,-1.131899000624744e-49,0.0,"[ 9.99721508e-03 -4.77266683e-28  0.00000000e+00  0.00000000e+00
  0.00000000e+00  1.47112981e-08 -4.77266683e-28  9.99720078e-03
  0.00000000e+00  0.00000000e+00  0.00000000e+00 -4.89446082e-22
  0.00000000e+00  0.00000000e+00  0.00000000e+00  0.00000000e+00
  0.00000000e+00  0.00000000e+00  0.00000000e+00  0.00000000e+00
  0.00000000e+00  0.00000000e+00  0.00000000e+00  0.00000000e+00
  0.00000000e+00  0.00000000e+00  0.00000000e+00  0.00000000e+00
  0.00000000e+00  0.00000000e+00  1.47112981e-08 -4.89446082e-22
  0.00000000e+00  0.00000000e+00  0.00000000e+00  9.99749958e-03]"
1786901312.8795154,-5.499750391937726e-20,-1.742360934369498e-49,0.0,"[ 9.99701601e-03 -5.66504249e-28  0.00000000e+00  0.00000000e+00
  0.00000000e+00  1.55547764e-08 -5.66504249e-28  9.99700090e-03
  0.00000000e+00  0.00000000e+00  0.00000000e+00 -5.49821602e-22
  0.00000000e+00  0.00000000e+00  0.00000000e+00  0.00000000e+00
  0.00000000e+00  0.00000000e+00  0.00000000e+00  0.00000000e+00
  0.00000000e+00  0.00000000e+00  0.00000000e+00  0.00000000e+00
  0.00000000e+00  0.00000000e+00  0.00000000e+00  0.00000000e+00
  0.00000000e+00  0.00000000e+00  1.55547764e-08 -5.49821602e-22
  0.00000000e+00  0.00000000e+00  0.00000000e+00  9.99731682e-03]"
1786901312.938765,-5.384354128860265e-20,-2.037701662417119e-49,0.0,"[ 9.99691652e-03 -5.48543403e-28  0.00000000e+00  0.00000000e+00
  0.00000000e+00  1.60142829e-08 -5.48543403e-28  9.99690096e-03
  0.00000000e+00  0.00000000e+00  0.00000000e+00 -5.38279691e-22
  0.00000000e+00  0.00000000e+00  0.00000000e+00  0.00000000e+00
  0.00000000e+00  0.00000000e+00  0.00000000e+00  0.00000000e+00
  0.00000000e+00  0.00000000e+00  0.00000000e+00  0.00000000e+00
  0.00000000e+00  0.00000000e+00  0.00000000e+00  0.00000000e+00
  0.00000000e+00  0.00000000e+00  1.60142829e-08 -5.38279691e-22
  0.00000000e+00  0.00000000e+00  0.00000000e+00  9.99722622e-03]"
1786901312.9747057,-5.1481265066741163e-20,-2.5896786177813147e-49,0.0,"[ 9.99671771e-03 -5.08797085e-28  0.00000000e+00  0.00000000e+00
  0.00000000e+00  1.71067028e-08 -5.08797085e-28  9.99670109e-03
  0.00000000e+00  0.00000000e+00  0.00000000e+00 -5.14653153e-22
  0.00000000e+00  0.00000000e+00  0.00000000e+00  0.00000000e+00
  0.00000000e+00  0.00000000e+00  0.00000000e+00  0.00000000e+00
  0.00000000e+00  0.00000000e+00  0.00000000e+00  0.00000000e+00
  0.00000000e+00  0.00000000e+00  0.00000000e+00  0.00000000e+00
  0.00000000e+00  0.00000000e+00  1.71067028e-08 -5.14653153e-22
  0.00000000e+00  0.00000000e+00  0.00000000e+00  9.99704853e-03]"
1786901313.022879,-4.673470991038625e-20,-2.7894878896880436e-49,0.0,"[ 9.99661812e-03 -4.27590462e-28  0.00000000e+00  0.00000000e+00
  0.00000000e+00  1.74599965e-08 -4.27590462e-28  9.99660116e-03
  0.00000000e+00  0.00000000e+00  0.00000000e+00 -4.67196940e-22
  0.00000000e+00  0.00000000e+00  0.00000000e+00  0.00000000e+00
  0.00000000e+00  0.00000000e+00  0.00000000e+00  0.00000000e+00
  0.00000000e+00  0.00000000e+00  0.00000000e+00  0.00000000e+00
  0.00000000e+00  0.00000000e+00  0.00000000e+00  0.00000000e+00
  0.00000000e+00  0.00000000e+00  1.74599965e-08 -4.67196940e-22
  0.00000000e+00  0.00000000e+00  0.00000000e+00  9.99695578e-03]"
1786901313.0799367,-5.906829720194608e-20,-3.479135527456691e-49,0.0,"[ 9.99641914e-03 -6.44791334e-28  0.00000000e+00  0.00000000e+00
  0.00000000e+00  1.83624176e-08 -6.44791334e-28  9.99640130e-03
  0.00000000e+00  0.00000000e+00  0.00000000e+00 -5.90483499e-22
  0.00000000e+00  0.00000000e+00  0.00000000e+00  0.00000000e+00
  0.00000000e+00  0.00000000e+00  0.00000000e+00  0.00000000e+00
  0.00000000e+00  0.00000000e+00  0.00000000e+00  0.00000000e+00
  0.00000000e+00  0.00000000e+00  0.00000000e+00  0.00000000e+00
  0.00000000e+00  0.00000000e+00  1.83624176e-08 -5.90483499e-22
  0.00000000e+00  0.00000000e+00  0.00000000e+00  9.99677424e-03]"
1786901313.1230268,-6.14097554012889e-20,-3.9014641834028205e-49,0.0,"[ 9.99631959e-03 -6.87772178e-28  0.00000000e+00  0.00000000e+00
  0.00000000e+00  1.87500299e-08 -6.87772178e-28  9.99630137e-03
  0.00000000e+00  0.00000000e+00  0.00000000e+00 -6.13884391e-22
  0.00000000e+00  0.00000000e+00  0.00000000e+00  0.00000000e+00
  0.00000000e+00  0.00000000e+00  0.00000000e+00  0.00000000e+00
  0.00000000e+00  0.00000000e+00  0.00000000e+00  0.00000000e+00
  0.00000000e+00  0.00000000e+00  0.00000000e+00  0.00000000e+00
  0.00000000e+00  0.00000000e+00  1.87500299e-08 -6.13884391e-22
  0.00000000e+00  0.00000000e+00  0.00000000e+00  9.99668219e-03]"
1786901313.181143,-7.640320575045429e-20,-5.235243979546211e-49,0.0,"[ 9.99612060e-03 -9.71905234e-28  0.00000000e+00  0.00000000e+00
  0.00000000e+00  1.96404104e-08 -9.71905234e-28  9.99610152e-03
  0.00000000e+00  0.00000000e+00  0.00000000e+00 -7.63753941e-22
  0.00000000e+00  0.00000000e+00  0.00000000e+00  0.00000000e+00
  0.00000000e+00  0.00000000e+00  0.00000000e+00  0.00000000e+00
  0.00000000e+00  0.00000000e+00  0.00000000e+00  0.00000000e+00
  0.00000000e+00  0.00000000e+00  0.00000000e+00  0.00000000e+00
  0.00000000e+00  0.00000000e+00  1.96404104e-08 -7.63753941e-22
  0.00000000e+00  0.00000000e+00  0.00000000e+00  9.99650043e-03]"
1786901313.2227907,-7.965262770253518e-20,-6.060165465846417e-49,0.0,"[ 9.99602112e-03 -1.03570415e-27  0.00000000e+00  0.00000000e+00
  0.00000000e+00  2.00887179e-08 -1.03570415e-27  9.99600160e-03
  0.00000000e+00  0.00000000e+00  0.00000000e+00 -7.96228830e-22
  0.00000000e+00  0.00000000e+00  0.00000000e+00  0.00000000e+00
  0.00000000e+00  0.00000000e+00  0.00000000e+00  0.00000000e+00
  0.00000000e+00  0.00000000e+00  0.00000000e+00  0.00000000e+00
  0.00000000e+00  0.00000000e+00  0.00000000e+00  0.00000000e+00
  0.00000000e+00  0.00000000e+00  2.00887179e-08 -7.96228830e-22
  0.00000000e+00  0.00000000e+00  0.00000000e+00  9.99640961e-03]"
1786901313.274222,-8.03161013734645e-20,-7.89983699097333e-49,0.0,"[ 9.99582208e-03 -1.04670104e-27  0.00000000e+00  0.00000000e+00
  0.00000000e+00  2.09059047e-08 -1.04670104e-27  9.99580176e-03
  0.00000000e+00  0.00000000e+00  0.00000000e+00 -8.02845087e-22
  0.00000000e+00  0.00000000e+00  0.00000000e+00  0.00000000e+00
  0.00000000e+00  0.00000000e+00  0.00000000e+00  0.00000000e+00
  0.00000000e+00  0.00000000e+00  0.00000000e+00  0.00000000e+00
  0.00000000e+00  0.00000000e+00  0.00000000e+00  0.00000000e+00
  0.00000000e+00  0.00000000e+00  2.09059047e-08 -8.02845087e-22
  0.00000000e+00  0.00000000e+00  0.00000000e+00  9.99622637e-03]"
1786901313.322986,-8.116560863246199e-20,-8.763725171902428e-49,0.0,"[ 9.99572256e-03 -1.06443914e-27  0.00000000e+00  0.00000000e+00
  0.00000000e+00  2.13179625e-08 -1.06443914e-27  9.99570185e-03
  0.00000000e+00  0.00000000e+00  0.00000000e+00 -8.11328844e-22
  0.00000000e+00  0.00000000e+00  0.00000000e+00  0.00000000e+00
  0.00000000e+00  0.00000000e+00  0.00000000e+00  0.00000000e+00
  0.00000000e+00  0.00000000e+00  0.00000000e+00  0.00000000e+00
  0.00000000e+00  0.00000000e+00  0.00000000e+00  0.00000000e+00
  0.00000000e+00  0.00000000e+00  2.13179625e-08 -8.11328844e-22
  0.00000000e+00  0.00000000e+00  0.00000000e+00  9.99613483e-03]"
1786901313.3732092,-8.300054081302731e-20,-1.0568430609206013e-48,0.0,"[ 9.99552367e-03 -1.10393210e-27  0.00000000e+00  0.00000000e+00
  0.00000000e+00  2.22811226e-08 -1.10393210e-27  9.99550202e-03
  0.00000000e+00  0.00000000e+00  0.00000000e+00 -8.29654495e-22
  0.00000000e+00  0.00000000e+00  0.00000000e+00  0.00000000e+00
  0.00000000e+00  0.00000000e+00  0.00000000e+00  0.00000000e+00
  0.00000000e+00  0.00000000e+00  0.00000000e+00  0.00000000e+00
  0.00000000e+00  0.00000000e+00  0.00000000e+00  0.00000000e+00
  0.00000000e+00  0.00000000e+00  2.22811226e-08 -8.29654495e-22
  0.00000000e+00  0.00000000e+00  0.00000000e+00  9.99595456e-03]"
1786901313.4233317,-8.402721963175723e-20,-1.1515140230433207e-48,0.0,"[ 9.99542435e-03 -1.12678463e-27  0.00000000e+00  0.00000000e+00
  0.00000000e+00  2.28829795e-08 -1.12678463e-27  9.99540212e-03
  0.00000000e+00  0.00000000e+00  0.00000000e+00 -8.39908735e-22
  0.00000000e+00  0.00000000e+00  0.00000000e+00  0.00000000e+00
  0.00000000e+00  0.00000000e+00  0.00000000e+00  0.00000000e+00
  0.00000000e+00  0.00000000e+00  0.00000000e+00  0.00000000e+00
  0.00000000e+00  0.00000000e+00  0.00000000e+00  0.00000000e+00
  0.00000000e+00  0.00000000e+00  2.28829795e-08 -8.39908735e-22
  0.00000000e+00  0.00000000e+00  0.00000000e+00  9.99586688e-03]"
1786901313.4738753,-8.566630943092082e-20,-1.3478602872745868e-48,0.0,"[ 9.99522532e-03 -1.16447424e-27  0.00000000e+00  0.00000000e+00
  0.00000000e+00  2.36905284e-08 -1.16447424e-27  9.99520230e-03
  0.00000000e+00  0.00000000e+00  0.00000000e+00 -8.56275745e-22
  0.00000000e+00  0.00000000e+00  0.00000000e+00  0.00000000e+00
  0.00000000e+00  0.00000000e+00  0.00000000e+00  0.00000000e+00
  0.00000000e+00  0.00000000e+00  0.00000000e+00  0.00000000e+00
  0.00000000e+00  0.00000000e+00  0.00000000e+00  0.00000000e+00
  0.00000000e+00  0.00000000e+00  2.36905284e-08 -8.56275745e-22
  0.00000000e+00  0.00000000e+00  0.00000000e+00  9.99568347e-03]"
1786901313.522925,-8.644455510731879e-20,-1.4501020076727982e-48,0.0,"[ 9.99512575e-03 -1.18288735e-27  0.00000000e+00  0.00000000e+00
  0.00000000e+00  2.40363388e-08 -1.18288735e-27  9.99510240e-03
  0.00000000e+00  0.00000000e+00  0.00000000e+00 -8.64046206e-22
  0.00000000e+00  0.00000000e+00  0.00000000e+00  0.00000000e+00
  0.00000000e+00  0.00000000e+00  0.00000000e+00  0.00000000e+00
  0.00000000e+00  0.00000000e+00  0.00000000e+00  0.00000000e+00
  0.00000000e+00  0.00000000e+00  0.00000000e+00  0.00000000e+00
  0.00000000e+00  0.00000000e+00  2.40363388e-08 -8.64046206e-22
  0.00000000e+00  0.00000000e+00  0.00000000e+00  9.99559059e-03]"
1786901313.5731785,-8.81460532042391e-20,-1.6628000101859168e-48,0.0,"[ 9.99492676e-03 -1.22405886e-27  0.00000000e+00  0.00000000e+00
  0.00000000e+00  2.48676374e-08 -1.22405886e-27  9.99490260e-03
  0.00000000e+00  0.00000000e+00  0.00000000e+00 -8.81036078e-22
  0.00000000e+00  0.00000000e+00  0.00000000e+00  0.00000000e+00
  0.00000000e+00  0.00000000e+00  0.00000000e+00  0.00000000e+00
  0.00000000e+00  0.00000000e+00  0.00000000e+00  0.00000000e+00
  0.00000000e+00  0.00000000e+00  0.00000000e+00  0.00000000e+00
  0.00000000e+00  0.00000000e+00  2.48676374e-08 -8.81036078e-22
  0.00000000e+00  0.00000000e+00  0.00000000e+00  9.99540767e-03]"
1786901313.6237555,-8.896268143999886e-20,-1.7734844323340708e-48,0.0,"[ 9.99482724e-03 -1.24434126e-27  0.00000000e+00  0.00000000e+00
  0.00000000e+00  2.52484072e-08 -1.24434126e-27  9.99480270e-03
  0.00000000e+00  0.00000000e+00  0.00000000e+00 -8.89189722e-22
  0.00000000e+00  0.00000000e+00  0.00000000e+00  0.00000000e+00
  0.00000000e+00  0.00000000e+00  0.00000000e+00  0.00000000e+00
  0.00000000e+00  0.00000000e+00  0.00000000e+00  0.00000000e+00
  0.00000000e+00  0.00000000e+00  0.00000000e+00  0.00000000e+00
  0.00000000e+00  0.00000000e+00  2.52484072e-08 -8.89189722e-22
  0.00000000e+00  0.00000000e+00  0.00000000e+00  9.99531551e-03]"
1786901313.7113435,-8.896268143999886e-20,-1.7734844323340708e-48,0.0,"[ 9.99482724e-03 -1.24434126e-27  0.00000000e+00  0.00000000e+00
  0.00000000e+00  2.52484072e-08 -1.24434126e-27  9.99480270e-03
  0.00000000e+00  0.00000000e+00  0.00000000e+00 -8.89189722e-22
  0.00000000e+00  0.00000000e+00  0.00000000e+00  0.00000000e+00
  0.00000000e+00  0.00000000e+00  0.00000000e+00  0.00000000e+00
  0.00000000e+00  0.00000000e+00  0.00000000e+00  0.00000000e+00
  0.00000000e+00  0.00000000e+00  0.00000000e+00  0.00000000e+00
  0.00000000e+00  0.00000000e+00  2.52484072e-08 -8.89189722e-22
  0.00000000e+00  0.00000000e+00  0.00000000e+00  9.99531551e-03]"
1786901313.7479877,-8.896268143999886e-20,-1.7734844323340708e-48,0.0,"[ 9.99482724e-03 -1.24434126e-27  0.00000000e+00  0.00000000e+00
  0.00000000e+00  2.52484072e-08 -1.24434126e-27  9.99480270e-03
  0.00000000e+00  0.00000000e+00  0.00000000e+00 -8.89189722e-22
  0.00000000e+00  0.00000000e+00  0.00000000e+00  0.00000000e+00
  0.00000000e+00  0.00000000e+00  0.00000000e+00  0.00000000e+00
  0.00000000e+00  0.00000000e+00  0.00000000e+00  0.00000000e+00
  0.00000000e+00  0.00000000e+00  0.00000000e+00  0.00000000e+00
  0.00000000e+00  0.00000000e+00  2.52484072e-08 -8.89189722e-22
  0.00000000e+00  0.00000000e+00  0.00000000e+00  9.99531551e-03]"
1786901313.7745032,-8.896268143999886e-20,-1.7734844323340708e-48,0.0,"[ 9.99482724e-03 -1.24434126e-27  0.00000000e+00  0.00000000e+00
  0.00000000e+00  2.52484072e-08 -1.24434126e-27  9.99480270e-03
  0.00000000e+00  0.00000000e+00  0.00000000e+00 -8.89189722e-22
  0.00000000e+00  0.00000000e+00  0.00000000e+00  0.00000000e+00
  0.00000000e+00  0.00000000e+00  0.00000000e+00  0.00000000e+00
  0.00000000e+00  0.00000000e+00  0.00000000e+00  0.00000000e+00
  0.00000000e+00  0.00000000e+00  0.00000000e+00  0.00000000e+00
  0.00000000e+00  0.00000000e+00  2.52484072e-08 -8.89189722e-22
  0.00000000e+00  0.00000000e+00  0.00000000e+00  9.99531551e-03]"
1786901313.8261747,-8.896268143999886e-20,-1.7734844323340708e-48,0.0,"[ 9.99482724e-03 -1.24434126e-27  0.00000000e+00  0.00000000e+00
  0.00000000e+00  2.52484072e-08 -1.24434126e-27  9.99480270e-03
  0.00000000e+00  0.00000000e+00  0.00000000e+00 -8.89189722e-22
  0.00000000e+00  0.00000000e+00  0.00000000e+00  0.00000000e+00
  0.00000000e+00  0.00000000e+00  0.00000000e+00  0.00000000e+00
  0.00000000e+00  0.00000000e+00  0.00000000e+00  0.00000000e+00
  0.00000000e+00  0.00000000e+00  0.00000000e+00  0.00000000e+00
  0.00000000e+00  0.00000000e+00  2.52484072e-08 -8.89189722e-22
  0.00000000e+00  0.00000000e+00  0.00000000e+00  9.99531551e-03]"
1786901313.8872375,-8.896268143999886e-20,-1.7734844323340708e-48,0.0,"[ 9.99482724e-03 -1.24434126e-27  0.00000000e+00  0.00000000e+00
  0.00000000e+00  2.52484072e-08 -1.24434126e-27  9.99480270e-03
  0.00000000e+00  0.00000000e+00  0.00000000e+00 -8.89189722e-22
  0.00000000e+00  0.00000000e+00  0.00000000e+00  0.00000000e+00
  0.00000000e+00  0.00000000e+00  0.00000000e+00  0.00000000e+00
  0.00000000e+00  0.00000000e+00  0.00000000e+00  0.00000000e+00
  0.00000000e+00  0.00000000e+00  0.00000000e+00  0.00000000e+00
  0.00000000e+00  0.00000000e+00  2.52484072e-08 -8.89189722e-22
  0.00000000e+00  0.00000000e+00  0.00000000e+00  9.99531551e-03]"
1786901313.9228394,-8.896268143999886e-20,-1.7734844323340708e-48,0.0,"[ 9.99482724e-03 -1.24434126e-27  0.00000000e+00  0.00000000e+00
  0.00000000e+00  2.52484072e-08 -1.24434126e-27  9.99480270e-03
  0.00000000e+00  0.00000000e+00  0.00000000e+00 -8.89189722e-22
  0.00000000e+00  0.00000000e+00  0.00000000e+00  0.00000000e+00
  0.00000000e+00  0.00000000e+00  0.00000000e+00  0.00000000e+00
  0.00000000e+00  0.00000000e+00  0.00000000e+00  0.00000000e+00
  0.00000000e+00  0.00000000e+00  0.00000000e+00  0.00000000e+00
  0.00000000e+00  0.00000000e+00  2.52484072e-08 -8.89189722e-22
  0.00000000e+00  0.00000000e+00  0.00000000e+00  9.99531551e-03]"
1786901313.9769754,-8.896268143999886e-20,-1.7734844323340708e-48,0.0,"[ 9.99482724e-03 -1.24434126e-27  0.00000000e+00  0.00000000e+00
  0.00000000e+00  2.52484072e-08 -1.24434126e-27  9.99480270e-03
  0.00000000e+00  0.00000000e+00  0.00000000e+00 -8.89189722e-22
  0.00000000e+00  0.00000000e+00  0.00000000e+00  0.00000000e+00
  0.00000000e+00  0.00000000e+00  0.00000000e+00  0.00000000e+00
  0.00000000e+00  0.00000000e+00  0.00000000e+00  0.00000000e+00
  0.00000000e+00  0.00000000e+00  0.00000000e+00  0.00000000e+00
  0.00000000e+00  0.00000000e+00  2.52484072e-08 -8.89189722e-22
  0.00000000e+00  0.00000000e+00  0.00000000e+00  9.99531551e-03]"
1786901314.0247738,-8.896268143999886e-20,-1.7734844323340708e-48,0.0,"[ 9.99482724e-03 -1.24434126e-27  0.00000000e+00  0.00000000e+00
  0.00000000e+00  2.52484072e-08 -1.24434126e-27  9.99480270e-03
  0.00000000e+00  0.00000000e+00  0.00000000e+00 -8.89189722e-22
  0.00000000e+00  0.00000000e+00  0.00000000e+00  0.00000000e+00
  0.00000000e+00  0.00000000e+00  0.00000000e+00  0.00000000e+00
  0.00000000e+00  0.00000000e+00  0.00000000e+00  0.00000000e+00
  0.00000000e+00  0.00000000e+00  0.00000000e+00  0.00000000e+00
  0.00000000e+00  0.00000000e+00  2.52484072e-08 -8.89189722e-22
  0.00000000e+00  0.00000000e+00  0.00000000e+00  9.99531551e-03]"
1786901314.0810978,-6.822047522446403e-20,-3.470225856918579e-48,0.0,"[ 9.99343532e-03 -5.64274755e-28  0.00000000e+00  0.00000000e+00
  0.00000000e+00  3.18701176e-08 -5.64274755e-28  9.99340435e-03
  0.00000000e+00  0.00000000e+00  0.00000000e+00 -6.81766256e-22
  0.00000000e+00  0.00000000e+00  0.00000000e+00  0.00000000e+00
  0.00000000e+00  0.00000000e+00  0.00000000e+00  0.00000000e+00
  0.00000000e+00  0.00000000e+00  0.00000000e+00  0.00000000e+00
  0.00000000e+00  0.00000000e+00  0.00000000e+00  0.00000000e+00
  0.00000000e+00  0.00000000e+00  3.18701176e-08 -6.81766256e-22
  0.00000000e+00  0.00000000e+00  0.00000000e+00  9.99405165e-03]"
1786901314.15326,-6.947498571557109e-20,-3.553771842594261e-48,0.0,"[ 9.99323692e-03 -6.04405152e-28  0.00000000e+00  0.00000000e+00
  0.00000000e+00  3.32464127e-08 -6.04405152e-28  9.99320462e-03
  0.00000000e+00  0.00000000e+00  0.00000000e+00 -6.94290025e-22
  0.00000000e+00  0.00000000e+00  0.00000000e+00  0.00000000e+00
  0.00000000e+00  0.00000000e+00  0.00000000e+00  0.00000000e+00
  0.00000000e+00  0.00000000e+00  0.00000000e+00  0.00000000e+00
  0.00000000e+00  0.00000000e+00  0.00000000e+00  0.00000000e+00
  0.00000000e+00  0.00000000e+00  3.32464127e-08 -6.94290025e-22
  0.00000000e+00  0.00000000e+00  0.00000000e+00  9.99387987e-03]"
1786901314.1944804,-6.947498571557109e-20,-3.553771842594261e-48,0.0,"[ 9.99323692e-03 -6.04405152e-28  0.00000000e+00  0.00000000e+00
  0.00000000e+00  3.32464127e-08 -6.04405152e-28  9.99320462e-03
  0.00000000e+00  0.00000000e+00  0.00000000e+00 -6.94290025e-22
  0.00000000e+00  0.00000000e+00  0.00000000e+00  0.00000000e+00
  0.00000000e+00  0.00000000e+00  0.00000000e+00  0.00000000e+00
  0.00000000e+00  0.00000000e+00  0.00000000e+00  0.00000000e+00
  0.00000000e+00  0.00000000e+00  0.00000000e+00  0.00000000e+00
  0.00000000e+00  0.00000000e+00  3.32464127e-08 -6.94290025e-22
  0.00000000e+00  0.00000000e+00  0.00000000e+00  9.99387987e-03]"
1786901314.275941,-8.122803158707237e-20,-3.715547351359983e-48,0.0,"[ 9.99303883e-03 -9.95024736e-28  0.00000000e+00  0.00000000e+00
  0.00000000e+00  3.49231233e-08 -9.95024736e-28  9.99300490e-03
  0.00000000e+00  0.00000000e+00  0.00000000e+00 -8.11732328e-22
  0.00000000e+00  0.00000000e+00  0.00000000e+00  0.00000000e+00
  0.00000000e+00  0.00000000e+00  0.00000000e+00  0.00000000e+00
  0.00000000e+00  0.00000000e+00  0.00000000e+00  0.00000000e+00
  0.00000000e+00  0.00000000e+00  0.00000000e+00  0.00000000e+00
  0.00000000e+00  0.00000000e+00  3.49231233e-08 -8.11732328e-22
  0.00000000e+00  0.00000000e+00  0.00000000e+00  9.99371420e-03]"
1786901314.328282,-9.831918116448935e-20,-4.036255883284052e-48,0.0,"[ 9.99284136e-03 -1.58860239e-27  0.00000000e+00  0.00000000e+00
  0.00000000e+00  3.72355653e-08 -1.58860239e-27  9.99280518e-03
  0.00000000e+00  0.00000000e+00  0.00000000e+00 -9.82516689e-22
  0.00000000e+00  0.00000000e+00  0.00000000e+00  0.00000000e+00
  0.00000000e+00  0.00000000e+00  0.00000000e+00  0.00000000e+00
  0.00000000e+00  0.00000000e+00  0.00000000e+00  0.00000000e+00
  0.00000000e+00  0.00000000e+00  0.00000000e+00  0.00000000e+00
  0.00000000e+00  0.00000000e+00  3.72355653e-08 -9.82516689e-22
  0.00000000e+00  0.00000000e+00  0.00000000e+00  9.99356145e-03]"
1786901314.390481,-1.0155189236555375e-19,-4.402767380737728e-48,0.0,"[ 9.99264252e-03 -1.70680793e-27  0.00000000e+00  0.00000000e+00
  0.00000000e+00  3.81256381e-08 -1.70680793e-27  9.99260547e-03
  0.00000000e+00  0.00000000e+00  0.00000000e+00 -1.01480266e-21
  0.00000000e+00  0.00000000e+00  0.00000000e+00  0.00000000e+00
  0.00000000e+00  0.00000000e+00  0.00000000e+00  0.00000000e+00
  0.00000000e+00  0.00000000e+00  0.00000000e+00  0.00000000e+00
  0.00000000e+00  0.00000000e+00  0.00000000e+00  0.00000000e+00
  0.00000000e+00  0.00000000e+00  3.81256381e-08 -1.01480266e-21
  0.00000000e+00  0.00000000e+00  0.00000000e+00  9.99337982e-03]"
1786901314.4228268,-1.1094381696313788e-19,-4.631806809119679e-48,0.0,"[ 9.99254324e-03 -2.06483912e-27  0.00000000e+00  0.00000000e+00
  0.00000000e+00  3.87151642e-08 -2.06483912e-27  9.99250562e-03
  0.00000000e+00  0.00000000e+00  0.00000000e+00 -1.10864865e-21
  0.00000000e+00  0.00000000e+00  0.00000000e+00  0.00000000e+00
  0.00000000e+00  0.00000000e+00  0.00000000e+00  0.00000000e+00
  0.00000000e+00  0.00000000e+00  0.00000000e+00  0.00000000e+00
  0.00000000e+00  0.00000000e+00  0.00000000e+00  0.00000000e+00
  0.00000000e+00  0.00000000e+00  3.87151642e-08 -1.10864865e-21
  0.00000000e+00  0.00000000e+00  0.00000000e+00  9.99329194e-03]"
1786901314.4738793,-1.0849740367118896e-19,-5.070353491342063e-48,0.0,"[ 9.99234425e-03 -1.96917507e-27  0.00000000e+00  0.00000000e+00
  0.00000000e+00  3.94481313e-08 -1.96917507e-27  9.99230592e-03
  0.00000000e+00  0.00000000e+00  0.00000000e+00 -1.08417925e-21
  0.00000000e+00  0.00000000e+00  0.00000000e+00  0.00000000e+00
  0.00000000e+00  0.00000000e+00  0.00000000e+00  0.00000000e+00
  0.00000000e+00  0.00000000e+00  0.00000000e+00  0.00000000e+00
  0.00000000e+00  0.00000000e+00  0.00000000e+00  0.00000000e+00
  0.00000000e+00  0.00000000e+00  3.94481313e-08 -1.08417925e-21
  0.00000000e+00  0.00000000e+00  0.00000000e+00  9.99310713e-03]"
1786901314.53004,-1.037942104037279e-19,-5.255432736811857e-48,0.0,"[ 9.99224482e-03 -1.78360680e-27  0.00000000e+00  0.00000000e+00
  0.00000000e+00  3.98730934e-08 -1.78360680e-27  9.99220608e-03
  0.00000000e+00  0.00000000e+00  0.00000000e+00 -1.03716937e-21
  0.00000000e+00  0.00000000e+00  0.00000000e+00  0.00000000e+00
  0.00000000e+00  0.00000000e+00  0.00000000e+00  0.00000000e+00
  0.00000000e+00  0.00000000e+00  0.00000000e+00  0.00000000e+00
  0.00000000e+00  0.00000000e+00  0.00000000e+00  0.00000000e+00
  0.00000000e+00  0.00000000e+00  3.98730934e-08 -1.03716937e-21
  0.00000000e+00  0.00000000e+00  0.00000000e+00  9.99301592e-03]"
1786901314.5728483,-9.486547364144926e-20,-5.561086473931878e-48,0.0,"[ 9.99204599e-03 -1.42484007e-27  0.00000000e+00  0.00000000e+00
  0.00000000e+00  4.07480236e-08 -1.42484007e-27  9.99200639e-03
  0.00000000e+00  0.00000000e+00  0.00000000e+00 -9.47925360e-22
  0.00000000e+00  0.00000000e+00  0.00000000e+00  0.00000000e+00
  0.00000000e+00  0.00000000e+00  0.00000000e+00  0.00000000e+00
  0.00000000e+00  0.00000000e+00  0.00000000e+00  0.00000000e+00
  0.00000000e+00  0.00000000e+00  0.00000000e+00  0.00000000e+00
  0.00000000e+00  0.00000000e+00  4.07480236e-08 -9.47925360e-22
  0.00000000e+00  0.00000000e+00  0.00000000e+00  9.99283400e-03]"
1786901314.626961,-9.36067093007555e-20,-5.68960288570282e-48,0.0,"[ 9.99194657e-03 -1.37352006e-27  0.00000000e+00  0.00000000e+00
  0.00000000e+00  4.11779590e-08 -1.37352006e-27  9.99190656e-03
  0.00000000e+00  0.00000000e+00  0.00000000e+00 -9.35337390e-22
  0.00000000e+00  0.00000000e+00  0.00000000e+00  0.00000000e+00
  0.00000000e+00  0.00000000e+00  0.00000000e+00  0.00000000e+00
  0.00000000e+00  0.00000000e+00  0.00000000e+00  0.00000000e+00
  0.00000000e+00  0.00000000e+00  0.00000000e+00  0.00000000e+00
  0.00000000e+00  0.00000000e+00  4.11779590e-08 -9.35337390e-22
  0.00000000e+00  0.00000000e+00  0.00000000e+00  9.99274290e-03]"
1786901314.6728613,-9.27242060611803e-20,-5.951647198843583e-48,0.0,"[ 9.99174781e-03 -1.33561795e-27  0.00000000e+00  0.00000000e+00
  0.00000000e+00  4.21249377e-08 -1.33561795e-27  9.99170688e-03
  0.00000000e+00  0.00000000e+00  0.00000000e+00 -9.26500216e-22
  0.00000000e+00  0.00000000e+00  0.00000000e+00  0.00000000e+00
  0.00000000e+00  0.00000000e+00  0.00000000e+00  0.00000000e+00
  0.00000000e+00  0.00000000e+00  0.00000000e+00  0.00000000e+00
  0.00000000e+00  0.00000000e+00  0.00000000e+00  0.00000000e+00
  0.00000000e+00  0.00000000e+00  4.21249377e-08 -9.26500216e-22
  0.00000000e+00  0.00000000e+00  0.00000000e+00  9.99256246e-03]"
1786901314.7230196,-9.48467066906425e-20,-6.086745580393607e-48,0.0,"[ 9.99164829e-03 -1.42499937e-27  0.00000000e+00  0.00000000e+00
  0.00000000e+00  4.24429807e-08 -1.42499937e-27  9.99160705e-03
  0.00000000e+00  0.00000000e+00  0.00000000e+00 -9.47699967e-22
  0.00000000e+00  0.00000000e+00  0.00000000e+00  0.00000000e+00
  0.00000000e+00  0.00000000e+00  0.00000000e+00  0.00000000e+00
  0.00000000e+00  0.00000000e+00  0.00000000e+00  0.00000000e+00
  0.00000000e+00  0.00000000e+00  0.00000000e+00  0.00000000e+00
  0.00000000e+00  0.00000000e+00  4.24429807e-08 -9.47699967e-22
  0.00000000e+00  0.00000000e+00  0.00000000e+00  9.99246909e-03]"
1786901314.773993,-1.0155688477145551e-19,-6.42735675838312e-48,0.0,"[ 9.99144946e-03 -1.71020562e-27  0.00000000e+00  0.00000000e+00
  0.00000000e+00  4.32984960e-08 -1.71020562e-27  9.99140739e-03
  0.00000000e+00  0.00000000e+00  0.00000000e+00 -1.01473095e-21
  0.00000000e+00  0.00000000e+00  0.00000000e+00  0.00000000e+00
  0.00000000e+00  0.00000000e+00  0.00000000e+00  0.00000000e+00
  0.00000000e+00  0.00000000e+00  0.00000000e+00  0.00000000e+00
  0.00000000e+00  0.00000000e+00  0.00000000e+00  0.00000000e+00
  0.00000000e+00  0.00000000e+00  4.32984960e-08 -1.01473095e-21
  0.00000000e+00  0.00000000e+00  0.00000000e+00  9.99228680e-03]"
1786901314.835516,-1.0426843614793466e-19,-6.617852802734604e-48,0.0,"[ 9.99135008e-03 -1.82757472e-27  0.00000000e+00  0.00000000e+00
  0.00000000e+00  4.37541569e-08 -1.82757472e-27  9.99130756e-03
  0.00000000e+00  0.00000000e+00  0.00000000e+00 -1.04181513e-21
  0.00000000e+00  0.00000000e+00  0.00000000e+00  0.00000000e+00
  0.00000000e+00  0.00000000e+00  0.00000000e+00  0.00000000e+00
  0.00000000e+00  0.00000000e+00  0.00000000e+00  0.00000000e+00
  0.00000000e+00  0.00000000e+00  0.00000000e+00  0.00000000e+00
  0.00000000e+00  0.00000000e+00  4.37541569e-08 -1.04181513e-21
  0.00000000e+00  0.00000000e+00  0.00000000e+00  9.99219623e-03]"
1786901314.885355,-9.92563436898311e-20,-6.940461749897394e-48,0.0,"[ 9.99115144e-03 -1.60770650e-27  0.00000000e+00  0.00000000e+00
  0.00000000e+00  4.47967667e-08 -1.60770650e-27  9.99110791e-03
  0.00000000e+00  0.00000000e+00  0.00000000e+00 -9.91713496e-22
  0.00000000e+00  0.00000000e+00  0.00000000e+00  0.00000000e+00
  0.00000000e+00  0.00000000e+00  0.00000000e+00  0.00000000e+00
  0.00000000e+00  0.00000000e+00  0.00000000e+00  0.00000000e+00
  0.00000000e+00  0.00000000e+00  0.00000000e+00  0.00000000e+00
  0.00000000e+00  0.00000000e+00  4.47967667e-08 -9.91713496e-22
  0.00000000e+00  0.00000000e+00  0.00000000e+00  9.99201776e-03]"
1786901314.9247878,-9.217020083509942e-20,-7.059315653684983e-48,0.0,"[ 9.99105196e-03 -1.29024410e-27  0.00000000e+00  0.00000000e+00
  0.00000000e+00  4.51523779e-08 -1.29024410e-27  9.99100809e-03
  0.00000000e+00  0.00000000e+00  0.00000000e+00 -9.20899430e-22
  0.00000000e+00  0.00000000e+00  0.00000000e+00  0.00000000e+00
  0.00000000e+00  0.00000000e+00  0.00000000e+00  0.00000000e+00
  0.00000000e+00  0.00000000e+00  0.00000000e+00  0.00000000e+00
  0.00000000e+00  0.00000000e+00  0.00000000e+00  0.00000000e+00
  0.00000000e+00  0.00000000e+00  4.51523779e-08 -9.20899430e-22
  0.00000000e+00  0.00000000e+00  0.00000000e+00  9.99192516e-03]"
1786901314.9755611,-9.736060045186733e-20,-7.366055135134515e-48,0.0,"[ 9.99085320e-03 -1.52383200e-27  0.00000000e+00  0.00000000e+00
  0.00000000e+00  4.60501160e-08 -1.52383200e-27  9.99080846e-03
  0.00000000e+00  0.00000000e+00  0.00000000e+00 -9.72742062e-22
  0.00000000e+00  0.00000000e+00  0.00000000e+00  0.00000000e+00
  0.00000000e+00  0.00000000e+00  0.00000000e+00  0.00000000e+00
  0.00000000e+00  0.00000000e+00  0.00000000e+00  0.00000000e+00
  0.00000000e+00  0.00000000e+00  0.00000000e+00  0.00000000e+00
  0.00000000e+00  0.00000000e+00  4.60501160e-08 -9.72742062e-22
  0.00000000e+00  0.00000000e+00  0.00000000e+00  9.99174375e-03]"
1786901315.0224893,-9.515625978203116e-20,-7.501322972645439e-48,0.0,"[ 9.99075388e-03 -1.42229295e-27  0.00000000e+00  0.00000000e+00
  0.00000000e+00  4.65554668e-08 -1.42229295e-27  9.99070864e-03
  0.00000000e+00  0.00000000e+00  0.00000000e+00 -9.50707356e-22
  0.00000000e+00  0.00000000e+00  0.00000000e+00  0.00000000e+00
  0.00000000e+00  0.00000000e+00  0.00000000e+00  0.00000000e+00
  0.00000000e+00  0.00000000e+00  0.00000000e+00  0.00000000e+00
  0.00000000e+00  0.00000000e+00  0.00000000e+00  0.00000000e+00
  0.00000000e+00  0.00000000e+00  4.65554668e-08 -9.50707356e-22
  0.00000000e+00  0.00000000e+00  0.00000000e+00  9.99165420e-03]"
1786901315.0726898,-9.550645023537833e-20,-7.770595410770559e-48,0.0,"[ 9.99055497e-03 -1.43884201e-27  0.00000000e+00  0.00000000e+00
  0.00000000e+00  4.72971593e-08 -1.43884201e-27  9.99050902e-03
  0.00000000e+00  0.00000000e+00  0.00000000e+00 -9.54187278e-22
  0.00000000e+00  0.00000000e+00  0.00000000e+00  0.00000000e+00
  0.00000000e+00  0.00000000e+00  0.00000000e+00  0.00000000e+00
  0.00000000e+00  0.00000000e+00  0.00000000e+00  0.00000000e+00
  0.00000000e+00  0.00000000e+00  0.00000000e+00  0.00000000e+00
  0.00000000e+00  0.00000000e+00  4.72971593e-08 -9.54187278e-22
  0.00000000e+00  0.00000000e+00  0.00000000e+00  9.99146964e-03]"
1786901315.1240094,-9.375398922666165e-20,-7.897642713331074e-48,0.0,"[ 9.99045561e-03 -1.35592805e-27  0.00000000e+00  0.00000000e+00
  0.00000000e+00  4.77602130e-08 -1.35592805e-27  9.99040921e-03
  0.00000000e+00  0.00000000e+00  0.00000000e+00 -9.36668259e-22
  0.00000000e+00  0.00000000e+00  0.00000000e+00  0.00000000e+00
  0.00000000e+00  0.00000000e+00  0.00000000e+00  0.00000000e+00
  0.00000000e+00  0.00000000e+00  0.00000000e+00  0.00000000e+00
  0.00000000e+00  0.00000000e+00  0.00000000e+00  0.00000000e+00
  0.00000000e+00  0.00000000e+00  4.77602130e-08 -9.36668259e-22
  0.00000000e+00  0.00000000e+00  0.00000000e+00  9.99137924e-03]"
1786901315.172916,-1.0062671476045667e-19,-8.202620393998368e-48,0.0,"[ 9.99025679e-03 -1.68616842e-27  0.00000000e+00  0.00000000e+00
  0.00000000e+00  4.85704376e-08 -1.68616842e-27  9.99020959e-03
  0.00000000e+00  0.00000000e+00  0.00000000e+00 -1.00531622e-21
  0.00000000e+00  0.00000000e+00  0.00000000e+00  0.00000000e+00
  0.00000000e+00  0.00000000e+00  0.00000000e+00  0.00000000e+00
  0.00000000e+00  0.00000000e+00  0.00000000e+00  0.00000000e+00
  0.00000000e+00  0.00000000e+00  0.00000000e+00  0.00000000e+00
  0.00000000e+00  0.00000000e+00  4.85704376e-08 -1.00531622e-21
  0.00000000e+00  0.00000000e+00  0.00000000e+00  9.99119608e-03]"
1786901315.2224712,-9.53091610484696e-20,-8.338628277154316e-48,0.0,"[ 9.99015751e-03 -1.42786346e-27  0.00000000e+00  0.00000000e+00
  0.00000000e+00  4.91103681e-08 -1.42786346e-27  9.99010979e-03
  0.00000000e+00  0.00000000e+00  0.00000000e+00 -9.52177986e-22
  0.00000000e+00  0.00000000e+00  0.00000000e+00  0.00000000e+00
  0.00000000e+00  0.00000000e+00  0.00000000e+00  0.00000000e+00
  0.00000000e+00  0.00000000e+00  0.00000000e+00  0.00000000e+00
  0.00000000e+00  0.00000000e+00  0.00000000e+00  0.00000000e+00
  0.00000000e+00  0.00000000e+00  4.91103681e-08 -9.52177986e-22
  0.00000000e+00  0.00000000e+00  0.00000000e+00  9.99110724e-03]"
1786901315.273006,-9.85758807733797e-20,-8.650334965066461e-48,0.0,"[ 9.98995864e-03 -1.58829954e-27  0.00000000e+00  0.00000000e+00
  0.00000000e+00  4.98600554e-08 -1.58829954e-27  9.98991019e-03
  0.00000000e+00  0.00000000e+00  0.00000000e+00 -9.84796457e-22
  0.00000000e+00  0.00000000e+00  0.00000000e+00  0.00000000e+00
  0.00000000e+00  0.00000000e+00  0.00000000e+00  0.00000000e+00
  0.00000000e+00  0.00000000e+00  0.00000000e+00  0.00000000e+00
  0.00000000e+00  0.00000000e+00  0.00000000e+00  0.00000000e+00
  0.00000000e+00  0.00000000e+00  4.98600554e-08 -9.84796457e-22
  0.00000000e+00  0.00000000e+00  0.00000000e+00  9.99092287e-03]"
1786901315.3264074,-9.751759912535438e-20,-8.79998854421471e-48,0.0,"[ 9.98985941e-03 -1.53550231e-27  0.00000000e+00  0.00000000e+00
  0.00000000e+00  5.04425188e-08 -1.53550231e-27  9.98981039e-03
  0.00000000e+00  0.00000000e+00  0.00000000e+00 -9.74213514e-22
  0.00000000e+00  0.00000000e+00  0.00000000e+00  0.00000000e+00
  0.00000000e+00  0.00000000e+00  0.00000000e+00  0.00000000e+00
  0.00000000e+00  0.00000000e+00  0.00000000e+00  0.00000000e+00
  0.00000000e+00  0.00000000e+00  0.00000000e+00  0.00000000e+00
  0.00000000e+00  0.00000000e+00  5.04425188e-08 -9.74213514e-22
  0.00000000e+00  0.00000000e+00  0.00000000e+00  9.99083490e-03]"
1786901315.3756013,-1.0211349193154266e-19,-9.150796453855271e-48,0.0,"[ 9.98966061e-03 -1.76775009e-27  0.00000000e+00  0.00000000e+00
  0.00000000e+00  5.12618394e-08 -1.76775009e-27  9.98961080e-03
  0.00000000e+00  0.00000000e+00  0.00000000e+00 -1.02010995e-21
  0.00000000e+00  0.00000000e+00  0.00000000e+00  0.00000000e+00
  0.00000000e+00  0.00000000e+00  0.00000000e+00  0.00000000e+00
  0.00000000e+00  0.00000000e+00  0.00000000e+00  0.00000000e+00
  0.00000000e+00  0.00000000e+00  0.00000000e+00  0.00000000e+00
  0.00000000e+00  0.00000000e+00  5.12618394e-08 -1.02010995e-21
  0.00000000e+00  0.00000000e+00  0.00000000e+00  9.99065195e-03]"
1786901315.4252496,-1.0341875030579535e-19,-9.340441342344891e-48,0.0,"[ 9.98956129e-03 -1.83462288e-27  0.00000000e+00  0.00000000e+00
  0.00000000e+00  5.17464557e-08 -1.83462288e-27  9.98951101e-03
  0.00000000e+00  0.00000000e+00  0.00000000e+00 -1.03314001e-21
  0.00000000e+00  0.00000000e+00  0.00000000e+00  0.00000000e+00
  0.00000000e+00  0.00000000e+00  0.00000000e+00  0.00000000e+00
  0.00000000e+00  0.00000000e+00  0.00000000e+00  0.00000000e+00
  0.00000000e+00  0.00000000e+00  0.00000000e+00  0.00000000e+00
  0.00000000e+00  0.00000000e+00  5.17464557e-08 -1.03314001e-21
  0.00000000e+00  0.00000000e+00  0.00000000e+00  9.99056201e-03]"
1786901315.4742053,-9.902435450260834e-20,-9.686007226871044e-48,0.0,"[ 9.98936242e-03 -1.60602379e-27  0.00000000e+00  0.00000000e+00
  0.00000000e+00  5.24708133e-08 -1.60602379e-27  9.98931144e-03
  0.00000000e+00  0.00000000e+00  0.00000000e+00 -9.89217738e-22
  0.00000000e+00  0.00000000e+00  0.00000000e+00  0.00000000e+00
  0.00000000e+00  0.00000000e+00  0.00000000e+00  0.00000000e+00
  0.00000000e+00  0.00000000e+00  0.00000000e+00  0.00000000e+00
  0.00000000e+00  0.00000000e+00  0.00000000e+00  0.00000000e+00
  0.00000000e+00  0.00000000e+00  5.24708133e-08 -9.89217738e-22
  0.00000000e+00  0.00000000e+00  0.00000000e+00  9.99037714e-03]"
1786901315.5222447,-1.0040255381350255e-19,-1.0008596063957778e-47,0.0,"[ 9.98916367e-03 -1.67921110e-27  0.00000000e+00  0.00000000e+00
  0.00000000e+00  5.33184312e-08 -1.67921110e-27  9.98911187e-03
  0.00000000e+00  0.00000000e+00  0.00000000e+00 -1.00296645e-21
  0.00000000e+00  0.00000000e+00  0.00000000e+00  0.00000000e+00
  0.00000000e+00  0.00000000e+00  0.00000000e+00  0.00000000e+00
  0.00000000e+00  0.00000000e+00  0.00000000e+00  0.00000000e+00
  0.00000000e+00  0.00000000e+00  0.00000000e+00  0.00000000e+00
  0.00000000e+00  0.00000000e+00  5.33184312e-08 -1.00296645e-21
  0.00000000e+00  0.00000000e+00  0.00000000e+00  9.99019479e-03]"
1786901315.5881298,-1.0274108544443598e-19,-1.0193828619799701e-47,0.0,"[ 9.98906434e-03 -1.80386142e-27  0.00000000e+00  0.00000000e+00
  0.00000000e+00  5.37775282e-08 -1.80386142e-27  9.98901209e-03
  0.00000000e+00  0.00000000e+00  0.00000000e+00 -1.02631858e-21
  0.00000000e+00  0.00000000e+00  0.00000000e+00  0.00000000e+00
  0.00000000e+00  0.00000000e+00  0.00000000e+00  0.00000000e+00
  0.00000000e+00  0.00000000e+00  0.00000000e+00  0.00000000e+00
  0.00000000e+00  0.00000000e+00  0.00000000e+00  0.00000000e+00
  0.00000000e+00  0.00000000e+00  5.37775282e-08 -1.02631858e-21
  0.00000000e+00  0.00000000e+00  0.00000000e+00  9.99010433e-03]"
1786901315.6252682,-1.0422600229310537e-19,-1.039005703573001e-47,0.0,"[ 9.98896497e-03 -1.88367850e-27  0.00000000e+00  0.00000000e+00
  0.00000000e+00  5.42011435e-08 -1.88367850e-27  9.98891231e-03
  0.00000000e+00  0.00000000e+00  0.00000000e+00 -1.04114266e-21
  0.00000000e+00  0.00000000e+00  0.00000000e+00  0.00000000e+00
  0.00000000e+00  0.00000000e+00  0.00000000e+00  0.00000000e+00
  0.00000000e+00  0.00000000e+00  0.00000000e+00  0.00000000e+00
  0.00000000e+00  0.00000000e+00  0.00000000e+00  0.00000000e+00
  0.00000000e+00  0.00000000e+00  5.42011435e-08 -1.04114266e-21
  0.00000000e+00  0.00000000e+00  0.00000000e+00  9.99001316e-03]"
1786901315.686134,-1.0760624864032212e-19,-1.0805065124003393e-47,0.0,"[ 9.98876623e-03 -2.06847368e-27  0.00000000e+00  0.00000000e+00
  0.00000000e+00  5.50395676e-08 -2.06847368e-27  9.98871275e-03
  0.00000000e+00  0.00000000e+00  0.00000000e+00 -1.07488992e-21
  0.00000000e+00  0.00000000e+00  0.00000000e+00  0.00000000e+00
  0.00000000e+00  0.00000000e+00  0.00000000e+00  0.00000000e+00
  0.00000000e+00  0.00000000e+00  0.00000000e+00  0.00000000e+00
  0.00000000e+00  0.00000000e+00  0.00000000e+00  0.00000000e+00
  0.00000000e+00  0.00000000e+00  5.50395676e-08 -1.07488992e-21
  0.00000000e+00  0.00000000e+00  0.00000000e+00  9.98983063e-03]"
1786901315.727093,-1.1101174619039397e-19,-1.1055387237245884e-47,0.0,"[ 9.98866688e-03 -2.25586524e-27  0.00000000e+00  0.00000000e+00
  0.00000000e+00  5.54709013e-08 -2.25586524e-27  9.98861298e-03
  0.00000000e+00  0.00000000e+00  0.00000000e+00 -1.10889919e-21
  0.00000000e+00  0.00000000e+00  0.00000000e+00  0.00000000e+00
  0.00000000e+00  0.00000000e+00  0.00000000e+00  0.00000000e+00
  0.00000000e+00  0.00000000e+00  0.00000000e+00  0.00000000e+00
  0.00000000e+00  0.00000000e+00  0.00000000e+00  0.00000000e+00
  0.00000000e+00  0.00000000e+00  5.54709013e-08 -1.10889919e-21
  0.00000000e+00  0.00000000e+00  0.00000000e+00  9.98973962e-03]"
1786901315.7765386,-1.1007533466078068e-19,-1.1297871692159333e-47,0.0,"[ 9.98856797e-03 -2.20387664e-27  0.00000000e+00  0.00000000e+00
  0.00000000e+00  5.63598991e-08 -2.20387664e-27  9.98851321e-03
  0.00000000e+00  0.00000000e+00  0.00000000e+00 -1.09953370e-21
  0.00000000e+00  0.00000000e+00  0.00000000e+00  0.00000000e+00
  0.00000000e+00  0.00000000e+00  0.00000000e+00  0.00000000e+00
  0.00000000e+00  0.00000000e+00  0.00000000e+00  0.00000000e+00
  0.00000000e+00  0.00000000e+00  0.00000000e+00  0.00000000e+00
  0.00000000e+00  0.00000000e+00  5.63598991e-08 -1.09953370e-21
  0.00000000e+00  0.00000000e+00  0.00000000e+00  9.98965790e-03]"
1786901315.826507,-1.0690181287148227e-19,-1.1734176565618432e-47,0.0,"[ 9.98836938e-03 -2.02487962e-27  0.00000000e+00  0.00000000e+00
  0.00000000e+00  5.73341029e-08 -2.02487962e-27  9.98831367e-03
  0.00000000e+00  0.00000000e+00  0.00000000e+00 -1.06780997e-21
  0.00000000e+00  0.00000000e+00  0.00000000e+00  0.00000000e+00
  0.00000000e+00  0.00000000e+00  0.00000000e+00  0.00000000e+00
  0.00000000e+00  0.00000000e+00  0.00000000e+00  0.00000000e+00
  0.00000000e+00  0.00000000e+00  0.00000000e+00  0.00000000e+00
  0.00000000e+00  0.00000000e+00  5.73341029e-08 -1.06780997e-21
  0.00000000e+00  0.00000000e+00  0.00000000e+00  9.98947815e-03]"
1786901315.8790987,-1.02456982732333e-19,-1.2118649391389812e-47,0.0,"[ 9.98817041e-03 -1.76945183e-27  0.00000000e+00  0.00000000e+00
  0.00000000e+00  5.79028905e-08 -1.76945183e-27  9.98811414e-03
  0.00000000e+00  0.00000000e+00  0.00000000e+00 -1.02338798e-21
  0.00000000e+00  0.00000000e+00  0.00000000e+00  0.00000000e+00
  0.00000000e+00  0.00000000e+00  0.00000000e+00  0.00000000e+00
  0.00000000e+00  0.00000000e+00  0.00000000e+00  0.00000000e+00
  0.00000000e+00  0.00000000e+00  0.00000000e+00  0.00000000e+00
  0.00000000e+00  0.00000000e+00  5.79028905e-08 -1.02338798e-21
  0.00000000e+00  0.00000000e+00  0.00000000e+00  9.98929018e-03]"
1786901315.9388857,-1.0082690424830345e-19,-1.228741828182471e-47,0.0,"[ 9.98807119e-03 -1.67503154e-27  0.00000000e+00  0.00000000e+00
  0.00000000e+00  5.84686370e-08 -1.67503154e-27  9.98801438e-03
  0.00000000e+00  0.00000000e+00  0.00000000e+00 -1.00709459e-21
  0.00000000e+00  0.00000000e+00  0.00000000e+00  0.00000000e+00
  0.00000000e+00  0.00000000e+00  0.00000000e+00  0.00000000e+00
  0.00000000e+00  0.00000000e+00  0.00000000e+00  0.00000000e+00
  0.00000000e+00  0.00000000e+00  0.00000000e+00  0.00000000e+00
  0.00000000e+00  0.00000000e+00  5.84686370e-08 -1.00709459e-21
  0.00000000e+00  0.00000000e+00  0.00000000e+00  9.98920191e-03]"
1786901315.9760587,-1.0457152973006047e-19,-1.2675946781231528e-47,0.0,"[ 9.98787258e-03 -1.89468321e-27  0.00000000e+00  0.00000000e+00
  0.00000000e+00  5.94016642e-08 -1.89468321e-27  9.98781487e-03
  0.00000000e+00  0.00000000e+00  0.00000000e+00 -1.04447956e-21
  0.00000000e+00  0.00000000e+00  0.00000000e+00  0.00000000e+00
  0.00000000e+00  0.00000000e+00  0.00000000e+00  0.00000000e+00
  0.00000000e+00  0.00000000e+00  0.00000000e+00  0.00000000e+00
  0.00000000e+00  0.00000000e+00  0.00000000e+00  0.00000000e+00
  0.00000000e+00  0.00000000e+00  5.94016642e-08 -1.04447956e-21
  0.00000000e+00  0.00000000e+00  0.00000000e+00  9.98902134e-03]"
1786901316.0245836,-1.0705698664513189e-19,-1.289446294483176e-47,0.0,"[ 9.98777323e-03 -2.04228225e-27  0.00000000e+00  0.00000000e+00
  0.00000000e+00  5.98119146e-08 -2.04228225e-27  9.98771511e-03
  0.00000000e+00  0.00000000e+00  0.00000000e+00 -1.06929617e-21
  0.00000000e+00  0.00000000e+00  0.00000000e+00  0.00000000e+00
  0.00000000e+00  0.00000000e+00  0.00000000e+00  0.00000000e+00
  0.00000000e+00  0.00000000e+00  0.00000000e+00  0.00000000e+00
  0.00000000e+00  0.00000000e+00  0.00000000e+00  0.00000000e+00
  0.00000000e+00  0.00000000e+00  5.98119146e-08 -1.06929617e-21
  0.00000000e+00  0.00000000e+00  0.00000000e+00  9.98892992e-03]"
1786901316.0733125,-1.1072468800800883e-19,-1.340153482736022e-47,0.0,"[ 9.98757468e-03 -2.26121336e-27  0.00000000e+00  0.00000000e+00
  0.00000000e+00  6.08005596e-08 -2.26121336e-27  9.98751561e-03
  0.00000000e+00  0.00000000e+00  0.00000000e+00 -1.10591048e-21
  0.00000000e+00  0.00000000e+00  0.00000000e+00  0.00000000e+00
  0.00000000e+00  0.00000000e+00  0.00000000e+00  0.00000000e+00
  0.00000000e+00  0.00000000e+00  0.00000000e+00  0.00000000e+00
  0.00000000e+00  0.00000000e+00  0.00000000e+00  0.00000000e+00
  0.00000000e+00  0.00000000e+00  6.08005596e-08 -1.10591048e-21
  0.00000000e+00  0.00000000e+00  0.00000000e+00  9.98875049e-03]"
1786901316.127052,-1.1437225085344219e-19,-1.3685382940623378e-47,0.0,"[ 9.98747523e-03 -2.48293726e-27  0.00000000e+00  0.00000000e+00
  0.00000000e+00  6.11092859e-08 -2.48293726e-27  9.98741586e-03
  0.00000000e+00  0.00000000e+00  0.00000000e+00 -1.14233366e-21
  0.00000000e+00  0.00000000e+00  0.00000000e+00  0.00000000e+00
  0.00000000e+00  0.00000000e+00  0.00000000e+00  0.00000000e+00
  0.00000000e+00  0.00000000e+00  0.00000000e+00  0.00000000e+00
  0.00000000e+00  0.00000000e+00  0.00000000e+00  0.00000000e+00
  0.00000000e+00  0.00000000e+00  6.11092859e-08 -1.14233366e-21
  0.00000000e+00  0.00000000e+00  0.00000000e+00  9.98865701e-03]"
1786901316.1731145,-1.231593069866285e-19,-1.438795657370554e-47,0.0,"[ 9.98727663e-03 -3.02226365e-27  0.00000000e+00  0.00000000e+00
  0.00000000e+00  6.20239385e-08 -3.02226365e-27  9.98721636e-03
  0.00000000e+00  0.00000000e+00  0.00000000e+00 -1.23008003e-21
  0.00000000e+00  0.00000000e+00  0.00000000e+00  0.00000000e+00
  0.00000000e+00  0.00000000e+00  0.00000000e+00  0.00000000e+00
  0.00000000e+00  0.00000000e+00  0.00000000e+00  0.00000000e+00
  0.00000000e+00  0.00000000e+00  0.00000000e+00  0.00000000e+00
  0.00000000e+00  0.00000000e+00  6.20239385e-08 -1.23008003e-21
  0.00000000e+00  0.00000000e+00  0.00000000e+00  9.98847610e-03]"
1786901316.2258396,-1.2326429479582225e-19,-1.4761148946480747e-47,0.0,"[ 9.98717732e-03 -3.02871435e-27  0.00000000e+00  0.00000000e+00
  0.00000000e+00  6.24734765e-08 -3.02871435e-27  9.98711662e-03
  0.00000000e+00  0.00000000e+00  0.00000000e+00 -1.23111641e-21
  0.00000000e+00  0.00000000e+00  0.00000000e+00  0.00000000e+00
  0.00000000e+00  0.00000000e+00  0.00000000e+00  0.00000000e+00
  0.00000000e+00  0.00000000e+00  0.00000000e+00  0.00000000e+00
  0.00000000e+00  0.00000000e+00  0.00000000e+00  0.00000000e+00
  0.00000000e+00  0.00000000e+00  6.24734765e-08 -1.23111641e-21
  0.00000000e+00  0.00000000e+00  0.00000000e+00  9.98838548e-03]"
1786901316.2736232,-1.2974684655278377e-19,-1.5590574077482763e-47,0.0,"[ 9.98697867e-03 -3.43577040e-27  0.00000000e+00  0.00000000e+00
  0.00000000e+00  6.33303412e-08 -3.43577040e-27  9.98691714e-03
  0.00000000e+00  0.00000000e+00  0.00000000e+00 -1.29584079e-21
  0.00000000e+00  0.00000000e+00  0.00000000e+00  0.00000000e+00
  0.00000000e+00  0.00000000e+00  0.00000000e+00  0.00000000e+00
  0.00000000e+00  0.00000000e+00  0.00000000e+00  0.00000000e+00
  0.00000000e+00  0.00000000e+00  0.00000000e+00  0.00000000e+00
  0.00000000e+00  0.00000000e+00  6.33303412e-08 -1.29584079e-21
  0.00000000e+00  0.00000000e+00  0.00000000e+00  9.98820341e-03]"
1786901316.3270836,-1.2828151084088334e-19,-1.601925527614338e-47,0.0,"[ 9.98687944e-03 -3.34290276e-27  0.00000000e+00  0.00000000e+00
  0.00000000e+00  6.38461230e-08 -3.34290276e-27  9.98681740e-03
  0.00000000e+00  0.00000000e+00  0.00000000e+00 -1.28119192e-21
  0.00000000e+00  0.00000000e+00  0.00000000e+00  0.00000000e+00
  0.00000000e+00  0.00000000e+00  0.00000000e+00  0.00000000e+00
  0.00000000e+00  0.00000000e+00  0.00000000e+00  0.00000000e+00
  0.00000000e+00  0.00000000e+00  0.00000000e+00  0.00000000e+00
  0.00000000e+00  0.00000000e+00  6.38461230e-08 -1.28119192e-21
  0.00000000e+00  0.00000000e+00  0.00000000e+00  9.98811414e-03]"
1786901316.3731308,-1.3028857353308117e-19,-1.692539479098718e-47,0.0,"[ 9.98668069e-03 -3.47082512e-27  0.00000000e+00  0.00000000e+00
  0.00000000e+00  6.45870581e-08 -3.47082512e-27  9.98661793e-03
  0.00000000e+00  0.00000000e+00  0.00000000e+00 -1.30121270e-21
  0.00000000e+00  0.00000000e+00  0.00000000e+00  0.00000000e+00
  0.00000000e+00  0.00000000e+00  0.00000000e+00  0.00000000e+00
  0.00000000e+00  0.00000000e+00  0.00000000e+00  0.00000000e+00
  0.00000000e+00  0.00000000e+00  0.00000000e+00  0.00000000e+00
  0.00000000e+00  0.00000000e+00  6.45870581e-08 -1.30121270e-21
  0.00000000e+00  0.00000000e+00  0.00000000e+00  9.98792972e-03]"
1786901316.4285293,-1.3113745244868407e-19,-1.738756605487668e-47,0.0,"[ 9.98658138e-03 -3.52558071e-27  0.00000000e+00  0.00000000e+00
  0.00000000e+00  6.50274197e-08 -3.52558071e-27  9.98651820e-03
  0.00000000e+00  0.00000000e+00  0.00000000e+00 -1.30967817e-21
  0.00000000e+00  0.00000000e+00  0.00000000e+00  0.00000000e+00
  0.00000000e+00  0.00000000e+00  0.00000000e+00  0.00000000e+00
  0.00000000e+00  0.00000000e+00  0.00000000e+00  0.00000000e+00
  0.00000000e+00  0.00000000e+00  0.00000000e+00  0.00000000e+00
  0.00000000e+00  0.00000000e+00  6.50274197e-08 -1.30967817e-21
  0.00000000e+00  0.00000000e+00  0.00000000e+00  9.98783894e-03]"
1786901316.4738061,-1.3789882796621882e-19,-1.8430653725185955e-47,0.0,"[ 9.98638302e-03 -3.96669656e-27  0.00000000e+00  0.00000000e+00
  0.00000000e+00  6.61519579e-08 -3.96669656e-27  9.98631874e-03
  0.00000000e+00  0.00000000e+00  0.00000000e+00 -1.37718222e-21
  0.00000000e+00  0.00000000e+00  0.00000000e+00  0.00000000e+00
  0.00000000e+00  0.00000000e+00  0.00000000e+00  0.00000000e+00
  0.00000000e+00  0.00000000e+00  0.00000000e+00  0.00000000e+00
  0.00000000e+00  0.00000000e+00  0.00000000e+00  0.00000000e+00
  0.00000000e+00  0.00000000e+00  6.61519579e-08 -1.37718222e-21
  0.00000000e+00  0.00000000e+00  0.00000000e+00  9.98766232e-03]"
1786901316.5239863,-1.409465162393789e-19,-1.9591421209240884e-47,0.0,"[ 9.98618418e-03 -4.16836212e-27  0.00000000e+00  0.00000000e+00
  0.00000000e+00  6.67843410e-08 -4.16836212e-27  9.98611929e-03
  0.00000000e+00  0.00000000e+00  0.00000000e+00 -1.40759339e-21
  0.00000000e+00  0.00000000e+00  0.00000000e+00  0.00000000e+00
  0.00000000e+00  0.00000000e+00  0.00000000e+00  0.00000000e+00
  0.00000000e+00  0.00000000e+00  0.00000000e+00  0.00000000e+00
  0.00000000e+00  0.00000000e+00  0.00000000e+00  0.00000000e+00
  0.00000000e+00  0.00000000e+00  6.67843410e-08 -1.40759339e-21
  0.00000000e+00  0.00000000e+00  0.00000000e+00  9.98747571e-03]"
1786901316.5751488,-1.378815452063942e-19,-2.013773697862998e-47,0.0,"[ 9.98608489e-03 -3.96359028e-27  0.00000000e+00  0.00000000e+00
  0.00000000e+00  6.72235717e-08 -3.96359028e-27  9.98601957e-03
  0.00000000e+00  0.00000000e+00  0.00000000e+00 -1.37696832e-21
  0.00000000e+00  0.00000000e+00  0.00000000e+00  0.00000000e+00
  0.00000000e+00  0.00000000e+00  0.00000000e+00  0.00000000e+00
  0.00000000e+00  0.00000000e+00  0.00000000e+00  0.00000000e+00
  0.00000000e+00  0.00000000e+00  0.00000000e+00  0.00000000e+00
  0.00000000e+00  0.00000000e+00  6.72235717e-08 -1.37696832e-21
  0.00000000e+00  0.00000000e+00  0.00000000e+00  9.98738491e-03]"
1786901316.623533,-1.294142816599678e-19,-2.1039969283499609e-47,0.0,"[ 9.98588628e-03 -3.39326002e-27  0.00000000e+00  0.00000000e+00
  0.00000000e+00  6.80699673e-08 -3.39326002e-27  9.98582014e-03
  0.00000000e+00  0.00000000e+00  0.00000000e+00 -1.29237666e-21
  0.00000000e+00  0.00000000e+00  0.00000000e+00  0.00000000e+00
  0.00000000e+00  0.00000000e+00  0.00000000e+00  0.00000000e+00
  0.00000000e+00  0.00000000e+00  0.00000000e+00  0.00000000e+00
  0.00000000e+00  0.00000000e+00  0.00000000e+00  0.00000000e+00
  0.00000000e+00  0.00000000e+00  6.80699673e-08 -1.29237666e-21
  0.00000000e+00  0.00000000e+00  0.00000000e+00  9.98720267e-03]"
1786901316.6846294,-1.2398145264957721e-19,-2.1414606786033779e-47,0.0,"[ 9.98578701e-03 -3.02338657e-27  0.00000000e+00  0.00000000e+00
  0.00000000e+00  6.85337775e-08 -3.02338657e-27  9.98572042e-03
  0.00000000e+00  0.00000000e+00  0.00000000e+00 -1.23810553e-21
  0.00000000e+00  0.00000000e+00  0.00000000e+00  0.00000000e+00
  0.00000000e+00  0.00000000e+00  0.00000000e+00  0.00000000e+00
  0.00000000e+00  0.00000000e+00  0.00000000e+00  0.00000000e+00
  0.00000000e+00  0.00000000e+00  0.00000000e+00  0.00000000e+00
  0.00000000e+00  0.00000000e+00  6.85337775e-08 -1.23810553e-21
  0.00000000e+00  0.00000000e+00  0.00000000e+00  9.98711237e-03]"
1786901316.7264855,-1.2091428664570296e-19,-2.1754543375831877e-47,0.0,"[ 9.98568784e-03 -2.81312524e-27  0.00000000e+00  0.00000000e+00
  0.00000000e+00  6.90893053e-08 -2.81312524e-27  9.98562071e-03
  0.00000000e+00  0.00000000e+00  0.00000000e+00 -1.20746135e-21
  0.00000000e+00  0.00000000e+00  0.00000000e+00  0.00000000e+00
  0.00000000e+00  0.00000000e+00  0.00000000e+00  0.00000000e+00
  0.00000000e+00  0.00000000e+00  0.00000000e+00  0.00000000e+00
  0.00000000e+00  0.00000000e+00  0.00000000e+00  0.00000000e+00
  0.00000000e+00  0.00000000e+00  6.90893053e-08 -1.20746135e-21
  0.00000000e+00  0.00000000e+00  0.00000000e+00  9.98702394e-03]"
1786901316.7729647,-1.0641344271764136e-19,-2.2216278743021334e-47,0.0,"[ 9.98548926e-03 -1.80843116e-27  0.00000000e+00  0.00000000e+00
  0.00000000e+00  6.99586714e-08 -1.80843116e-27  9.98542128e-03
  0.00000000e+00  0.00000000e+00  0.00000000e+00 -1.06261979e-21
  0.00000000e+00  0.00000000e+00  0.00000000e+00  0.00000000e+00
  0.00000000e+00  0.00000000e+00  0.00000000e+00  0.00000000e+00
  0.00000000e+00  0.00000000e+00  0.00000000e+00  0.00000000e+00
  0.00000000e+00  0.00000000e+00  0.00000000e+00  0.00000000e+00
  0.00000000e+00  0.00000000e+00  6.99586714e-08 -1.06261979e-21
  0.00000000e+00  0.00000000e+00  0.00000000e+00  9.98684218e-03]"
1786901316.8235364,-1.0616094055194492e-19,-2.240616442566951e-47,0.0,"[ 9.98538983e-03 -1.79073038e-27  0.00000000e+00  0.00000000e+00
  0.00000000e+00  7.02409723e-08 -1.79073038e-27  9.98532158e-03
  0.00000000e+00  0.00000000e+00  0.00000000e+00 -1.06008751e-21
  0.00000000e+00  0.00000000e+00  0.00000000e+00  0.00000000e+00
  0.00000000e+00  0.00000000e+00  0.00000000e+00  0.00000000e+00
  0.00000000e+00  0.00000000e+00  0.00000000e+00  0.00000000e+00
  0.00000000e+00  0.00000000e+00  0.00000000e+00  0.00000000e+00
  0.00000000e+00  0.00000000e+00  7.02409723e-08 -1.06008751e-21
  0.00000000e+00  0.00000000e+00  0.00000000e+00  9.98674820e-03]"
1786901316.8741848,-1.1223134126940486e-19,-2.28609213608918e-47,0.0,"[ 9.98519157e-03 -2.22193104e-27  0.00000000e+00  0.00000000e+00
  0.00000000e+00  7.14320558e-08 -2.22193104e-27  9.98512217e-03
  0.00000000e+00  0.00000000e+00  0.00000000e+00 -1.12068879e-21
  0.00000000e+00  0.00000000e+00  0.00000000e+00  0.00000000e+00
  0.00000000e+00  0.00000000e+00  0.00000000e+00  0.00000000e+00
  0.00000000e+00  0.00000000e+00  0.00000000e+00  0.00000000e+00
  0.00000000e+00  0.00000000e+00  0.00000000e+00  0.00000000e+00
  0.00000000e+00  0.00000000e+00  7.14320558e-08 -1.12068879e-21
  0.00000000e+00  0.00000000e+00  0.00000000e+00  9.98657298e-03]"
1786901316.926885,-1.1323780641952587e-19,-2.312043814853132e-47,0.0,"[ 9.98509227e-03 -2.29377863e-27  0.00000000e+00  0.00000000e+00
  0.00000000e+00  7.18443951e-08 -2.29377863e-27  9.98502247e-03
  0.00000000e+00  0.00000000e+00  0.00000000e+00 -1.13072863e-21
  0.00000000e+00  0.00000000e+00  0.00000000e+00  0.00000000e+00
  0.00000000e+00  0.00000000e+00  0.00000000e+00  0.00000000e+00
  0.00000000e+00  0.00000000e+00  0.00000000e+00  0.00000000e+00
  0.00000000e+00  0.00000000e+00  0.00000000e+00  0.00000000e+00
  0.00000000e+00  0.00000000e+00  7.18443951e-08 -1.13072863e-21
  0.00000000e+00  0.00000000e+00  0.00000000e+00  9.98648166e-03]"
1786901316.9771562,-1.128143147372189e-19,-2.3573770791637523e-47,0.0,"[ 9.98489370e-03 -2.26631743e-27  0.00000000e+00  0.00000000e+00
  0.00000000e+00  7.26938645e-08 -2.26631743e-27  9.98482307e-03
  0.00000000e+00  0.00000000e+00  0.00000000e+00 -1.12647701e-21
  0.00000000e+00  0.00000000e+00  0.00000000e+00  0.00000000e+00
  0.00000000e+00  0.00000000e+00  0.00000000e+00  0.00000000e+00
  0.00000000e+00  0.00000000e+00  0.00000000e+00  0.00000000e+00
  0.00000000e+00  0.00000000e+00  0.00000000e+00  0.00000000e+00
  0.00000000e+00  0.00000000e+00  7.26938645e-08 -1.12647701e-21
  0.00000000e+00  0.00000000e+00  0.00000000e+00  9.98629951e-03]"
1786901317.0340893,-1.1576130210206647e-19,-2.38606836454428e-47,0.0,"[ 9.98479443e-03 -2.48049529e-27  0.00000000e+00  0.00000000e+00
  0.00000000e+00  7.31289714e-08 -2.48049529e-27  9.98472337e-03
  0.00000000e+00  0.00000000e+00  0.00000000e+00 -1.15589496e-21
  0.00000000e+00  0.00000000e+00  0.00000000e+00  0.00000000e+00
  0.00000000e+00  0.00000000e+00  0.00000000e+00  0.00000000e+00
  0.00000000e+00  0.00000000e+00  0.00000000e+00  0.00000000e+00
  0.00000000e+00  0.00000000e+00  0.00000000e+00  0.00000000e+00
  0.00000000e+00  0.00000000e+00  7.31289714e-08 -1.15589496e-21
  0.00000000e+00  0.00000000e+00  0.00000000e+00  9.98620865e-03]"
1786901317.0722718,-1.1139890631730677e-19,-2.4349219477258607e-47,0.0,"[ 9.98459631e-03 -2.16106808e-27  0.00000000e+00  0.00000000e+00
  0.00000000e+00  7.44304192e-08 -2.16106808e-27  9.98452399e-03
  0.00000000e+00  0.00000000e+00  0.00000000e+00 -1.11230895e-21
  0.00000000e+00  0.00000000e+00  0.00000000e+00  0.00000000e+00
  0.00000000e+00  0.00000000e+00  0.00000000e+00  0.00000000e+00
  0.00000000e+00  0.00000000e+00  0.00000000e+00  0.00000000e+00
  0.00000000e+00  0.00000000e+00  0.00000000e+00  0.00000000e+00
  0.00000000e+00  0.00000000e+00  7.44304192e-08 -1.11230895e-21
  0.00000000e+00  0.00000000e+00  0.00000000e+00  9.98603570e-03]"
1786901317.1223867,-1.1047053995389993e-19,-2.487213136586201e-47,0.0,"[ 9.98439747e-03 -2.09111260e-27  0.00000000e+00  0.00000000e+00
  0.00000000e+00  7.49862441e-08 -2.09111260e-27  9.98432461e-03
  0.00000000e+00  0.00000000e+00  0.00000000e+00 -1.10301621e-21
  0.00000000e+00  0.00000000e+00  0.00000000e+00  0.00000000e+00
  0.00000000e+00  0.00000000e+00  0.00000000e+00  0.00000000e+00
  0.00000000e+00  0.00000000e+00  0.00000000e+00  0.00000000e+00
  0.00000000e+00  0.00000000e+00  0.00000000e+00  0.00000000e+00
  0.00000000e+00  0.00000000e+00  7.49862441e-08 -1.10301621e-21
  0.00000000e+00  0.00000000e+00  0.00000000e+00  9.98584761e-03]"
1786901317.1733148,-1.0428047438676479e-19,-2.504153966169572e-47,0.0,"[ 9.98429825e-03 -1.62690985e-27  0.00000000e+00  0.00000000e+00
  0.00000000e+00  7.54622668e-08 -1.62690985e-27  9.98422492e-03
  0.00000000e+00  0.00000000e+00  0.00000000e+00 -1.04119276e-21
  0.00000000e+00  0.00000000e+00  0.00000000e+00  0.00000000e+00
  0.00000000e+00  0.00000000e+00  0.00000000e+00  0.00000000e+00
  0.00000000e+00  0.00000000e+00  0.00000000e+00  0.00000000e+00
  0.00000000e+00  0.00000000e+00  0.00000000e+00  0.00000000e+00
  0.00000000e+00  0.00000000e+00  7.54622668e-08 -1.04119276e-21
  0.00000000e+00  0.00000000e+00  0.00000000e+00  9.98575760e-03]"
1786901317.223313,-1.0009451368312348e-19,-2.5172514981722764e-47,0.0,"[ 9.98419894e-03 -1.31100120e-27  0.00000000e+00  0.00000000e+00
  0.00000000e+00  7.58451647e-08 -1.31100120e-27  9.98412524e-03
  0.00000000e+00  0.00000000e+00  0.00000000e+00 -9.99382794e-22
  0.00000000e+00  0.00000000e+00  0.00000000e+00  0.00000000e+00
  0.00000000e+00  0.00000000e+00  0.00000000e+00  0.00000000e+00
  0.00000000e+00  0.00000000e+00  0.00000000e+00  0.00000000e+00
  0.00000000e+00  0.00000000e+00  0.00000000e+00  0.00000000e+00
  0.00000000e+00  0.00000000e+00  7.58451647e-08 -9.99382794e-22
  0.00000000e+00  0.00000000e+00  0.00000000e+00  9.98566569e-03]"
1786901317.276887,-1.00136089016635e-19,-2.540250733430631e-47,0.0,"[ 9.98400042e-03 -1.31577016e-27  0.00000000e+00  0.00000000e+00
  0.00000000e+00  7.67149427e-08 -1.31577016e-27  9.98392588e-03
  0.00000000e+00  0.00000000e+00  0.00000000e+00 -9.99778021e-22
  0.00000000e+00  0.00000000e+00  0.00000000e+00  0.00000000e+00
  0.00000000e+00  0.00000000e+00  0.00000000e+00  0.00000000e+00
  0.00000000e+00  0.00000000e+00  0.00000000e+00  0.00000000e+00
  0.00000000e+00  0.00000000e+00  0.00000000e+00  0.00000000e+00
  0.00000000e+00  0.00000000e+00  7.67149427e-08 -9.99778021e-22
  0.00000000e+00  0.00000000e+00  0.00000000e+00  9.98548399e-03]"
1786901317.32393,-1.0313431758039795e-19,-2.569132874972027e-47,0.0,"[ 9.98380189e-03 -1.54708591e-27  0.00000000e+00  0.00000000e+00
  0.00000000e+00  7.75598644e-08 -1.54708591e-27  9.98372653e-03
  0.00000000e+00  0.00000000e+00  0.00000000e+00 -1.02969625e-21
  0.00000000e+00  0.00000000e+00  0.00000000e+00  0.00000000e+00
  0.00000000e+00  0.00000000e+00  0.00000000e+00  0.00000000e+00
  0.00000000e+00  0.00000000e+00  0.00000000e+00  0.00000000e+00
  0.00000000e+00  0.00000000e+00  0.00000000e+00  0.00000000e+00
  0.00000000e+00  0.00000000e+00  7.75598644e-08 -1.02969625e-21
  0.00000000e+00  0.00000000e+00  0.00000000e+00  9.98530180e-03]"
1786901317.3783712,-1.0303446326434955e-19,-2.584967582233938e-47,0.0,"[ 9.98370265e-03 -1.53931002e-27  0.00000000e+00  0.00000000e+00
  0.00000000e+00  7.80106172e-08 -1.53931002e-27  9.98362685e-03
  0.00000000e+00  0.00000000e+00  0.00000000e+00 -1.02868890e-21
  0.00000000e+00  0.00000000e+00  0.00000000e+00  0.00000000e+00
  0.00000000e+00  0.00000000e+00  0.00000000e+00  0.00000000e+00
  0.00000000e+00  0.00000000e+00  0.00000000e+00  0.00000000e+00
  0.00000000e+00  0.00000000e+00  0.00000000e+00  0.00000000e+00
  0.00000000e+00  0.00000000e+00  7.80106172e-08 -1.02868890e-21
  0.00000000e+00  0.00000000e+00  0.00000000e+00  9.98521128e-03]"
1786901317.423139,-9.867234449383056e-20,-2.5967726454244943e-47,0.0,"[ 9.98360374e-03 -1.19899372e-27  0.00000000e+00  0.00000000e+00
  0.00000000e+00  7.87988872e-08 -1.19899372e-27  9.98352718e-03
  0.00000000e+00  0.00000000e+00  0.00000000e+00 -9.85122392e-22
  0.00000000e+00  0.00000000e+00  0.00000000e+00  0.00000000e+00
  0.00000000e+00  0.00000000e+00  0.00000000e+00  0.00000000e+00
  0.00000000e+00  0.00000000e+00  0.00000000e+00  0.00000000e+00
  0.00000000e+00  0.00000000e+00  0.00000000e+00  0.00000000e+00
  0.00000000e+00  0.00000000e+00  7.87988872e-08 -9.85122392e-22
  0.00000000e+00  0.00000000e+00  0.00000000e+00  9.98512762e-03]"
1786901317.4735196,-9.906309245029914e-20,-2.6240994596276756e-47,0.0,"[ 9.98340500e-03 -1.22917685e-27  0.00000000e+00  0.00000000e+00
  0.00000000e+00  7.94111990e-08 -1.22917685e-27  9.98332784e-03
  0.00000000e+00  0.00000000e+00  0.00000000e+00 -9.89004301e-22
  0.00000000e+00  0.00000000e+00  0.00000000e+00  0.00000000e+00
  0.00000000e+00  0.00000000e+00  0.00000000e+00  0.00000000e+00
  0.00000000e+00  0.00000000e+00  0.00000000e+00  0.00000000e+00
  0.00000000e+00  0.00000000e+00  0.00000000e+00  0.00000000e+00
  0.00000000e+00  0.00000000e+00  7.94111990e-08 -9.89004301e-22
  0.00000000e+00  0.00000000e+00  0.00000000e+00  9.98494072e-03]"
1786901317.525651,-1.0405566498850891e-19,-2.640988825862015e-47,0.0,"[ 9.98330574e-03 -1.62561013e-27  0.00000000e+00  0.00000000e+00
  0.00000000e+00  7.98243268e-08 -1.62561013e-27  9.98322818e-03
  0.00000000e+00  0.00000000e+00  0.00000000e+00 -1.03884447e-21
  0.00000000e+00  0.00000000e+00  0.00000000e+00  0.00000000e+00
  0.00000000e+00  0.00000000e+00  0.00000000e+00  0.00000000e+00
  0.00000000e+00  0.00000000e+00  0.00000000e+00  0.00000000e+00
  0.00000000e+00  0.00000000e+00  0.00000000e+00  0.00000000e+00
  0.00000000e+00  0.00000000e+00  7.98243268e-08 -1.03884447e-21
  0.00000000e+00  0.00000000e+00  0.00000000e+00  9.98484944e-03]"
1786901317.5765097,-1.0853601169834947e-19,-2.681754196091013e-47,0.0,"[ 9.98310732e-03 -1.98425261e-27  0.00000000e+00  0.00000000e+00
  0.00000000e+00  8.07638663e-08 -1.98425261e-27  9.98302885e-03
  0.00000000e+00  0.00000000e+00  0.00000000e+00 -1.08355844e-21
  0.00000000e+00  0.00000000e+00  0.00000000e+00  0.00000000e+00
  0.00000000e+00  0.00000000e+00  0.00000000e+00  0.00000000e+00
  0.00000000e+00  0.00000000e+00  0.00000000e+00  0.00000000e+00
  0.00000000e+00  0.00000000e+00  0.00000000e+00  0.00000000e+00
  0.00000000e+00  0.00000000e+00  8.07638663e-08 -1.08355844e-21
  0.00000000e+00  0.00000000e+00  0.00000000e+00  9.98466920e-03]"
1786901317.6315012,-1.1423923837892002e-19,-2.73237146159462e-47,0.0,"[ 9.98290875e-03 -2.44631412e-27  0.00000000e+00  0.00000000e+00
  0.00000000e+00  8.15292809e-08 -2.44631412e-27  9.98282953e-03
  0.00000000e+00  0.00000000e+00  0.00000000e+00 -1.14048054e-21
  0.00000000e+00  0.00000000e+00  0.00000000e+00  0.00000000e+00
  0.00000000e+00  0.00000000e+00  0.00000000e+00  0.00000000e+00
  0.00000000e+00  0.00000000e+00  0.00000000e+00  0.00000000e+00
  0.00000000e+00  0.00000000e+00  0.00000000e+00  0.00000000e+00
  0.00000000e+00  0.00000000e+00  8.15292809e-08 -1.14048054e-21
  0.00000000e+00  0.00000000e+00  0.00000000e+00  9.98448543e-03]"
1786901317.67599,-1.0642770587138336e-19,-2.751601500058226e-47,0.0,"[ 9.98280961e-03 -1.80940880e-27  0.00000000e+00  0.00000000e+00
  0.00000000e+00  8.20565668e-08 -1.80940880e-27  9.98272988e-03
  0.00000000e+00  0.00000000e+00  0.00000000e+00 -1.06247580e-21
  0.00000000e+00  0.00000000e+00  0.00000000e+00  0.00000000e+00
  0.00000000e+00  0.00000000e+00  0.00000000e+00  0.00000000e+00
  0.00000000e+00  0.00000000e+00  0.00000000e+00  0.00000000e+00
  0.00000000e+00  0.00000000e+00  0.00000000e+00  0.00000000e+00
  0.00000000e+00  0.00000000e+00  8.20565668e-08 -1.06247580e-21
  0.00000000e+00  0.00000000e+00  0.00000000e+00  9.98439648e-03]"
1786901317.7251217,-1.139389434544512e-19,-2.779212548942515e-47,0.0,"[ 9.98271033e-03 -2.42570629e-27  0.00000000e+00  0.00000000e+00
  0.00000000e+00  8.24435893e-08 -2.42570629e-27  9.98263022e-03
  0.00000000e+00  0.00000000e+00  0.00000000e+00 -1.13745962e-21
  0.00000000e+00  0.00000000e+00  0.00000000e+00  0.00000000e+00
  0.00000000e+00  0.00000000e+00  0.00000000e+00  0.00000000e+00
  0.00000000e+00  0.00000000e+00  0.00000000e+00  0.00000000e+00
  0.00000000e+00  0.00000000e+00  0.00000000e+00  0.00000000e+00
  0.00000000e+00  0.00000000e+00  8.24435893e-08 -1.13745962e-21
  0.00000000e+00  0.00000000e+00  0.00000000e+00  9.98430469e-03]"
1786901317.7734632,-1.1666209065610786e-19,-2.8405715537559696e-47,0.0,"[ 9.98251181e-03 -2.65023249e-27  0.00000000e+00  0.00000000e+00
  0.00000000e+00  8.32470843e-08 -2.65023249e-27  9.98243092e-03
  0.00000000e+00  0.00000000e+00  0.00000000e+00 -1.16462510e-21
  0.00000000e+00  0.00000000e+00  0.00000000e+00  0.00000000e+00
  0.00000000e+00  0.00000000e+00  0.00000000e+00  0.00000000e+00
  0.00000000e+00  0.00000000e+00  0.00000000e+00  0.00000000e+00
  0.00000000e+00  0.00000000e+00  0.00000000e+00  0.00000000e+00
  0.00000000e+00  0.00000000e+00  8.32470843e-08 -1.16462510e-21
  0.00000000e+00  0.00000000e+00  0.00000000e+00  9.98412171e-03]"
1786901317.8230774,-1.16668886287829e-19,-2.8714694511270803e-47,0.0,"[ 9.98241257e-03 -2.65074478e-27  0.00000000e+00  0.00000000e+00
  0.00000000e+00  8.36693468e-08 -2.65074478e-27  9.98233127e-03
  0.00000000e+00  0.00000000e+00  0.00000000e+00 -1.16468132e-21
  0.00000000e+00  0.00000000e+00  0.00000000e+00  0.00000000e+00
  0.00000000e+00  0.00000000e+00  0.00000000e+00  0.00000000e+00
  0.00000000e+00  0.00000000e+00  0.00000000e+00  0.00000000e+00
  0.00000000e+00  0.00000000e+00  0.00000000e+00  0.00000000e+00
  0.00000000e+00  0.00000000e+00  8.36693468e-08 -1.16468132e-21
  0.00000000e+00  0.00000000e+00  0.00000000e+00  9.98403063e-03]"
1786901317.8736925,-1.254847574168411e-19,-2.9539191810925486e-47,0.0,"[ 9.98221413e-03 -3.38900829e-27  0.00000000e+00  0.00000000e+00
  0.00000000e+00  8.45457580e-08 -3.38900829e-27  9.98213198e-03
  0.00000000e+00  0.00000000e+00  0.00000000e+00 -1.25267425e-21
  0.00000000e+00  0.00000000e+00  0.00000000e+00  0.00000000e+00
  0.00000000e+00  0.00000000e+00  0.00000000e+00  0.00000000e+00
  0.00000000e+00  0.00000000e+00  0.00000000e+00  0.00000000e+00
  0.00000000e+00  0.00000000e+00  0.00000000e+00  0.00000000e+00
  0.00000000e+00  0.00000000e+00  8.45457580e-08 -1.25267425e-21
  0.00000000e+00  0.00000000e+00  0.00000000e+00  9.98384914e-03]"
1786901317.9224734,-1.2270945139178338e-19,-3.036631381287376e-47,0.0,"[ 9.98201566e-03 -3.15246146e-27  0.00000000e+00  0.00000000e+00
  0.00000000e+00  8.53819084e-08 -3.15246146e-27  9.98193270e-03
  0.00000000e+00  0.00000000e+00  0.00000000e+00 -1.22494152e-21
  0.00000000e+00  0.00000000e+00  0.00000000e+00  0.00000000e+00
  0.00000000e+00  0.00000000e+00  0.00000000e+00  0.00000000e+00
  0.00000000e+00  0.00000000e+00  0.00000000e+00  0.00000000e+00
  0.00000000e+00  0.00000000e+00  0.00000000e+00  0.00000000e+00
  0.00000000e+00  0.00000000e+00  8.53819084e-08 -1.22494152e-21
  0.00000000e+00  0.00000000e+00  0.00000000e+00  9.98366685e-03]"
1786901317.9762123,-1.2793265224239688e-19,-3.0826362508629014e-47,0.0,"[ 9.98191647e-03 -3.59835588e-27  0.00000000e+00  0.00000000e+00
  0.00000000e+00  8.58377140e-08 -3.59835588e-27  9.98183306e-03
  0.00000000e+00  0.00000000e+00  0.00000000e+00 -1.27707547e-21
  0.00000000e+00  0.00000000e+00  0.00000000e+00  0.00000000e+00
  0.00000000e+00  0.00000000e+00  0.00000000e+00  0.00000000e+00
  0.00000000e+00  0.00000000e+00  0.00000000e+00  0.00000000e+00
  0.00000000e+00  0.00000000e+00  0.00000000e+00  0.00000000e+00
  0.00000000e+00  0.00000000e+00  8.58377140e-08 -1.27707547e-21
  0.00000000e+00  0.00000000e+00  0.00000000e+00  9.98357646e-03]"
1786901318.0228913,-1.265388460461353e-19,-3.1739049093760166e-47,0.0,"[ 9.98171800e-03 -3.47758363e-27  0.00000000e+00  0.00000000e+00
  0.00000000e+00  8.66655296e-08 -3.47758363e-27  9.98163379e-03
  0.00000000e+00  0.00000000e+00  0.00000000e+00 -1.26313506e-21
  0.00000000e+00  0.00000000e+00  0.00000000e+00  0.00000000e+00
  0.00000000e+00  0.00000000e+00  0.00000000e+00  0.00000000e+00
  0.00000000e+00  0.00000000e+00  0.00000000e+00  0.00000000e+00
  0.00000000e+00  0.00000000e+00  0.00000000e+00  0.00000000e+00
  0.00000000e+00  0.00000000e+00  8.66655296e-08 -1.26313506e-21
  0.00000000e+00  0.00000000e+00  0.00000000e+00  9.98339401e-03]"
1786901318.0735586,-1.2554560917803062e-19,-3.216451643813596e-47,0.0,"[ 9.98161877e-03 -3.39143600e-27  0.00000000e+00  0.00000000e+00
  0.00000000e+00  8.70762855e-08 -3.39143600e-27  9.98153416e-03
  0.00000000e+00  0.00000000e+00  0.00000000e+00 -1.25320668e-21
  0.00000000e+00  0.00000000e+00  0.00000000e+00  0.00000000e+00
  0.00000000e+00  0.00000000e+00  0.00000000e+00  0.00000000e+00
  0.00000000e+00  0.00000000e+00  0.00000000e+00  0.00000000e+00
  0.00000000e+00  0.00000000e+00  0.00000000e+00  0.00000000e+00
  0.00000000e+00  0.00000000e+00  8.70762855e-08 -1.25320668e-21
  0.00000000e+00  0.00000000e+00  0.00000000e+00  9.98330272e-03]"
1786901318.1270003,-1.347687240059905e-19,-3.272948376229255e-47,0.0,"[ 9.98152029e-03 -4.19446525e-27  0.00000000e+00  0.00000000e+00
  0.00000000e+00  8.82556798e-08 -4.19446525e-27  9.98143453e-03
  0.00000000e+00  0.00000000e+00  0.00000000e+00 -1.34527040e-21
  0.00000000e+00  0.00000000e+00  0.00000000e+00  0.00000000e+00
  0.00000000e+00  0.00000000e+00  0.00000000e+00  0.00000000e+00
  0.00000000e+00  0.00000000e+00  0.00000000e+00  0.00000000e+00
  0.00000000e+00  0.00000000e+00  0.00000000e+00  0.00000000e+00
  0.00000000e+00  0.00000000e+00  8.82556798e-08 -1.34527040e-21
  0.00000000e+00  0.00000000e+00  0.00000000e+00  9.98322704e-03]"
1786901318.1850061,-1.4133877140864189e-19,-3.400590603935757e-47,0.0,"[ 9.98132146e-03 -4.77441072e-27  0.00000000e+00  0.00000000e+00
  0.00000000e+00  8.87020333e-08 -4.77441072e-27  9.98123528e-03
  0.00000000e+00  0.00000000e+00  0.00000000e+00 -1.41083251e-21
  0.00000000e+00  0.00000000e+00  0.00000000e+00  0.00000000e+00
  0.00000000e+00  0.00000000e+00  0.00000000e+00  0.00000000e+00
  0.00000000e+00  0.00000000e+00  0.00000000e+00  0.00000000e+00
  0.00000000e+00  0.00000000e+00  0.00000000e+00  0.00000000e+00
  0.00000000e+00  0.00000000e+00  8.87020333e-08 -1.41083251e-21
  0.00000000e+00  0.00000000e+00  0.00000000e+00  9.98303685e-03]"
1786901318.2230043,-1.501133183336813e-19,-3.483909706026065e-47,0.0,"[ 9.98122226e-03 -5.55261937e-27  0.00000000e+00  0.00000000e+00
  0.00000000e+00  8.91331977e-08 -5.55261937e-27  9.98113565e-03
  0.00000000e+00  0.00000000e+00  0.00000000e+00 -1.49841418e-21
  0.00000000e+00  0.00000000e+00  0.00000000e+00  0.00000000e+00
  0.00000000e+00  0.00000000e+00  0.00000000e+00  0.00000000e+00
  0.00000000e+00  0.00000000e+00  0.00000000e+00  0.00000000e+00
  0.00000000e+00  0.00000000e+00  0.00000000e+00  0.00000000e+00
  0.00000000e+00  0.00000000e+00  8.91331977e-08 -1.49841418e-21
  0.00000000e+00  0.00000000e+00  0.00000000e+00  9.98294599e-03]"
1786901318.2954144,-1.499596598147904e-19,-3.6537702328238074e-47,0.0,"[ 9.98102385e-03 -5.53784118e-27  0.00000000e+00  0.00000000e+00
  0.00000000e+00  8.99859297e-08 -5.53784118e-27  9.98093641e-03
  0.00000000e+00  0.00000000e+00  0.00000000e+00 -1.49685031e-21
  0.00000000e+00  0.00000000e+00  0.00000000e+00  0.00000000e+00
  0.00000000e+00  0.00000000e+00  0.00000000e+00  0.00000000e+00
  0.00000000e+00  0.00000000e+00  0.00000000e+00  0.00000000e+00
  0.00000000e+00  0.00000000e+00  0.00000000e+00  0.00000000e+00
  0.00000000e+00  0.00000000e+00  8.99859297e-08 -1.49685031e-21
  0.00000000e+00  0.00000000e+00  0.00000000e+00  9.98276406e-03]"
1786901318.3225992,-1.4890749489564174e-19,-3.734785692260487e-47,0.0,"[ 9.98092479e-03 -5.44305162e-27  0.00000000e+00  0.00000000e+00
  0.00000000e+00  9.05616438e-08 -5.44305162e-27  9.98083679e-03
  0.00000000e+00  0.00000000e+00  0.00000000e+00 -1.48633196e-21
  0.00000000e+00  0.00000000e+00  0.00000000e+00  0.00000000e+00
  0.00000000e+00  0.00000000e+00  0.00000000e+00  0.00000000e+00
  0.00000000e+00  0.00000000e+00  0.00000000e+00  0.00000000e+00
  0.00000000e+00  0.00000000e+00  0.00000000e+00  0.00000000e+00
  0.00000000e+00  0.00000000e+00  9.05616438e-08 -1.48633196e-21
  0.00000000e+00  0.00000000e+00  0.00000000e+00  9.98267614e-03]"
1786901318.3730068,-1.5266407210352581e-19,-3.903097286432007e-47,0.0,"[ 9.98072631e-03 -5.78441780e-27  0.00000000e+00  0.00000000e+00
  0.00000000e+00  9.13322327e-08 -5.78441780e-27  9.98063756e-03
  0.00000000e+00  0.00000000e+00  0.00000000e+00 -1.52380227e-21
  0.00000000e+00  0.00000000e+00  0.00000000e+00  0.00000000e+00
  0.00000000e+00  0.00000000e+00  0.00000000e+00  0.00000000e+00
  0.00000000e+00  0.00000000e+00  0.00000000e+00  0.00000000e+00
  0.00000000e+00  0.00000000e+00  0.00000000e+00  0.00000000e+00
  0.00000000e+00  0.00000000e+00  9.13322327e-08 -1.52380227e-21
  0.00000000e+00  0.00000000e+00  0.00000000e+00  9.98249256e-03]"
1786901318.432341,-1.525710341759218e-19,-3.9911812574996816e-47,0.0,"[ 9.98062710e-03 -5.77580450e-27  0.00000000e+00  0.00000000e+00
  0.00000000e+00  9.17483418e-08 -5.77580450e-27  9.98053795e-03
  0.00000000e+00  0.00000000e+00  0.00000000e+00 -1.52285832e-21
  0.00000000e+00  0.00000000e+00  0.00000000e+00  0.00000000e+00
  0.00000000e+00  0.00000000e+00  0.00000000e+00  0.00000000e+00
  0.00000000e+00  0.00000000e+00  0.00000000e+00  0.00000000e+00
  0.00000000e+00  0.00000000e+00  0.00000000e+00  0.00000000e+00
  0.00000000e+00  0.00000000e+00  9.17483418e-08 -1.52285832e-21
  0.00000000e+00  0.00000000e+00  0.00000000e+00  9.98240140e-03]"
1786901318.4804251,-1.5885441631768264e-19,-4.187482689755769e-47,0.0,"[ 9.98042884e-03 -6.35427474e-27  0.00000000e+00  0.00000000e+00
  0.00000000e+00  9.27337906e-08 -6.35427474e-27  9.98033873e-03
  0.00000000e+00  0.00000000e+00  0.00000000e+00 -1.58554995e-21
  0.00000000e+00  0.00000000e+00  0.00000000e+00  0.00000000e+00
  0.00000000e+00  0.00000000e+00  0.00000000e+00  0.00000000e+00
  0.00000000e+00  0.00000000e+00  0.00000000e+00  0.00000000e+00
  0.00000000e+00  0.00000000e+00  0.00000000e+00  0.00000000e+00
  0.00000000e+00  0.00000000e+00  9.27337906e-08 -1.58554995e-21
  0.00000000e+00  0.00000000e+00  0.00000000e+00  9.98222220e-03]"
1786901318.526946,-1.5028718705876252e-19,-4.3585822390409262e-47,0.0,"[ 9.98023043e-03 -5.55865201e-27  0.00000000e+00  0.00000000e+00
  0.00000000e+00  9.35638618e-08 -5.55865201e-27  9.98013952e-03
  0.00000000e+00  0.00000000e+00  0.00000000e+00 -1.50000000e-21
  0.00000000e+00  0.00000000e+00  0.00000000e+00  0.00000000e+00
  0.00000000e+00  0.00000000e+00  0.00000000e+00  0.00000000e+00
  0.00000000e+00  0.00000000e+00  0.00000000e+00  0.00000000e+00
  0.00000000e+00  0.00000000e+00  0.00000000e+00  0.00000000e+00
  0.00000000e+00  0.00000000e+00  9.35638618e-08 -1.50000000e-21
  0.00000000e+00  0.00000000e+00  0.00000000e+00  9.98203984e-03]"
1786901318.57258,-1.4565109764355561e-19,-4.433182448201507e-47,0.0,"[ 9.98013127e-03 -5.12477861e-27  0.00000000e+00  0.00000000e+00
  0.00000000e+00  9.40176316e-08 -5.12477861e-27  9.98003992e-03
  0.00000000e+00  0.00000000e+00  0.00000000e+00 -1.45370787e-21
  0.00000000e+00  0.00000000e+00  0.00000000e+00  0.00000000e+00
  0.00000000e+00  0.00000000e+00  0.00000000e+00  0.00000000e+00
  0.00000000e+00  0.00000000e+00  0.00000000e+00  0.00000000e+00
  0.00000000e+00  0.00000000e+00  0.00000000e+00  0.00000000e+00
  0.00000000e+00  0.00000000e+00  9.40176316e-08 -1.45370787e-21
  0.00000000e+00  0.00000000e+00  0.00000000e+00  9.98194946e-03]"
1786901318.6455228,-1.4321247020074396e-19,-4.503247227370741e-47,0.0,"[ 9.98003211e-03 -4.89540626e-27  0.00000000e+00  0.00000000e+00
  0.00000000e+00  9.44714023e-08 -4.89540626e-27  9.97994032e-03
  0.00000000e+00  0.00000000e+00  0.00000000e+00 -1.42935134e-21
  0.00000000e+00  0.00000000e+00  0.00000000e+00  0.00000000e+00
  0.00000000e+00  0.00000000e+00  0.00000000e+00  0.00000000e+00
  0.00000000e+00  0.00000000e+00  0.00000000e+00  0.00000000e+00
  0.00000000e+00  0.00000000e+00  0.00000000e+00  0.00000000e+00
  0.00000000e+00  0.00000000e+00  9.44714023e-08 -1.42935134e-21
  0.00000000e+00  0.00000000e+00  0.00000000e+00  9.98185907e-03]"
1786901318.673093,-1.4336795535786436e-19,-4.640125215228463e-47,0.0,"[ 9.97983374e-03 -4.91092674e-27  0.00000000e+00  0.00000000e+00
  0.00000000e+00  9.53152619e-08 -4.91092674e-27  9.97974113e-03
  0.00000000e+00  0.00000000e+00  0.00000000e+00 -1.43087483e-21
  0.00000000e+00  0.00000000e+00  0.00000000e+00  0.00000000e+00
  0.00000000e+00  0.00000000e+00  0.00000000e+00  0.00000000e+00
  0.00000000e+00  0.00000000e+00  0.00000000e+00  0.00000000e+00
  0.00000000e+00  0.00000000e+00  0.00000000e+00  0.00000000e+00
  0.00000000e+00  0.00000000e+00  9.53152619e-08 -1.43087483e-21
  0.00000000e+00  0.00000000e+00  0.00000000e+00  9.98167702e-03]"
1786901318.7239625,-1.457269367407539e-19,-4.714920208879226e-47,0.0,"[ 9.97973455e-03 -5.13567054e-27  0.00000000e+00  0.00000000e+00
  0.00000000e+00  9.57375728e-08 -5.13567054e-27  9.97964153e-03
  0.00000000e+00  0.00000000e+00  0.00000000e+00 -1.45440691e-21
  0.00000000e+00  0.00000000e+00  0.00000000e+00  0.00000000e+00
  0.00000000e+00  0.00000000e+00  0.00000000e+00  0.00000000e+00
  0.00000000e+00  0.00000000e+00  0.00000000e+00  0.00000000e+00
  0.00000000e+00  0.00000000e+00  0.00000000e+00  0.00000000e+00
  0.00000000e+00  0.00000000e+00  9.57375728e-08 -1.45440691e-21
  0.00000000e+00  0.00000000e+00  0.00000000e+00  9.98158600e-03]"
1786901318.7759995,-1.4604815975903171e-19,-4.871708679119952e-47,0.0,"[ 9.97953622e-03 -5.16490238e-27  0.00000000e+00  0.00000000e+00
  0.00000000e+00  9.66071944e-08 -5.16490238e-27  9.97944235e-03
  0.00000000e+00  0.00000000e+00  0.00000000e+00 -1.45758410e-21
  0.00000000e+00  0.00000000e+00  0.00000000e+00  0.00000000e+00
  0.00000000e+00  0.00000000e+00  0.00000000e+00  0.00000000e+00
  0.00000000e+00  0.00000000e+00  0.00000000e+00  0.00000000e+00
  0.00000000e+00  0.00000000e+00  0.00000000e+00  0.00000000e+00
  0.00000000e+00  0.00000000e+00  9.66071944e-08 -1.45758410e-21
  0.00000000e+00  0.00000000e+00  0.00000000e+00  9.98140448e-03]"
1786901318.8223412,-1.551245287937738e-19,-5.041421058861448e-47,0.0,"[ 9.97933783e-03 -6.04491550e-27  0.00000000e+00  0.00000000e+00
  0.00000000e+00  9.74201754e-08 -6.04491550e-27  9.97924317e-03
  0.00000000e+00  0.00000000e+00  0.00000000e+00 -1.54814818e-21
  0.00000000e+00  0.00000000e+00  0.00000000e+00  0.00000000e+00
  0.00000000e+00  0.00000000e+00  0.00000000e+00  0.00000000e+00
  0.00000000e+00  0.00000000e+00  0.00000000e+00  0.00000000e+00
  0.00000000e+00  0.00000000e+00  0.00000000e+00  0.00000000e+00
  0.00000000e+00  0.00000000e+00  9.74201754e-08 -1.54814818e-21
  0.00000000e+00  0.00000000e+00  0.00000000e+00  9.98122182e-03]"
1786901318.8731573,-1.5571512355220296e-19,-5.136394186158395e-47,0.0,"[ 9.97923872e-03 -6.10232879e-27  0.00000000e+00  0.00000000e+00
  0.00000000e+00  9.79033333e-08 -6.10232879e-27  9.97914359e-03
  0.00000000e+00  0.00000000e+00  0.00000000e+00 -1.55402753e-21
  0.00000000e+00  0.00000000e+00  0.00000000e+00  0.00000000e+00
  0.00000000e+00  0.00000000e+00  0.00000000e+00  0.00000000e+00
  0.00000000e+00  0.00000000e+00  0.00000000e+00  0.00000000e+00
  0.00000000e+00  0.00000000e+00  0.00000000e+00  0.00000000e+00
  0.00000000e+00  0.00000000e+00  9.79033333e-08 -1.55402753e-21
  0.00000000e+00  0.00000000e+00  0.00000000e+00  9.98113205e-03]"
1786901318.9232476,-1.5254771868756267e-19,-5.224701175141272e-47,0.0,"[ 9.97913952e-03 -5.79211307e-27  0.00000000e+00  0.00000000e+00
  0.00000000e+00  9.83013466e-08 -5.79211307e-27  9.97904401e-03
  0.00000000e+00  0.00000000e+00  0.00000000e+00 -1.52239805e-21
  0.00000000e+00  0.00000000e+00  0.00000000e+00  0.00000000e+00
  0.00000000e+00  0.00000000e+00  0.00000000e+00  0.00000000e+00
  0.00000000e+00  0.00000000e+00  0.00000000e+00  0.00000000e+00
  0.00000000e+00  0.00000000e+00  0.00000000e+00  0.00000000e+00
  0.00000000e+00  0.00000000e+00  9.83013466e-08 -1.52239805e-21
  0.00000000e+00  0.00000000e+00  0.00000000e+00  9.98104055e-03]"
1786901318.9767032,-1.5250039619785344e-19,-5.410390290861977e-47,0.0,"[ 9.97894117e-03 -5.78518082e-27  0.00000000e+00  0.00000000e+00
  0.00000000e+00  9.91288623e-08 -5.78518082e-27  9.97884485e-03
  0.00000000e+00  0.00000000e+00  0.00000000e+00 -1.52189530e-21
  0.00000000e+00  0.00000000e+00  0.00000000e+00  0.00000000e+00
  0.00000000e+00  0.00000000e+00  0.00000000e+00  0.00000000e+00
  0.00000000e+00  0.00000000e+00  0.00000000e+00  0.00000000e+00
  0.00000000e+00  0.00000000e+00  0.00000000e+00  0.00000000e+00
  0.00000000e+00  0.00000000e+00  9.91288623e-08 -1.52189530e-21
  0.00000000e+00  0.00000000e+00  0.00000000e+00  9.98085820e-03]"
1786901319.0256188,-1.6504469440314617e-19,-5.633560692806691e-47,0.0,"[ 9.97874284e-03 -7.03002098e-27  0.00000000e+00  0.00000000e+00
  0.00000000e+00  9.99765160e-08 -7.03002098e-27  9.97864570e-03
  0.00000000e+00  0.00000000e+00  0.00000000e+00 -1.64706533e-21
  0.00000000e+00  0.00000000e+00  0.00000000e+00  0.00000000e+00
  0.00000000e+00  0.00000000e+00  0.00000000e+00  0.00000000e+00
  0.00000000e+00  0.00000000e+00  0.00000000e+00  0.00000000e+00
  0.00000000e+00  0.00000000e+00  0.00000000e+00  0.00000000e+00
  0.00000000e+00  0.00000000e+00  9.99765160e-08 -1.64706533e-21
  0.00000000e+00  0.00000000e+00  0.00000000e+00  9.98067626e-03]"
1786901319.0803804,-1.6382672896083257e-19,-5.74667898189181e-47,0.0,"[ 9.97864386e-03 -6.90811415e-27  0.00000000e+00  0.00000000e+00
  0.00000000e+00  1.00587565e-07 -6.90811415e-27  9.97854613e-03
  0.00000000e+00  0.00000000e+00  0.00000000e+00 -1.63489289e-21
  0.00000000e+00  0.00000000e+00  0.00000000e+00  0.00000000e+00
  0.00000000e+00  0.00000000e+00  0.00000000e+00  0.00000000e+00
  0.00000000e+00  0.00000000e+00  0.00000000e+00  0.00000000e+00
  0.00000000e+00  0.00000000e+00  0.00000000e+00  0.00000000e+00
  0.00000000e+00  0.00000000e+00  1.00587565e-07 -1.63489289e-21
  0.00000000e+00  0.00000000e+00  0.00000000e+00  9.98058910e-03]"
1786901319.1242332,-1.6228685499307246e-19,-5.85621645321493e-47,0.0,"[ 9.97854457e-03 -6.75308673e-27  0.00000000e+00  0.00000000e+00
  0.00000000e+00  1.00874105e-07 -6.75308673e-27  9.97844656e-03
  0.00000000e+00  0.00000000e+00  0.00000000e+00 -1.61950788e-21
  0.00000000e+00  0.00000000e+00  0.00000000e+00  0.00000000e+00
  0.00000000e+00  0.00000000e+00  0.00000000e+00  0.00000000e+00
  0.00000000e+00  0.00000000e+00  0.00000000e+00  0.00000000e+00
  0.00000000e+00  0.00000000e+00  0.00000000e+00  0.00000000e+00
  0.00000000e+00  0.00000000e+00  1.00874105e-07 -1.61950788e-21
  0.00000000e+00  0.00000000e+00  0.00000000e+00  9.98049535e-03]"
1786901319.1749566,-1.6925813823278418e-19,-6.102408693466781e-47,0.0,"[ 9.97834646e-03 -7.45705089e-27  0.00000000e+00  0.00000000e+00
  0.00000000e+00  1.01926332e-07 -7.45705089e-27  9.97824742e-03
  0.00000000e+00  0.00000000e+00  0.00000000e+00 -1.68905105e-21
  0.00000000e+00  0.00000000e+00  0.00000000e+00  0.00000000e+00
  0.00000000e+00  0.00000000e+00  0.00000000e+00  0.00000000e+00
  0.00000000e+00  0.00000000e+00  0.00000000e+00  0.00000000e+00
  0.00000000e+00  0.00000000e+00  0.00000000e+00  0.00000000e+00
  0.00000000e+00  0.00000000e+00  1.01926332e-07 -1.68905105e-21
  0.00000000e+00  0.00000000e+00  0.00000000e+00  9.98031759e-03]"
1786901319.2227216,-1.7249236233318807e-19,-6.236661142534943e-47,0.0,"[ 9.97824714e-03 -7.78654763e-27  0.00000000e+00  0.00000000e+00
  0.00000000e+00  1.02181605e-07 -7.78654763e-27  9.97814786e-03
  0.00000000e+00  0.00000000e+00  0.00000000e+00 -1.72131246e-21
  0.00000000e+00  0.00000000e+00  0.00000000e+00  0.00000000e+00
  0.00000000e+00  0.00000000e+00  0.00000000e+00  0.00000000e+00
  0.00000000e+00  0.00000000e+00  0.00000000e+00  0.00000000e+00
  0.00000000e+00  0.00000000e+00  0.00000000e+00  0.00000000e+00
  0.00000000e+00  0.00000000e+00  1.02181605e-07 -1.72131246e-21
  0.00000000e+00  0.00000000e+00  0.00000000e+00  9.98022321e-03]"
1786901319.2736406,-1.7697629929193372e-19,-6.531918855150853e-47,0.0,"[ 9.97804885e-03 -8.24380232e-27  0.00000000e+00  0.00000000e+00
  0.00000000e+00  1.03043117e-07 -8.24380232e-27  9.97794873e-03
  0.00000000e+00  0.00000000e+00  0.00000000e+00 -1.76602789e-21
  0.00000000e+00  0.00000000e+00  0.00000000e+00  0.00000000e+00
  0.00000000e+00  0.00000000e+00  0.00000000e+00  0.00000000e+00
  0.00000000e+00  0.00000000e+00  0.00000000e+00  0.00000000e+00
  0.00000000e+00  0.00000000e+00  0.00000000e+00  0.00000000e+00
  0.00000000e+00  0.00000000e+00  1.03043117e-07 -1.76602789e-21
  0.00000000e+00  0.00000000e+00  0.00000000e+00  9.98004158e-03]"
1786901319.3324409,-1.7924392415515953e-19,-6.68380556832401e-47,0.0,"[ 9.97794970e-03 -8.47729552e-27  0.00000000e+00  0.00000000e+00
  0.00000000e+00  1.03458648e-07 -8.47729552e-27  9.97784917e-03
  0.00000000e+00  0.00000000e+00  0.00000000e+00 -1.78864103e-21
  0.00000000e+00  0.00000000e+00  0.00000000e+00  0.00000000e+00
  0.00000000e+00  0.00000000e+00  0.00000000e+00  0.00000000e+00
  0.00000000e+00  0.00000000e+00  0.00000000e+00  0.00000000e+00
  0.00000000e+00  0.00000000e+00  0.00000000e+00  0.00000000e+00
  0.00000000e+00  0.00000000e+00  1.03458648e-07 -1.78864103e-21
  0.00000000e+00  0.00000000e+00  0.00000000e+00  9.97995046e-03]"
1786901319.385232,-1.831645430886566e-19,-6.984192390389515e-47,0.0,"[ 9.97775148e-03 -8.88712742e-27  0.00000000e+00  0.00000000e+00
  0.00000000e+00  1.04380019e-07 -8.88712742e-27  9.97765006e-03
  0.00000000e+00  0.00000000e+00  0.00000000e+00 -1.82773223e-21
  0.00000000e+00  0.00000000e+00  0.00000000e+00  0.00000000e+00
  0.00000000e+00  0.00000000e+00  0.00000000e+00  0.00000000e+00
  0.00000000e+00  0.00000000e+00  0.00000000e+00  0.00000000e+00
  0.00000000e+00  0.00000000e+00  0.00000000e+00  0.00000000e+00
  0.00000000e+00  0.00000000e+00  1.04380019e-07 -1.82773223e-21
  0.00000000e+00  0.00000000e+00  0.00000000e+00  9.97977007e-03]"
1786901319.4232628,-1.8543667473971751e-19,-7.153318850296364e-47,0.0,"[ 9.97765232e-03 -9.12410973e-27  0.00000000e+00  0.00000000e+00
  0.00000000e+00  1.04776090e-07 -9.12410973e-27  9.97755051e-03
  0.00000000e+00  0.00000000e+00  0.00000000e+00 -1.85038912e-21
  0.00000000e+00  0.00000000e+00  0.00000000e+00  0.00000000e+00
  0.00000000e+00  0.00000000e+00  0.00000000e+00  0.00000000e+00
  0.00000000e+00  0.00000000e+00  0.00000000e+00  0.00000000e+00
  0.00000000e+00  0.00000000e+00  0.00000000e+00  0.00000000e+00
  0.00000000e+00  0.00000000e+00  1.04776090e-07 -1.85038912e-21
  0.00000000e+00  0.00000000e+00  0.00000000e+00  9.97967856e-03]"
1786901319.475314,-1.7835615962298832e-19,-7.457043099259328e-47,0.0,"[ 9.97745415e-03 -8.38117645e-27  0.00000000e+00  0.00000000e+00
  0.00000000e+00  1.05736007e-07 -8.38117645e-27  9.97735141e-03
  0.00000000e+00  0.00000000e+00  0.00000000e+00 -1.77969232e-21
  0.00000000e+00  0.00000000e+00  0.00000000e+00  0.00000000e+00
  0.00000000e+00  0.00000000e+00  0.00000000e+00  0.00000000e+00
  0.00000000e+00  0.00000000e+00  0.00000000e+00  0.00000000e+00
  0.00000000e+00  0.00000000e+00  0.00000000e+00  0.00000000e+00
  0.00000000e+00  0.00000000e+00  1.05736007e-07 -1.77969232e-21
  0.00000000e+00  0.00000000e+00  0.00000000e+00  9.97949896e-03]"
1786901319.5231476,-1.7535515235157732e-19,-7.5983712515490795e-47,0.0,"[ 9.97735490e-03 -8.06370046e-27  0.00000000e+00  0.00000000e+00
  0.00000000e+00  1.06039966e-07 -8.06370046e-27  9.97725187e-03
  0.00000000e+00  0.00000000e+00  0.00000000e+00 -1.74972631e-21
  0.00000000e+00  0.00000000e+00  0.00000000e+00  0.00000000e+00
  0.00000000e+00  0.00000000e+00  0.00000000e+00  0.00000000e+00
  0.00000000e+00  0.00000000e+00  0.00000000e+00  0.00000000e+00
  0.00000000e+00  0.00000000e+00  0.00000000e+00  0.00000000e+00
  0.00000000e+00  0.00000000e+00  1.06039966e-07 -1.74972631e-21
  0.00000000e+00  0.00000000e+00  0.00000000e+00  9.97940558e-03]"
1786901319.5733442,-1.8268772403295942e-19,-7.912835532144981e-47,0.0,"[ 9.97715680e-03 -8.84229278e-27  0.00000000e+00  0.00000000e+00
  0.00000000e+00  1.07059496e-07 -8.84229278e-27  9.97705278e-03
  0.00000000e+00  0.00000000e+00  0.00000000e+00 -1.82286467e-21
  0.00000000e+00  0.00000000e+00  0.00000000e+00  0.00000000e+00
  0.00000000e+00  0.00000000e+00  0.00000000e+00  0.00000000e+00
  0.00000000e+00  0.00000000e+00  0.00000000e+00  0.00000000e+00
  0.00000000e+00  0.00000000e+00  0.00000000e+00  0.00000000e+00
  0.00000000e+00  0.00000000e+00  1.07059496e-07 -1.82286467e-21
  0.00000000e+00  0.00000000e+00  0.00000000e+00  9.97922720e-03]"
1786901319.623011,-1.888897752129168e-19,-8.09231871503395e-47,0.0,"[ 9.97705759e-03 -9.50609090e-27  0.00000000e+00  0.00000000e+00
  0.00000000e+00  1.07396747e-07 -9.50609090e-27  9.97695324e-03
  0.00000000e+00  0.00000000e+00  0.00000000e+00 -1.88473754e-21
  0.00000000e+00  0.00000000e+00  0.00000000e+00  0.00000000e+00
  0.00000000e+00  0.00000000e+00  0.00000000e+00  0.00000000e+00
  0.00000000e+00  0.00000000e+00  0.00000000e+00  0.00000000e+00
  0.00000000e+00  0.00000000e+00  0.00000000e+00  0.00000000e+00
  0.00000000e+00  0.00000000e+00  1.07396747e-07 -1.88473754e-21
  0.00000000e+00  0.00000000e+00  0.00000000e+00  9.97913451e-03]"
1786901319.6789167,-1.9412444935572085e-19,-8.476807291126594e-47,0.0,"[ 9.97685929e-03 -1.00687288e-26  0.00000000e+00  0.00000000e+00
  0.00000000e+00  1.08191248e-07 -1.00687288e-26  9.97675416e-03
  0.00000000e+00  0.00000000e+00  0.00000000e+00 -1.93693642e-21
  0.00000000e+00  0.00000000e+00  0.00000000e+00  0.00000000e+00
  0.00000000e+00  0.00000000e+00  0.00000000e+00  0.00000000e+00
  0.00000000e+00  0.00000000e+00  0.00000000e+00  0.00000000e+00
  0.00000000e+00  0.00000000e+00  0.00000000e+00  0.00000000e+00
  0.00000000e+00  0.00000000e+00  1.08191248e-07 -1.93693642e-21
  0.00000000e+00  0.00000000e+00  0.00000000e+00  9.97895157e-03]"
1786901319.7242198,-1.946366986669085e-19,-8.67377384211819e-47,0.0,"[ 9.97676024e-03 -1.01239466e-26  0.00000000e+00  0.00000000e+00
  0.00000000e+00  1.08691868e-07 -1.01239466e-26  9.97665463e-03
  0.00000000e+00  0.00000000e+00  0.00000000e+00 -1.94202876e-21
  0.00000000e+00  0.00000000e+00  0.00000000e+00  0.00000000e+00
  0.00000000e+00  0.00000000e+00  0.00000000e+00  0.00000000e+00
  0.00000000e+00  0.00000000e+00  0.00000000e+00  0.00000000e+00
  0.00000000e+00  0.00000000e+00  0.00000000e+00  0.00000000e+00
  0.00000000e+00  0.00000000e+00  1.08691868e-07 -1.94202876e-21
  0.00000000e+00  0.00000000e+00  0.00000000e+00  9.97886221e-03]"
1786901319.7769644,-1.963813711271186e-19,-9.086267447034729e-47,0.0,"[ 9.97656195e-03 -1.03121182e-26  0.00000000e+00  0.00000000e+00
  0.00000000e+00  1.09488812e-07 -1.03121182e-26  9.97645556e-03
  0.00000000e+00  0.00000000e+00  0.00000000e+00 -1.95939948e-21
  0.00000000e+00  0.00000000e+00  0.00000000e+00  0.00000000e+00
  0.00000000e+00  0.00000000e+00  0.00000000e+00  0.00000000e+00
  0.00000000e+00  0.00000000e+00  0.00000000e+00  0.00000000e+00
  0.00000000e+00  0.00000000e+00  0.00000000e+00  0.00000000e+00
  0.00000000e+00  0.00000000e+00  1.09488812e-07 -1.95939948e-21
  0.00000000e+00  0.00000000e+00  0.00000000e+00  9.97867933e-03]"
1786901319.8240676,-1.9893054703777045e-19,-9.296866481603624e-47,0.0,"[ 9.97646296e-03 -1.05910120e-26  0.00000000e+00  0.00000000e+00
  0.00000000e+00  1.10046086e-07 -1.05910120e-26  9.97635604e-03
  0.00000000e+00  0.00000000e+00  0.00000000e+00 -1.98481709e-21
  0.00000000e+00  0.00000000e+00  0.00000000e+00  0.00000000e+00
  0.00000000e+00  0.00000000e+00  0.00000000e+00  0.00000000e+00
  0.00000000e+00  0.00000000e+00  0.00000000e+00  0.00000000e+00
  0.00000000e+00  0.00000000e+00  0.00000000e+00  0.00000000e+00
  0.00000000e+00  0.00000000e+00  1.10046086e-07 -1.98481709e-21
  0.00000000e+00  0.00000000e+00  0.00000000e+00  9.97859112e-03]"
1786901319.8779042,-1.9204287777246155e-19,-9.675295819237242e-47,0.0,"[ 9.97626463e-03 -9.83254959e-27  0.00000000e+00  0.00000000e+00
  0.00000000e+00  1.10782025e-07 -9.83254959e-27  9.97615698e-03
  0.00000000e+00  0.00000000e+00  0.00000000e+00 -1.91604962e-21
  0.00000000e+00  0.00000000e+00  0.00000000e+00  0.00000000e+00
  0.00000000e+00  0.00000000e+00  0.00000000e+00  0.00000000e+00
  0.00000000e+00  0.00000000e+00  0.00000000e+00  0.00000000e+00
  0.00000000e+00  0.00000000e+00  0.00000000e+00  0.00000000e+00
  0.00000000e+00  0.00000000e+00  1.10782025e-07 -1.91604962e-21
  0.00000000e+00  0.00000000e+00  0.00000000e+00  9.97840702e-03]"
1786901319.9330864,-1.9357276966395113e-19,-9.868809490781377e-47,0.0,"[ 9.97616561e-03 -1.00018335e-26  0.00000000e+00  0.00000000e+00
  0.00000000e+00  1.11307915e-07 -1.00018335e-26  9.97605746e-03
  0.00000000e+00  0.00000000e+00  0.00000000e+00 -1.93129623e-21
  0.00000000e+00  0.00000000e+00  0.00000000e+00  0.00000000e+00
  0.00000000e+00  0.00000000e+00  0.00000000e+00  0.00000000e+00
  0.00000000e+00  0.00000000e+00  0.00000000e+00  0.00000000e+00
  0.00000000e+00  0.00000000e+00  0.00000000e+00  0.00000000e+00
  0.00000000e+00  0.00000000e+00  1.11307915e-07 -1.93129623e-21
  0.00000000e+00  0.00000000e+00  0.00000000e+00  9.97831817e-03]"
1786901319.9732535,-1.8726844379156928e-19,-1.022177527368462e-46,0.0,"[ 9.97596739e-03 -9.29863435e-27  0.00000000e+00  0.00000000e+00
  0.00000000e+00  1.12149814e-07 -9.29863435e-27  9.97585842e-03
  0.00000000e+00  0.00000000e+00  0.00000000e+00 -1.86835236e-21
  0.00000000e+00  0.00000000e+00  0.00000000e+00  0.00000000e+00
  0.00000000e+00  0.00000000e+00  0.00000000e+00  0.00000000e+00
  0.00000000e+00  0.00000000e+00  0.00000000e+00  0.00000000e+00
  0.00000000e+00  0.00000000e+00  0.00000000e+00  0.00000000e+00
  0.00000000e+00  0.00000000e+00  1.12149814e-07 -1.86835236e-21
  0.00000000e+00  0.00000000e+00  0.00000000e+00  9.97813623e-03]"
1786901320.038751,-1.8832074356208196e-19,-1.0569355556933846e-46,0.0,"[ 9.97576920e-03 -9.41745675e-27  0.00000000e+00  0.00000000e+00
  0.00000000e+00  1.13015018e-07 -9.41745675e-27  9.97565939e-03
  0.00000000e+00  0.00000000e+00  0.00000000e+00 -1.87881488e-21
  0.00000000e+00  0.00000000e+00  0.00000000e+00  0.00000000e+00
  0.00000000e+00  0.00000000e+00  0.00000000e+00  0.00000000e+00
  0.00000000e+00  0.00000000e+00  0.00000000e+00  0.00000000e+00
  0.00000000e+00  0.00000000e+00  0.00000000e+00  0.00000000e+00
  0.00000000e+00  0.00000000e+00  1.13015018e-07 -1.87881488e-21
  0.00000000e+00  0.00000000e+00  0.00000000e+00  9.97795477e-03]"
1786901320.0918856,-1.9858116286692076e-19,-1.0779288063429414e-46,0.0,"[ 9.97567012e-03 -1.05768263e-26  0.00000000e+00  0.00000000e+00
  0.00000000e+00  1.13455866e-07 -1.05768263e-26  9.97555988e-03
  0.00000000e+00  0.00000000e+00  0.00000000e+00 -1.98117312e-21
  0.00000000e+00  0.00000000e+00  0.00000000e+00  0.00000000e+00
  0.00000000e+00  0.00000000e+00  0.00000000e+00  0.00000000e+00
  0.00000000e+00  0.00000000e+00  0.00000000e+00  0.00000000e+00
  0.00000000e+00  0.00000000e+00  0.00000000e+00  0.00000000e+00
  0.00000000e+00  0.00000000e+00  1.13455866e-07 -1.98117312e-21
  0.00000000e+00  0.00000000e+00  0.00000000e+00  9.97786422e-03]"
1786901320.1269739,-2.0110057567726152e-19,-1.0997627223501837e-46,0.0,"[ 9.97557108e-03 -1.08624507e-26  0.00000000e+00  0.00000000e+00
  0.00000000e+00  1.13947541e-07 -1.08624507e-26  9.97546037e-03
  0.00000000e+00  0.00000000e+00  0.00000000e+00 -2.00629146e-21
  0.00000000e+00  0.00000000e+00  0.00000000e+00  0.00000000e+00
  0.00000000e+00  0.00000000e+00  0.00000000e+00  0.00000000e+00
  0.00000000e+00  0.00000000e+00  0.00000000e+00  0.00000000e+00
  0.00000000e+00  0.00000000e+00  0.00000000e+00  0.00000000e+00
  0.00000000e+00  0.00000000e+00  1.13947541e-07 -2.00629146e-21
  0.00000000e+00  0.00000000e+00  0.00000000e+00  9.97777469e-03]"
1786901320.1728742,-1.978470586350105e-19,-1.1417365662486927e-46,0.0,"[ 9.97537286e-03 -1.04906048e-26  0.00000000e+00  0.00000000e+00
  0.00000000e+00  1.14766587e-07 -1.04906048e-26  9.97526135e-03
  0.00000000e+00  0.00000000e+00  0.00000000e+00 -1.97378921e-21
  0.00000000e+00  0.00000000e+00  0.00000000e+00  0.00000000e+00
  0.00000000e+00  0.00000000e+00  0.00000000e+00  0.00000000e+00
  0.00000000e+00  0.00000000e+00  0.00000000e+00  0.00000000e+00
  0.00000000e+00  0.00000000e+00  0.00000000e+00  0.00000000e+00
  0.00000000e+00  0.00000000e+00  1.14766587e-07 -1.97378921e-21
  0.00000000e+00  0.00000000e+00  0.00000000e+00  9.97759231e-03]"
1786901320.22283,-1.9433151909968853e-19,-1.1613274692965916e-46,0.0,"[ 9.97527374e-03 -1.00869363e-26  0.00000000e+00  0.00000000e+00
  0.00000000e+00  1.15161808e-07 -1.00869363e-26  9.97516185e-03
  0.00000000e+00  0.00000000e+00  0.00000000e+00 -1.93869324e-21
  0.00000000e+00  0.00000000e+00  0.00000000e+00  0.00000000e+00
  0.00000000e+00  0.00000000e+00  0.00000000e+00  0.00000000e+00
  0.00000000e+00  0.00000000e+00  0.00000000e+00  0.00000000e+00
  0.00000000e+00  0.00000000e+00  0.00000000e+00  0.00000000e+00
  0.00000000e+00  0.00000000e+00  1.15161808e-07 -1.93869324e-21
  0.00000000e+00  0.00000000e+00  0.00000000e+00  9.97750083e-03]"
1786901320.281284,-1.9741381829768455e-19,-1.2012769236542842e-46,0.0,"[ 9.97507563e-03 -1.04431721e-26  0.00000000e+00  0.00000000e+00
  0.00000000e+00  1.16082504e-07 -1.04431721e-26  9.97496284e-03
  0.00000000e+00  0.00000000e+00  0.00000000e+00 -1.96940763e-21
  0.00000000e+00  0.00000000e+00  0.00000000e+00  0.00000000e+00
  0.00000000e+00  0.00000000e+00  0.00000000e+00  0.00000000e+00
  0.00000000e+00  0.00000000e+00  0.00000000e+00  0.00000000e+00
  0.00000000e+00  0.00000000e+00  0.00000000e+00  0.00000000e+00
  0.00000000e+00  0.00000000e+00  1.16082504e-07 -1.96940763e-21
  0.00000000e+00  0.00000000e+00  0.00000000e+00  9.97732053e-03]"
1786901320.3250425,-2.0257398967302638e-19,-1.2236332963473388e-46,0.0,"[ 9.97497648e-03 -1.10419567e-26  0.00000000e+00  0.00000000e+00
  0.00000000e+00  1.16437630e-07 -1.10419567e-26  9.97486334e-03
  0.00000000e+00  0.00000000e+00  0.00000000e+00 -2.02087215e-21
  0.00000000e+00  0.00000000e+00  0.00000000e+00  0.00000000e+00
  0.00000000e+00  0.00000000e+00  0.00000000e+00  0.00000000e+00
  0.00000000e+00  0.00000000e+00  0.00000000e+00  0.00000000e+00
  0.00000000e+00  0.00000000e+00  0.00000000e+00  0.00000000e+00
  0.00000000e+00  0.00000000e+00  1.16437630e-07 -2.02087215e-21
  0.00000000e+00  0.00000000e+00  0.00000000e+00  9.97722824e-03]"
1786901320.3734365,-2.018285597313244e-19,-1.2670769178746038e-46,0.0,"[ 9.97477838e-03 -1.09559842e-26  0.00000000e+00  0.00000000e+00
  0.00000000e+00  1.17355293e-07 -1.09559842e-26  9.97466435e-03
  0.00000000e+00  0.00000000e+00  0.00000000e+00 -2.01339468e-21
  0.00000000e+00  0.00000000e+00  0.00000000e+00  0.00000000e+00
  0.00000000e+00  0.00000000e+00  0.00000000e+00  0.00000000e+00
  0.00000000e+00  0.00000000e+00  0.00000000e+00  0.00000000e+00
  0.00000000e+00  0.00000000e+00  0.00000000e+00  0.00000000e+00
  0.00000000e+00  0.00000000e+00  1.17355293e-07 -2.01339468e-21
  0.00000000e+00  0.00000000e+00  0.00000000e+00  9.97704789e-03]"
1786901320.4223518,-2.001007706036697e-19,-1.3094853138605894e-46,0.0,"[ 9.97458019e-03 -1.07534632e-26  0.00000000e+00  0.00000000e+00
  0.00000000e+00  1.18173113e-07 -1.07534632e-26  9.97446537e-03
  0.00000000e+00  0.00000000e+00  0.00000000e+00 -1.99611663e-21
  0.00000000e+00  0.00000000e+00  0.00000000e+00  0.00000000e+00
  0.00000000e+00  0.00000000e+00  0.00000000e+00  0.00000000e+00
  0.00000000e+00  0.00000000e+00  0.00000000e+00  0.00000000e+00
  0.00000000e+00  0.00000000e+00  0.00000000e+00  0.00000000e+00
  0.00000000e+00  0.00000000e+00  1.18173113e-07 -1.99611663e-21
  0.00000000e+00  0.00000000e+00  0.00000000e+00  9.97686552e-03]"
1786901320.4795127,-1.9963349894884106e-19,-1.3308293171529722e-46,0.0,"[ 9.97448110e-03 -1.06980300e-26  0.00000000e+00  0.00000000e+00
  0.00000000e+00  1.18583707e-07 -1.06980300e-26  9.97436588e-03
  0.00000000e+00  0.00000000e+00  0.00000000e+00 -1.99143486e-21
  0.00000000e+00  0.00000000e+00  0.00000000e+00  0.00000000e+00
  0.00000000e+00  0.00000000e+00  0.00000000e+00  0.00000000e+00
  0.00000000e+00  0.00000000e+00  0.00000000e+00  0.00000000e+00
  0.00000000e+00  0.00000000e+00  0.00000000e+00  0.00000000e+00
  0.00000000e+00  0.00000000e+00  1.18583707e-07 -1.99143486e-21
  0.00000000e+00  0.00000000e+00  0.00000000e+00  9.97677437e-03]"
1786901320.5236568,-2.0040224245465329e-19,-1.3524376049614482e-46,0.0,"[ 9.97438210e-03 -1.07889742e-26  0.00000000e+00  0.00000000e+00
  0.00000000e+00  1.19079658e-07 -1.07889742e-26  9.97426639e-03
  0.00000000e+00  0.00000000e+00  0.00000000e+00 -1.99908450e-21
  0.00000000e+00  0.00000000e+00  0.00000000e+00  0.00000000e+00
  0.00000000e+00  0.00000000e+00  0.00000000e+00  0.00000000e+00
  0.00000000e+00  0.00000000e+00  0.00000000e+00  0.00000000e+00
  0.00000000e+00  0.00000000e+00  0.00000000e+00  0.00000000e+00
  0.00000000e+00  0.00000000e+00  1.19079658e-07 -1.99908450e-21
  0.00000000e+00  0.00000000e+00  0.00000000e+00  9.97668495e-03]"
1786901320.587979,-2.0186862072983207e-19,-1.3956988958590442e-46,0.0,"[ 9.97418401e-03 -1.09642018e-26  0.00000000e+00  0.00000000e+00
  0.00000000e+00  1.19985058e-07 -1.09642018e-26  9.97406742e-03
  0.00000000e+00  0.00000000e+00  0.00000000e+00 -2.01367394e-21
  0.00000000e+00  0.00000000e+00  0.00000000e+00  0.00000000e+00
  0.00000000e+00  0.00000000e+00  0.00000000e+00  0.00000000e+00
  0.00000000e+00  0.00000000e+00  0.00000000e+00  0.00000000e+00
  0.00000000e+00  0.00000000e+00  0.00000000e+00  0.00000000e+00
  0.00000000e+00  0.00000000e+00  1.19985058e-07 -2.01367394e-21
  0.00000000e+00  0.00000000e+00  0.00000000e+00  9.97650437e-03]"
1786901320.6256878,-2.0682258346769757e-19,-1.4195905372071019e-46,0.0,"[ 9.97408484e-03 -1.15583720e-26  0.00000000e+00  0.00000000e+00
  0.00000000e+00  1.20308144e-07 -1.15583720e-26  9.97396794e-03
  0.00000000e+00  0.00000000e+00  0.00000000e+00 -2.06307660e-21
  0.00000000e+00  0.00000000e+00  0.00000000e+00  0.00000000e+00
  0.00000000e+00  0.00000000e+00  0.00000000e+00  0.00000000e+00
  0.00000000e+00  0.00000000e+00  0.00000000e+00  0.00000000e+00
  0.00000000e+00  0.00000000e+00  0.00000000e+00  0.00000000e+00
  0.00000000e+00  0.00000000e+00  1.20308144e-07 -2.06307660e-21
  0.00000000e+00  0.00000000e+00  0.00000000e+00  9.97641145e-03]"
1786901320.6766565,-2.0909697145254282e-19,-1.4675825638315114e-46,0.0,"[ 9.97388677e-03 -1.18332550e-26  0.00000000e+00  0.00000000e+00
  0.00000000e+00  1.21220361e-07 -1.18332550e-26  9.97376899e-03
  0.00000000e+00  0.00000000e+00  0.00000000e+00 -2.08572525e-21
  0.00000000e+00  0.00000000e+00  0.00000000e+00  0.00000000e+00
  0.00000000e+00  0.00000000e+00  0.00000000e+00  0.00000000e+00
  0.00000000e+00  0.00000000e+00  0.00000000e+00  0.00000000e+00
  0.00000000e+00  0.00000000e+00  0.00000000e+00  0.00000000e+00
  0.00000000e+00  0.00000000e+00  1.21220361e-07 -2.08572525e-21
  0.00000000e+00  0.00000000e+00  0.00000000e+00  9.97623103e-03]"
1786901320.722321,-2.1146312351977559e-19,-1.493197170728916e-46,0.0,"[ 9.97378765e-03 -1.21198382e-26  0.00000000e+00  0.00000000e+00
  0.00000000e+00  1.21586279e-07 -1.21198382e-26  9.97366951e-03
  0.00000000e+00  0.00000000e+00  0.00000000e+00 -2.10930949e-21
  0.00000000e+00  0.00000000e+00  0.00000000e+00  0.00000000e+00
  0.00000000e+00  0.00000000e+00  0.00000000e+00  0.00000000e+00
  0.00000000e+00  0.00000000e+00  0.00000000e+00  0.00000000e+00
  0.00000000e+00  0.00000000e+00  0.00000000e+00  0.00000000e+00
  0.00000000e+00  0.00000000e+00  1.21586279e-07 -2.10930949e-21
  0.00000000e+00  0.00000000e+00  0.00000000e+00  9.97613898e-03]"
1786901320.7774525,-2.0199078227965445e-19,-1.538054991994966e-46,0.0,"[ 9.97358964e-03 -1.09669726e-26  0.00000000e+00  0.00000000e+00
  0.00000000e+00  1.22545917e-07 -1.09669726e-26  9.97347057e-03
  0.00000000e+00  0.00000000e+00  0.00000000e+00 -2.01477189e-21
  0.00000000e+00  0.00000000e+00  0.00000000e+00  0.00000000e+00
  0.00000000e+00  0.00000000e+00  0.00000000e+00  0.00000000e+00
  0.00000000e+00  0.00000000e+00  0.00000000e+00  0.00000000e+00
  0.00000000e+00  0.00000000e+00  0.00000000e+00  0.00000000e+00
  0.00000000e+00  0.00000000e+00  1.22545917e-07 -2.01477189e-21
  0.00000000e+00  0.00000000e+00  0.00000000e+00  9.97595953e-03]"
1786901320.8358755,-2.013677836752943e-19,-1.559969644571834e-46,0.0,"[ 9.97349077e-03 -1.08904081e-26  0.00000000e+00  0.00000000e+00
  0.00000000e+00  1.23166453e-07 -1.08904081e-26  9.97337110e-03
  0.00000000e+00  0.00000000e+00  0.00000000e+00 -2.00853685e-21
  0.00000000e+00  0.00000000e+00  0.00000000e+00  0.00000000e+00
  0.00000000e+00  0.00000000e+00  0.00000000e+00  0.00000000e+00
  0.00000000e+00  0.00000000e+00  0.00000000e+00  0.00000000e+00
  0.00000000e+00  0.00000000e+00  0.00000000e+00  0.00000000e+00
  0.00000000e+00  0.00000000e+00  1.23166453e-07 -2.00853685e-21
  0.00000000e+00  0.00000000e+00  0.00000000e+00  9.97587266e-03]"
1786901320.8760614,-2.016668197639828e-19,-1.603875316157547e-46,0.0,"[ 9.97329243e-03 -1.09269221e-26  0.00000000e+00  0.00000000e+00
  0.00000000e+00  1.23768254e-07 -1.09269221e-26  9.97317217e-03
  0.00000000e+00  0.00000000e+00  0.00000000e+00 -2.01147987e-21
  0.00000000e+00  0.00000000e+00  0.00000000e+00  0.00000000e+00
  0.00000000e+00  0.00000000e+00  0.00000000e+00  0.00000000e+00
  0.00000000e+00  0.00000000e+00  0.00000000e+00  0.00000000e+00
  0.00000000e+00  0.00000000e+00  0.00000000e+00  0.00000000e+00
  0.00000000e+00  0.00000000e+00  1.23768254e-07 -2.01147987e-21
  0.00000000e+00  0.00000000e+00  0.00000000e+00  9.97568595e-03]"
1786901320.9249623,-2.0074144063193226e-19,-1.6255640486082936e-46,0.0,"[ 9.97319342e-03 -1.08121729e-26  0.00000000e+00  0.00000000e+00
  0.00000000e+00  1.24243032e-07 -1.08121729e-26  9.97307270e-03
  0.00000000e+00  0.00000000e+00  0.00000000e+00 -2.00222861e-21
  0.00000000e+00  0.00000000e+00  0.00000000e+00  0.00000000e+00
  0.00000000e+00  0.00000000e+00  0.00000000e+00  0.00000000e+00
  0.00000000e+00  0.00000000e+00  0.00000000e+00  0.00000000e+00
  0.00000000e+00  0.00000000e+00  0.00000000e+00  0.00000000e+00
  0.00000000e+00  0.00000000e+00  1.24243032e-07 -2.00222861e-21
  0.00000000e+00  0.00000000e+00  0.00000000e+00  9.97559613e-03]"
1786901320.9735637,-1.904638662371436e-19,-1.6638528706685551e-46,0.0,"[ 9.97299563e-03 -9.53080541e-27  0.00000000e+00  0.00000000e+00
  0.00000000e+00  1.25404807e-07 -9.53080541e-27  9.97287378e-03
  0.00000000e+00  0.00000000e+00  0.00000000e+00 -1.89966570e-21
  0.00000000e+00  0.00000000e+00  0.00000000e+00  0.00000000e+00
  0.00000000e+00  0.00000000e+00  0.00000000e+00  0.00000000e+00
  0.00000000e+00  0.00000000e+00  0.00000000e+00  0.00000000e+00
  0.00000000e+00  0.00000000e+00  0.00000000e+00  0.00000000e+00
  0.00000000e+00  0.00000000e+00  1.25404807e-07 -1.89966570e-21
  0.00000000e+00  0.00000000e+00  0.00000000e+00  9.97542081e-03]"
1786901321.0238082,-1.9483162686129548e-19,-1.6834722713293313e-46,0.0,"[ 9.97289634e-03 -1.00783422e-26  0.00000000e+00  0.00000000e+00
  0.00000000e+00  1.25578300e-07 -1.00783422e-26  9.97277433e-03
  0.00000000e+00  0.00000000e+00  0.00000000e+00 -1.94321657e-21
  0.00000000e+00  0.00000000e+00  0.00000000e+00  0.00000000e+00
  0.00000000e+00  0.00000000e+00  0.00000000e+00  0.00000000e+00
  0.00000000e+00  0.00000000e+00  0.00000000e+00  0.00000000e+00
  0.00000000e+00  0.00000000e+00  0.00000000e+00  0.00000000e+00
  0.00000000e+00  0.00000000e+00  1.25578300e-07 -1.94321657e-21
  0.00000000e+00  0.00000000e+00  0.00000000e+00  9.97532488e-03]"
1786901321.0883768,-1.9879280195714315e-19,-1.723589901751412e-46,0.0,"[ 9.97269825e-03 -1.05777041e-26  0.00000000e+00  0.00000000e+00
