time,x,y,yaw,cov_prop,K_gain,innovation,v_ekf,omega_ekf
1787304793.1765835,1.3447519759622832,-0.6230290041724508,0.3589690386530733,"[ 4.67515472e-05 -1.33060083e-06  0.00000000e+00  0.00000000e+00
  0.00000000e+00 -4.30017932e-06 -1.33060083e-06  3.84192384e-05
  0.00000000e+00  0.00000000e+00  0.00000000e+00  8.68820277e-07
  0.00000000e+00  0.00000000e+00  0.00000000e+00  0.00000000e+00
  0.00000000e+00  0.00000000e+00  0.00000000e+00  0.00000000e+00
  0.00000000e+00  0.00000000e+00  0.00000000e+00  0.00000000e+00
  0.00000000e+00  0.00000000e+00  0.00000000e+00  0.00000000e+00
  0.00000000e+00  0.00000000e+00 -4.30017932e-06  8.68820277e-07
  0.00000000e+00  0.00000000e+00  0.00000000e+00  3.96526044e-06]","[[-1.16385243e-03  9.45594450e-03]
 [-3.18588257e-05 -2.14738300e-02]]",[],0.0,0.0
1787304793.2546544,1.3447519759622832,-0.6230290041724508,0.3589690386530733,"[ 4.67515472e-05 -1.33060083e-06  0.00000000e+00  0.00000000e+00
  0.00000000e+00 -4.30017932e-06 -1.33060083e-06  3.84192384e-05
  0.00000000e+00  0.00000000e+00  0.00000000e+00  8.68820277e-07
  0.00000000e+00  0.00000000e+00  0.00000000e+00  0.00000000e+00
  0.00000000e+00  0.00000000e+00  0.00000000e+00  0.00000000e+00
  0.00000000e+00  0.00000000e+00  0.00000000e+00  0.00000000e+00
  0.00000000e+00  0.00000000e+00  0.00000000e+00  0.00000000e+00
  0.00000000e+00  0.00000000e+00 -4.30017932e-06  8.68820277e-07
  0.00000000e+00  0.00000000e+00  0.00000000e+00  3.96526044e-06]","[[-1.16385243e-03  9.45594450e-03]
 [-3.18588257e-05 -2.14738300e-02]]",[],0.0,0.0
1787304793.3212485,1.3447519759622832,-0.6230290041724508,0.3589690386530733,"[ 4.67515472e-05 -1.33060083e-06  0.00000000e+00  0.00000000e+00
  0.00000000e+00 -4.30017932e-06 -1.33060083e-06  3.84192384e-05
  0.00000000e+00  0.00000000e+00  0.00000000e+00  8.68820277e-07
  0.00000000e+00  0.00000000e+00  0.00000000e+00  0.00000000e+00
  0.00000000e+00  0.00000000e+00  0.00000000e+00  0.00000000e+00
  0.00000000e+00  0.00000000e+00  0.00000000e+00  0.00000000e+00
  0.00000000e+00  0.00000000e+00  0.00000000e+00  0.00000000e+00
  0.00000000e+00  0.00000000e+00 -4.30017932e-06  8.68820277e-07
  0.00000000e+00  0.00000000e+00  0.00000000e+00  3.96526044e-06]","[[-1.16385243e-03  9.45594450e-03]
 [-3.18588257e-05 -2.14738300e-02]]",[],0.0,0.0
1787304793.328508,1.3447519759622832,-0.6230290041724508,0.3589690386530733,"[ 4.67515472e-05 -1.33060083e-06  0.00000000e+00  0.00000000e+00
  0.00000000e+00 -4.30017932e-06 -1.33060083e-06  3.84192384e-05
  0.00000000e+00  0.00000000e+00  0.00000000e+00  8.68820277e-07
  0.00000000e+00  0.00000000e+00  0.00000000e+00  0.00000000e+00
  0.00000000e+00  0.00000000e+00  0.00000000e+00  0.00000000e+00
  0.00000000e+00  0.00000000e+00  0.00000000e+00  0.00000000e+00
  0.00000000e+00  0.00000000e+00  0.00000000e+00  0.00000000e+00
  0.00000000e+00  0.00000000e+00 -4.30017932e-06  8.68820277e-07
  0.00000000e+00  0.00000000e+00  0.00000000e+00  3.96526044e-06]","[[-1.16385243e-03  9.45594450e-03]
 [-3.18588257e-05 -2.14738300e-02]]",[],0.0,0.0
1787304793.3886647,1.3447519759622832,-0.6230290041724508,0.3589690386530733,"[ 4.67515472e-05 -1.33060083e-06  0.00000000e+00  0.00000000e+00
  0.00000000e+00 -4.30017932e-06 -1.33060083e-06  3.84192384e-05
  0.00000000e+00  0.00000000e+00  0.00000000e+00  8.68820277e-07
  0.00000000e+00  0.00000000e+00  0.00000000e+00  0.00000000e+00
  0.00000000e+00  0.00000000e+00  0.00000000e+00  0.00000000e+00
  0.00000000e+00  0.00000000e+00  0.00000000e+00  0.00000000e+00
  0.00000000e+00  0.00000000e+00  0.00000000e+00  0.00000000e+00
  0.00000000e+00  0.00000000e+00 -4.30017932e-06  8.68820277e-07
  0.00000000e+00  0.00000000e+00  0.00000000e+00  3.96526044e-06]","[[-1.16385243e-03  9.45594450e-03]
 [-3.18588257e-05 -2.14738300e-02]]",[],0.0,0.0
1787304793.4286175,1.3447519759622832,-0.6230290041724508,0.3589690386530733,"[ 4.67515472e-05 -1.33060083e-06  0.00000000e+00  0.00000000e+00
  0.00000000e+00 -4.30017932e-06 -1.33060083e-06  3.84192384e-05
  0.00000000e+00  0.00000000e+00  0.00000000e+00  8.68820277e-07
  0.00000000e+00  0.00000000e+00  0.00000000e+00  0.00000000e+00
  0.00000000e+00  0.00000000e+00  0.00000000e+00  0.00000000e+00
  0.00000000e+00  0.00000000e+00  0.00000000e+00  0.00000000e+00
  0.00000000e+00  0.00000000e+00  0.00000000e+00  0.00000000e+00
  0.00000000e+00  0.00000000e+00 -4.30017932e-06  8.68820277e-07
  0.00000000e+00  0.00000000e+00  0.00000000e+00  3.96526044e-06]","[[-1.16385243e-03  9.45594450e-03]
 [-3.18588257e-05 -2.14738300e-02]]",[],0.0,0.0
1787304793.973275,1.3447519759622832,-0.6230290041724508,0.3589690386530733,"[ 4.67515472e-05 -1.33060083e-06  0.00000000e+00  0.00000000e+00
  0.00000000e+00 -4.30017932e-06 -1.33060083e-06  3.84192384e-05
  0.00000000e+00  0.00000000e+00  0.00000000e+00  8.68820277e-07
  0.00000000e+00  0.00000000e+00  0.00000000e+00  0.00000000e+00
  0.00000000e+00  0.00000000e+00  0.00000000e+00  0.00000000e+00
  0.00000000e+00  0.00000000e+00  0.00000000e+00  0.00000000e+00
  0.00000000e+00  0.00000000e+00  0.00000000e+00  0.00000000e+00
  0.00000000e+00  0.00000000e+00 -4.30017932e-06  8.68820277e-07
  0.00000000e+00  0.00000000e+00  0.00000000e+00  3.96526044e-06]","[[-1.16385243e-03  9.45594450e-03]
 [-3.18588257e-05 -2.14738300e-02]]",[],0.0,0.0
1787304793.9859178,1.3447519759622832,-0.6230290041724508,0.3589690386530733,"[ 4.67515472e-05 -1.33060083e-06  0.00000000e+00  0.00000000e+00
  0.00000000e+00 -4.30017932e-06 -1.33060083e-06  3.84192384e-05
  0.00000000e+00  0.00000000e+00  0.00000000e+00  8.68820277e-07
  0.00000000e+00  0.00000000e+00  0.00000000e+00  0.00000000e+00
  0.00000000e+00  0.00000000e+00  0.00000000e+00  0.00000000e+00
  0.00000000e+00  0.00000000e+00  0.00000000e+00  0.00000000e+00
  0.00000000e+00  0.00000000e+00  0.00000000e+00  0.00000000e+00
  0.00000000e+00  0.00000000e+00 -4.30017932e-06  8.68820277e-07
  0.00000000e+00  0.00000000e+00  0.00000000e+00  3.96526044e-06]","[[-1.16385243e-03  9.45594450e-03]
 [-3.18588257e-05 -2.14738300e-02]]",[],0.0,0.0
1787304794.028182,1.3447519759622832,-0.6230290041724508,0.3589690386530733,"[ 4.67515472e-05 -1.33060083e-06  0.00000000e+00  0.00000000e+00
  0.00000000e+00 -4.30017932e-06 -1.33060083e-06  3.84192384e-05
  0.00000000e+00  0.00000000e+00  0.00000000e+00  8.68820277e-07
  0.00000000e+00  0.00000000e+00  0.00000000e+00  0.00000000e+00
  0.00000000e+00  0.00000000e+00  0.00000000e+00  0.00000000e+00
  0.00000000e+00  0.00000000e+00  0.00000000e+00  0.00000000e+00
  0.00000000e+00  0.00000000e+00  0.00000000e+00  0.00000000e+00
  0.00000000e+00  0.00000000e+00 -4.30017932e-06  8.68820277e-07
  0.00000000e+00  0.00000000e+00  0.00000000e+00  3.96526044e-06]","[[-1.16385243e-03  9.45594450e-03]
 [-3.18588257e-05 -2.14738300e-02]]",[],0.0,0.0
1787304794.0776124,1.3745592814472727,-0.5809672104898731,0.3612602121765107,"[ 2.25107754e-05 -1.23309248e-06  0.00000000e+00  0.00000000e+00
  0.00000000e+00 -1.52244583e-06 -1.23309248e-06  1.97281364e-05
  0.00000000e+00  0.00000000e+00  0.00000000e+00  1.97658396e-07
  0.00000000e+00  0.00000000e+00  0.00000000e+00  0.00000000e+00
  0.00000000e+00  0.00000000e+00  0.00000000e+00  0.00000000e+00
  0.00000000e+00  0.00000000e+00  0.00000000e+00  0.00000000e+00
  0.00000000e+00  0.00000000e+00  0.00000000e+00  0.00000000e+00
  0.00000000e+00  0.00000000e+00 -1.52244583e-06  1.97658396e-07
  0.00000000e+00  0.00000000e+00  0.00000000e+00  3.00497820e-06]","[[-0.00052677  0.0067989 ]
 [-0.00012054 -0.010563  ]]",[],0.0,0.0
1787304794.1281834,1.3745592814472727,-0.5809672104898731,0.3612602121765107,"[ 2.25107754e-05 -1.23309248e-06  0.00000000e+00  0.00000000e+00
  0.00000000e+00 -1.52244583e-06 -1.23309248e-06  1.97281364e-05
  0.00000000e+00  0.00000000e+00  0.00000000e+00  1.97658396e-07
  0.00000000e+00  0.00000000e+00  0.00000000e+00  0.00000000e+00
  0.00000000e+00  0.00000000e+00  0.00000000e+00  0.00000000e+00
  0.00000000e+00  0.00000000e+00  0.00000000e+00  0.00000000e+00
  0.00000000e+00  0.00000000e+00  0.00000000e+00  0.00000000e+00
  0.00000000e+00  0.00000000e+00 -1.52244583e-06  1.97658396e-07
  0.00000000e+00  0.00000000e+00  0.00000000e+00  3.00497820e-06]","[[-0.00052677  0.0067989 ]
 [-0.00012054 -0.010563  ]]",[],0.0,0.0
1787304794.179591,1.3745592814472727,-0.5809672104898731,0.3612602121765107,"[ 2.25107754e-05 -1.23309248e-06  0.00000000e+00  0.00000000e+00
  0.00000000e+00 -1.52244583e-06 -1.23309248e-06  1.97281364e-05
  0.00000000e+00  0.00000000e+00  0.00000000e+00  1.97658396e-07
  0.00000000e+00  0.00000000e+00  0.00000000e+00  0.00000000e+00
  0.00000000e+00  0.00000000e+00  0.00000000e+00  0.00000000e+00
  0.00000000e+00  0.00000000e+00  0.00000000e+00  0.00000000e+00
  0.00000000e+00  0.00000000e+00  0.00000000e+00  0.00000000e+00
  0.00000000e+00  0.00000000e+00 -1.52244583e-06  1.97658396e-07
  0.00000000e+00  0.00000000e+00  0.00000000e+00  3.00497820e-06]","[[-0.00052677  0.0067989 ]
 [-0.00012054 -0.010563  ]]",[],0.0,0.0
1787304794.2320576,1.3745592814472727,-0.5809672104898731,0.3612602121765107,"[ 2.25107754e-05 -1.23309248e-06  0.00000000e+00  0.00000000e+00
  0.00000000e+00 -1.52244583e-06 -1.23309248e-06  1.97281364e-05
  0.00000000e+00  0.00000000e+00  0.00000000e+00  1.97658396e-07
  0.00000000e+00  0.00000000e+00  0.00000000e+00  0.00000000e+00
  0.00000000e+00  0.00000000e+00  0.00000000e+00  0.00000000e+00
  0.00000000e+00  0.00000000e+00  0.00000000e+00  0.00000000e+00
  0.00000000e+00  0.00000000e+00  0.00000000e+00  0.00000000e+00
  0.00000000e+00  0.00000000e+00 -1.52244583e-06  1.97658396e-07
  0.00000000e+00  0.00000000e+00  0.00000000e+00  3.00497820e-06]","[[-0.00052677  0.0067989 ]
 [-0.00012054 -0.010563  ]]",[],0.0,0.0
1787304794.2768025,1.3745592814472727,-0.5809672104898731,0.3612602121765107,"[ 2.25107754e-05 -1.23309248e-06  0.00000000e+00  0.00000000e+00
  0.00000000e+00 -1.52244583e-06 -1.23309248e-06  1.97281364e-05
  0.00000000e+00  0.00000000e+00  0.00000000e+00  1.97658396e-07
  0.00000000e+00  0.00000000e+00  0.00000000e+00  0.00000000e+00
  0.00000000e+00  0.00000000e+00  0.00000000e+00  0.00000000e+00
  0.00000000e+00  0.00000000e+00  0.00000000e+00  0.00000000e+00
  0.00000000e+00  0.00000000e+00  0.00000000e+00  0.00000000e+00
  0.00000000e+00  0.00000000e+00 -1.52244583e-06  1.97658396e-07
  0.00000000e+00  0.00000000e+00  0.00000000e+00  3.00497820e-06]","[[-0.00052677  0.0067989 ]
 [-0.00012054 -0.010563  ]]",[],0.0,0.0
1787304794.3429334,1.3745592814472727,-0.5809672104898731,0.3612602121765107,"[ 2.25107754e-05 -1.23309248e-06  0.00000000e+00  0.00000000e+00
  0.00000000e+00 -1.52244583e-06 -1.23309248e-06  1.97281364e-05
  0.00000000e+00  0.00000000e+00  0.00000000e+00  1.97658396e-07
  0.00000000e+00  0.00000000e+00  0.00000000e+00  0.00000000e+00
  0.00000000e+00  0.00000000e+00  0.00000000e+00  0.00000000e+00
  0.00000000e+00  0.00000000e+00  0.00000000e+00  0.00000000e+00
  0.00000000e+00  0.00000000e+00  0.00000000e+00  0.00000000e+00
  0.00000000e+00  0.00000000e+00 -1.52244583e-06  1.97658396e-07
  0.00000000e+00  0.00000000e+00  0.00000000e+00  3.00497820e-06]","[[-0.00052677  0.0067989 ]
 [-0.00012054 -0.010563  ]]",[],0.0,0.0
1787304794.3766558,1.3745592814472727,-0.5809672104898731,0.3612602121765107,"[ 2.25107754e-05 -1.23309248e-06  0.00000000e+00  0.00000000e+00
  0.00000000e+00 -1.52244583e-06 -1.23309248e-06  1.97281364e-05
  0.00000000e+00  0.00000000e+00  0.00000000e+00  1.97658396e-07
  0.00000000e+00  0.00000000e+00  0.00000000e+00  0.00000000e+00
  0.00000000e+00  0.00000000e+00  0.00000000e+00  0.00000000e+00
  0.00000000e+00  0.00000000e+00  0.00000000e+00  0.00000000e+00
  0.00000000e+00  0.00000000e+00  0.00000000e+00  0.00000000e+00
  0.00000000e+00  0.00000000e+00 -1.52244583e-06  1.97658396e-07
  0.00000000e+00  0.00000000e+00  0.00000000e+00  3.00497820e-06]","[[-0.00052677  0.0067989 ]
 [-0.00012054 -0.010563  ]]",[],0.0,0.0
1787304794.4307468,1.3745592814472727,-0.5809672104898731,0.3612602121765107,"[ 2.25107754e-05 -1.23309248e-06  0.00000000e+00  0.00000000e+00
  0.00000000e+00 -1.52244583e-06 -1.23309248e-06  1.97281364e-05
  0.00000000e+00  0.00000000e+00  0.00000000e+00  1.97658396e-07
  0.00000000e+00  0.00000000e+00  0.00000000e+00  0.00000000e+00
  0.00000000e+00  0.00000000e+00  0.00000000e+00  0.00000000e+00
  0.00000000e+00  0.00000000e+00  0.00000000e+00  0.00000000e+00
  0.00000000e+00  0.00000000e+00  0.00000000e+00  0.00000000e+00
  0.00000000e+00  0.00000000e+00 -1.52244583e-06  1.97658396e-07
  0.00000000e+00  0.00000000e+00  0.00000000e+00  3.00497820e-06]","[[-0.00052677  0.0067989 ]
 [-0.00012054 -0.010563  ]]",[],0.0,0.0
1787304794.477289,1.3745592814472727,-0.5809672104898731,0.3612602121765107,"[ 2.25107754e-05 -1.23309248e-06  0.00000000e+00  0.00000000e+00
  0.00000000e+00 -1.52244583e-06 -1.23309248e-06  1.97281364e-05
  0.00000000e+00  0.00000000e+00  0.00000000e+00  1.97658396e-07
  0.00000000e+00  0.00000000e+00  0.00000000e+00  0.00000000e+00
  0.00000000e+00  0.00000000e+00  0.00000000e+00  0.00000000e+00
  0.00000000e+00  0.00000000e+00  0.00000000e+00  0.00000000e+00
  0.00000000e+00  0.00000000e+00  0.00000000e+00  0.00000000e+00
  0.00000000e+00  0.00000000e+00 -1.52244583e-06  1.97658396e-07
  0.00000000e+00  0.00000000e+00  0.00000000e+00  3.00497820e-06]","[[-0.00052677  0.0067989 ]
 [-0.00012054 -0.010563  ]]",[],0.0,0.0
1787304794.5324025,1.3745592814472727,-0.5809672104898731,0.3612602121765107,"[ 2.25107754e-05 -1.23309248e-06  0.00000000e+00  0.00000000e+00
  0.00000000e+00 -1.52244583e-06 -1.23309248e-06  1.97281364e-05
  0.00000000e+00  0.00000000e+00  0.00000000e+00  1.97658396e-07
  0.00000000e+00  0.00000000e+00  0.00000000e+00  0.00000000e+00
  0.00000000e+00  0.00000000e+00  0.00000000e+00  0.00000000e+00
  0.00000000e+00  0.00000000e+00  0.00000000e+00  0.00000000e+00
  0.00000000e+00  0.00000000e+00  0.00000000e+00  0.00000000e+00
  0.00000000e+00  0.00000000e+00 -1.52244583e-06  1.97658396e-07
  0.00000000e+00  0.00000000e+00  0.00000000e+00  3.00497820e-06]","[[-0.00052677  0.0067989 ]
 [-0.00012054 -0.010563  ]]",[],0.0,0.0
1787304794.5844553,1.3745592814472727,-0.5809672104898731,0.3612602121765107,"[ 2.25107754e-05 -1.23309248e-06  0.00000000e+00  0.00000000e+00
  0.00000000e+00 -1.52244583e-06 -1.23309248e-06  1.97281364e-05
  0.00000000e+00  0.00000000e+00  0.00000000e+00  1.97658396e-07
  0.00000000e+00  0.00000000e+00  0.00000000e+00  0.00000000e+00
  0.00000000e+00  0.00000000e+00  0.00000000e+00  0.00000000e+00
  0.00000000e+00  0.00000000e+00  0.00000000e+00  0.00000000e+00
  0.00000000e+00  0.00000000e+00  0.00000000e+00  0.00000000e+00
  0.00000000e+00  0.00000000e+00 -1.52244583e-06  1.97658396e-07
  0.00000000e+00  0.00000000e+00  0.00000000e+00  3.00497820e-06]","[[-0.00052677  0.0067989 ]
 [-0.00012054 -0.010563  ]]",[],0.0,0.0
1787304794.638541,1.3745592814472727,-0.5809672104898731,0.3612602121765107,"[ 2.25107754e-05 -1.23309248e-06  0.00000000e+00  0.00000000e+00
  0.00000000e+00 -1.52244583e-06 -1.23309248e-06  1.97281364e-05
  0.00000000e+00  0.00000000e+00  0.00000000e+00  1.97658396e-07
  0.00000000e+00  0.00000000e+00  0.00000000e+00  0.00000000e+00
  0.00000000e+00  0.00000000e+00  0.00000000e+00  0.00000000e+00
  0.00000000e+00  0.00000000e+00  0.00000000e+00  0.00000000e+00
  0.00000000e+00  0.00000000e+00  0.00000000e+00  0.00000000e+00
  0.00000000e+00  0.00000000e+00 -1.52244583e-06  1.97658396e-07
  0.00000000e+00  0.00000000e+00  0.00000000e+00  3.00497820e-06]","[[-0.00052677  0.0067989 ]
 [-0.00012054 -0.010563  ]]",[],0.0,0.0
1787304794.6814048,1.3745592814472727,-0.5809672104898731,0.3612602121765107,"[ 2.25107754e-05 -1.23309248e-06  0.00000000e+00  0.00000000e+00
  0.00000000e+00 -1.52244583e-06 -1.23309248e-06  1.97281364e-05
  0.00000000e+00  0.00000000e+00  0.00000000e+00  1.97658396e-07
  0.00000000e+00  0.00000000e+00  0.00000000e+00  0.00000000e+00
  0.00000000e+00  0.00000000e+00  0.00000000e+00  0.00000000e+00
  0.00000000e+00  0.00000000e+00  0.00000000e+00  0.00000000e+00
  0.00000000e+00  0.00000000e+00  0.00000000e+00  0.00000000e+00
  0.00000000e+00  0.00000000e+00 -1.52244583e-06  1.97658396e-07
  0.00000000e+00  0.00000000e+00  0.00000000e+00  3.00497820e-06]","[[-0.00052677  0.0067989 ]
 [-0.00012054 -0.010563  ]]",[],0.0,0.0
1787304794.7273717,1.3745592814472727,-0.5809672104898731,0.3612602121765107,"[ 2.25107754e-05 -1.23309248e-06  0.00000000e+00  0.00000000e+00
  0.00000000e+00 -1.52244583e-06 -1.23309248e-06  1.97281364e-05
  0.00000000e+00  0.00000000e+00  0.00000000e+00  1.97658396e-07
  0.00000000e+00  0.00000000e+00  0.00000000e+00  0.00000000e+00
  0.00000000e+00  0.00000000e+00  0.00000000e+00  0.00000000e+00
  0.00000000e+00  0.00000000e+00  0.00000000e+00  0.00000000e+00
  0.00000000e+00  0.00000000e+00  0.00000000e+00  0.00000000e+00
  0.00000000e+00  0.00000000e+00 -1.52244583e-06  1.97658396e-07
  0.00000000e+00  0.00000000e+00  0.00000000e+00  3.00497820e-06]","[[-0.00052677  0.0067989 ]
 [-0.00012054 -0.010563  ]]",[],0.0,0.0
1787304794.777889,1.3745592814472727,-0.5809672104898731,0.3612602121765107,"[ 2.25107754e-05 -1.23309248e-06  0.00000000e+00  0.00000000e+00
  0.00000000e+00 -1.52244583e-06 -1.23309248e-06  1.97281364e-05
  0.00000000e+00  0.00000000e+00  0.00000000e+00  1.97658396e-07
  0.00000000e+00  0.00000000e+00  0.00000000e+00  0.00000000e+00
  0.00000000e+00  0.00000000e+00  0.00000000e+00  0.00000000e+00
  0.00000000e+00  0.00000000e+00  0.00000000e+00  0.00000000e+00
  0.00000000e+00  0.00000000e+00  0.00000000e+00  0.00000000e+00
  0.00000000e+00  0.00000000e+00 -1.52244583e-06  1.97658396e-07
  0.00000000e+00  0.00000000e+00  0.00000000e+00  3.00497820e-06]","[[-0.00052677  0.0067989 ]
 [-0.00012054 -0.010563  ]]",[],0.0,0.0
1787304794.8286765,1.3745592814472727,-0.5809672104898731,0.3612602121765107,"[ 2.25107754e-05 -1.23309248e-06  0.00000000e+00  0.00000000e+00
  0.00000000e+00 -1.52244583e-06 -1.23309248e-06  1.97281364e-05
  0.00000000e+00  0.00000000e+00  0.00000000e+00  1.97658396e-07
  0.00000000e+00  0.00000000e+00  0.00000000e+00  0.00000000e+00
  0.00000000e+00  0.00000000e+00  0.00000000e+00  0.00000000e+00
  0.00000000e+00  0.00000000e+00  0.00000000e+00  0.00000000e+00
  0.00000000e+00  0.00000000e+00  0.00000000e+00  0.00000000e+00
  0.00000000e+00  0.00000000e+00 -1.52244583e-06  1.97658396e-07
  0.00000000e+00  0.00000000e+00  0.00000000e+00  3.00497820e-06]","[[-0.00052677  0.0067989 ]
 [-0.00012054 -0.010563  ]]",[],0.0,0.0
1787304794.879072,1.3745592814472727,-0.5809672104898731,0.3612602121765107,"[ 2.25107754e-05 -1.23309248e-06  0.00000000e+00  0.00000000e+00
  0.00000000e+00 -1.52244583e-06 -1.23309248e-06  1.97281364e-05
  0.00000000e+00  0.00000000e+00  0.00000000e+00  1.97658396e-07
  0.00000000e+00  0.00000000e+00  0.00000000e+00  0.00000000e+00
  0.00000000e+00  0.00000000e+00  0.00000000e+00  0.00000000e+00
  0.00000000e+00  0.00000000e+00  0.00000000e+00  0.00000000e+00
  0.00000000e+00  0.00000000e+00  0.00000000e+00  0.00000000e+00
  0.00000000e+00  0.00000000e+00 -1.52244583e-06  1.97658396e-07
  0.00000000e+00  0.00000000e+00  0.00000000e+00  3.00497820e-06]","[[-0.00052677  0.0067989 ]
 [-0.00012054 -0.010563  ]]",[],0.0,0.0
1787304794.9389188,1.3745592814472727,-0.5809672104898731,0.3612602121765107,"[ 2.25107754e-05 -1.23309248e-06  0.00000000e+00  0.00000000e+00
  0.00000000e+00 -1.52244583e-06 -1.23309248e-06  1.97281364e-05
  0.00000000e+00  0.00000000e+00  0.00000000e+00  1.97658396e-07
  0.00000000e+00  0.00000000e+00  0.00000000e+00  0.00000000e+00
  0.00000000e+00  0.00000000e+00  0.00000000e+00  0.00000000e+00
  0.00000000e+00  0.00000000e+00  0.00000000e+00  0.00000000e+00
  0.00000000e+00  0.00000000e+00  0.00000000e+00  0.00000000e+00
  0.00000000e+00  0.00000000e+00 -1.52244583e-06  1.97658396e-07
  0.00000000e+00  0.00000000e+00  0.00000000e+00  3.00497820e-06]","[[-0.00052677  0.0067989 ]
 [-0.00012054 -0.010563  ]]",[],0.0,0.0
1787304794.9931772,1.3745592814472727,-0.5809672104898731,0.3612602121765107,"[ 2.25107754e-05 -1.23309248e-06  0.00000000e+00  0.00000000e+00
  0.00000000e+00 -1.52244583e-06 -1.23309248e-06  1.97281364e-05
  0.00000000e+00  0.00000000e+00  0.00000000e+00  1.97658396e-07
  0.00000000e+00  0.00000000e+00  0.00000000e+00  0.00000000e+00
  0.00000000e+00  0.00000000e+00  0.00000000e+00  0.00000000e+00
  0.00000000e+00  0.00000000e+00  0.00000000e+00  0.00000000e+00
  0.00000000e+00  0.00000000e+00  0.00000000e+00  0.00000000e+00
  0.00000000e+00  0.00000000e+00 -1.52244583e-06  1.97658396e-07
  0.00000000e+00  0.00000000e+00  0.00000000e+00  3.00497820e-06]","[[-0.00052677  0.0067989 ]
 [-0.00012054 -0.010563  ]]",[],0.0,0.0
1787304795.0400891,1.3745592814472727,-0.5809672104898731,0.3612602121765107,"[ 2.25107754e-05 -1.23309248e-06  0.00000000e+00  0.00000000e+00
  0.00000000e+00 -1.52244583e-06 -1.23309248e-06  1.97281364e-05
  0.00000000e+00  0.00000000e+00  0.00000000e+00  1.97658396e-07
  0.00000000e+00  0.00000000e+00  0.00000000e+00  0.00000000e+00
  0.00000000e+00  0.00000000e+00  0.00000000e+00  0.00000000e+00
  0.00000000e+00  0.00000000e+00  0.00000000e+00  0.00000000e+00
  0.00000000e+00  0.00000000e+00  0.00000000e+00  0.00000000e+00
  0.00000000e+00  0.00000000e+00 -1.52244583e-06  1.97658396e-07
  0.00000000e+00  0.00000000e+00  0.00000000e+00  3.00497820e-06]","[[-0.00052677  0.0067989 ]
 [-0.00012054 -0.010563  ]]",[],0.0,0.0
1787304795.0810852,1.415284673530818,-0.5481381525446162,0.3734105164060968,"[ 1.54445165e-05 -9.43518126e-07  0.00000000e+00  0.00000000e+00
  0.00000000e+00 -1.09152654e-06 -9.43518126e-07  1.34196193e-05
  0.00000000e+00  0.00000000e+00  0.00000000e+00  1.32182766e-08
  0.00000000e+00  0.00000000e+00  0.00000000e+00  0.00000000e+00
  0.00000000e+00  0.00000000e+00  0.00000000e+00  0.00000000e+00
  0.00000000e+00  0.00000000e+00  0.00000000e+00  0.00000000e+00
  0.00000000e+00  0.00000000e+00  0.00000000e+00  0.00000000e+00
  0.00000000e+00  0.00000000e+00 -1.09152654e-06  1.32182766e-08
  0.00000000e+00  0.00000000e+00  0.00000000e+00  3.20988438e-06]","[[-3.62076165e-04  4.75271687e-03]
 [-7.61796618e-05 -7.11250087e-03]]",[],0.0,0.0
1787304795.1686106,1.415284673530818,-0.5481381525446162,0.3734105164060968,"[ 1.54445165e-05 -9.43518126e-07  0.00000000e+00  0.00000000e+00
  0.00000000e+00 -1.09152654e-06 -9.43518126e-07  1.34196193e-05
  0.00000000e+00  0.00000000e+00  0.00000000e+00  1.32182766e-08
  0.00000000e+00  0.00000000e+00  0.00000000e+00  0.00000000e+00
  0.00000000e+00  0.00000000e+00  0.00000000e+00  0.00000000e+00
  0.00000000e+00  0.00000000e+00  0.00000000e+00  0.00000000e+00
  0.00000000e+00  0.00000000e+00  0.00000000e+00  0.00000000e+00
  0.00000000e+00  0.00000000e+00 -1.09152654e-06  1.32182766e-08
  0.00000000e+00  0.00000000e+00  0.00000000e+00  3.20988438e-06]","[[-3.62076165e-04  4.75271687e-03]
 [-7.61796618e-05 -7.11250087e-03]]",[],0.0,0.0
1787304795.3431864,1.415284673530818,-0.5481381525446162,0.3734105164060968,"[ 1.54445165e-05 -9.43518126e-07  0.00000000e+00  0.00000000e+00
  0.00000000e+00 -1.09152654e-06 -9.43518126e-07  1.34196193e-05
  0.00000000e+00  0.00000000e+00  0.00000000e+00  1.32182766e-08
  0.00000000e+00  0.00000000e+00  0.00000000e+00  0.00000000e+00
  0.00000000e+00  0.00000000e+00  0.00000000e+00  0.00000000e+00
  0.00000000e+00  0.00000000e+00  0.00000000e+00  0.00000000e+00
  0.00000000e+00  0.00000000e+00  0.00000000e+00  0.00000000e+00
  0.00000000e+00  0.00000000e+00 -1.09152654e-06  1.32182766e-08
  0.00000000e+00  0.00000000e+00  0.00000000e+00  3.20988438e-06]","[[-3.62076165e-04  4.75271687e-03]
 [-7.61796618e-05 -7.11250087e-03]]",[],0.0,0.0
1787304795.4493928,1.415284673530818,-0.5481381525446162,0.3734105164060968,"[ 1.54445165e-05 -9.43518126e-07  0.00000000e+00  0.00000000e+00
  0.00000000e+00 -1.09152654e-06 -9.43518126e-07  1.34196193e-05
  0.00000000e+00  0.00000000e+00  0.00000000e+00  1.32182766e-08
  0.00000000e+00  0.00000000e+00  0.00000000e+00  0.00000000e+00
  0.00000000e+00  0.00000000e+00  0.00000000e+00  0.00000000e+00
  0.00000000e+00  0.00000000e+00  0.00000000e+00  0.00000000e+00
  0.00000000e+00  0.00000000e+00  0.00000000e+00  0.00000000e+00
  0.00000000e+00  0.00000000e+00 -1.09152654e-06  1.32182766e-08
  0.00000000e+00  0.00000000e+00  0.00000000e+00  3.20988438e-06]","[[-3.62076165e-04  4.75271687e-03]
 [-7.61796618e-05 -7.11250087e-03]]",[],0.0,0.0
1787304795.5686207,1.415284673530818,-0.5481381525446162,0.3734105164060968,"[ 1.54445165e-05 -9.43518126e-07  0.00000000e+00  0.00000000e+00
  0.00000000e+00 -1.09152654e-06 -9.43518126e-07  1.34196193e-05
  0.00000000e+00  0.00000000e+00  0.00000000e+00  1.32182766e-08
  0.00000000e+00  0.00000000e+00  0.00000000e+00  0.00000000e+00
  0.00000000e+00  0.00000000e+00  0.00000000e+00  0.00000000e+00
  0.00000000e+00  0.00000000e+00  0.00000000e+00  0.00000000e+00
  0.00000000e+00  0.00000000e+00  0.00000000e+00  0.00000000e+00
  0.00000000e+00  0.00000000e+00 -1.09152654e-06  1.32182766e-08
  0.00000000e+00  0.00000000e+00  0.00000000e+00  3.20988438e-06]","[[-3.62076165e-04  4.75271687e-03]
 [-7.61796618e-05 -7.11250087e-03]]",[],0.0,0.0
1787304795.5963209,1.415284673530818,-0.5481381525446162,0.3734105164060968,"[ 1.54445165e-05 -9.43518126e-07  0.00000000e+00  0.00000000e+00
  0.00000000e+00 -1.09152654e-06 -9.43518126e-07  1.34196193e-05
  0.00000000e+00  0.00000000e+00  0.00000000e+00  1.32182766e-08
  0.00000000e+00  0.00000000e+00  0.00000000e+00  0.00000000e+00
  0.00000000e+00  0.00000000e+00  0.00000000e+00  0.00000000e+00
  0.00000000e+00  0.00000000e+00  0.00000000e+00  0.00000000e+00
  0.00000000e+00  0.00000000e+00  0.00000000e+00  0.00000000e+00
  0.00000000e+00  0.00000000e+00 -1.09152654e-06  1.32182766e-08
  0.00000000e+00  0.00000000e+00  0.00000000e+00  3.20988438e-06]","[[-3.62076165e-04  4.75271687e-03]
 [-7.61796618e-05 -7.11250087e-03]]",[],0.0,0.0
1787304795.6589053,1.415284673530818,-0.5481381525446162,0.3734105164060968,"[ 1.54445165e-05 -9.43518126e-07  0.00000000e+00  0.00000000e+00
  0.00000000e+00 -1.09152654e-06 -9.43518126e-07  1.34196193e-05
  0.00000000e+00  0.00000000e+00  0.00000000e+00  1.32182766e-08
  0.00000000e+00  0.00000000e+00  0.00000000e+00  0.00000000e+00
  0.00000000e+00  0.00000000e+00  0.00000000e+00  0.00000000e+00
  0.00000000e+00  0.00000000e+00  0.00000000e+00  0.00000000e+00
  0.00000000e+00  0.00000000e+00  0.00000000e+00  0.00000000e+00
  0.00000000e+00  0.00000000e+00 -1.09152654e-06  1.32182766e-08
  0.00000000e+00  0.00000000e+00  0.00000000e+00  3.20988438e-06]","[[-3.62076165e-04  4.75271687e-03]
 [-7.61796618e-05 -7.11250087e-03]]",[],0.0,0.0
1787304795.7428155,1.415284673530818,-0.5481381525446162,0.3734105164060968,"[ 1.54445165e-05 -9.43518126e-07  0.00000000e+00  0.00000000e+00
  0.00000000e+00 -1.09152654e-06 -9.43518126e-07  1.34196193e-05
  0.00000000e+00  0.00000000e+00  0.00000000e+00  1.32182766e-08
  0.00000000e+00  0.00000000e+00  0.00000000e+00  0.00000000e+00
  0.00000000e+00  0.00000000e+00  0.00000000e+00  0.00000000e+00
  0.00000000e+00  0.00000000e+00  0.00000000e+00  0.00000000e+00
  0.00000000e+00  0.00000000e+00  0.00000000e+00  0.00000000e+00
  0.00000000e+00  0.00000000e+00 -1.09152654e-06  1.32182766e-08
  0.00000000e+00  0.00000000e+00  0.00000000e+00  3.20988438e-06]","[[-3.62076165e-04  4.75271687e-03]
 [-7.61796618e-05 -7.11250087e-03]]",[],0.0,0.0
1787304795.7830257,1.415284673530818,-0.5481381525446162,0.3734105164060968,"[ 1.54445165e-05 -9.43518126e-07  0.00000000e+00  0.00000000e+00
  0.00000000e+00 -1.09152654e-06 -9.43518126e-07  1.34196193e-05
  0.00000000e+00  0.00000000e+00  0.00000000e+00  1.32182766e-08
  0.00000000e+00  0.00000000e+00  0.00000000e+00  0.00000000e+00
  0.00000000e+00  0.00000000e+00  0.00000000e+00  0.00000000e+00
  0.00000000e+00  0.00000000e+00  0.00000000e+00  0.00000000e+00
  0.00000000e+00  0.00000000e+00  0.00000000e+00  0.00000000e+00
  0.00000000e+00  0.00000000e+00 -1.09152654e-06  1.32182766e-08
  0.00000000e+00  0.00000000e+00  0.00000000e+00  3.20988438e-06]","[[-3.62076165e-04  4.75271687e-03]
 [-7.61796618e-05 -7.11250087e-03]]",[],0.0,0.0
1787304795.8729417,1.415284673530818,-0.5481381525446162,0.3734105164060968,"[ 1.54445165e-05 -9.43518126e-07  0.00000000e+00  0.00000000e+00
  0.00000000e+00 -1.09152654e-06 -9.43518126e-07  1.34196193e-05
  0.00000000e+00  0.00000000e+00  0.00000000e+00  1.32182766e-08
  0.00000000e+00  0.00000000e+00  0.00000000e+00  0.00000000e+00
  0.00000000e+00  0.00000000e+00  0.00000000e+00  0.00000000e+00
  0.00000000e+00  0.00000000e+00  0.00000000e+00  0.00000000e+00
  0.00000000e+00  0.00000000e+00  0.00000000e+00  0.00000000e+00
  0.00000000e+00  0.00000000e+00 -1.09152654e-06  1.32182766e-08
  0.00000000e+00  0.00000000e+00  0.00000000e+00  3.20988438e-06]","[[-3.62076165e-04  4.75271687e-03]
 [-7.61796618e-05 -7.11250087e-03]]",[],0.0,0.0
1787304795.8803976,1.415284673530818,-0.5481381525446162,0.3734105164060968,"[ 1.54445165e-05 -9.43518126e-07  0.00000000e+00  0.00000000e+00
  0.00000000e+00 -1.09152654e-06 -9.43518126e-07  1.34196193e-05
  0.00000000e+00  0.00000000e+00  0.00000000e+00  1.32182766e-08
  0.00000000e+00  0.00000000e+00  0.00000000e+00  0.00000000e+00
  0.00000000e+00  0.00000000e+00  0.00000000e+00  0.00000000e+00
  0.00000000e+00  0.00000000e+00  0.00000000e+00  0.00000000e+00
  0.00000000e+00  0.00000000e+00  0.00000000e+00  0.00000000e+00
  0.00000000e+00  0.00000000e+00 -1.09152654e-06  1.32182766e-08
  0.00000000e+00  0.00000000e+00  0.00000000e+00  3.20988438e-06]","[[-3.62076165e-04  4.75271687e-03]
 [-7.61796618e-05 -7.11250087e-03]]",[],0.0,0.0
1787304795.9581788,1.415284673530818,-0.5481381525446162,0.3734105164060968,"[ 1.54445165e-05 -9.43518126e-07  0.00000000e+00  0.00000000e+00
  0.00000000e+00 -1.09152654e-06 -9.43518126e-07  1.34196193e-05
  0.00000000e+00  0.00000000e+00  0.00000000e+00  1.32182766e-08
  0.00000000e+00  0.00000000e+00  0.00000000e+00  0.00000000e+00
  0.00000000e+00  0.00000000e+00  0.00000000e+00  0.00000000e+00
  0.00000000e+00  0.00000000e+00  0.00000000e+00  0.00000000e+00
  0.00000000e+00  0.00000000e+00  0.00000000e+00  0.00000000e+00
  0.00000000e+00  0.00000000e+00 -1.09152654e-06  1.32182766e-08
  0.00000000e+00  0.00000000e+00  0.00000000e+00  3.20988438e-06]","[[-3.62076165e-04  4.75271687e-03]
 [-7.61796618e-05 -7.11250087e-03]]",[],0.0,0.0
1787304795.9768684,1.415284673530818,-0.5481381525446162,0.3734105164060968,"[ 1.54445165e-05 -9.43518126e-07  0.00000000e+00  0.00000000e+00
  0.00000000e+00 -1.09152654e-06 -9.43518126e-07  1.34196193e-05
  0.00000000e+00  0.00000000e+00  0.00000000e+00  1.32182766e-08
  0.00000000e+00  0.00000000e+00  0.00000000e+00  0.00000000e+00
  0.00000000e+00  0.00000000e+00  0.00000000e+00  0.00000000e+00
  0.00000000e+00  0.00000000e+00  0.00000000e+00  0.00000000e+00
  0.00000000e+00  0.00000000e+00  0.00000000e+00  0.00000000e+00
  0.00000000e+00  0.00000000e+00 -1.09152654e-06  1.32182766e-08
  0.00000000e+00  0.00000000e+00  0.00000000e+00  3.20988438e-06]","[[-3.62076165e-04  4.75271687e-03]
 [-7.61796618e-05 -7.11250087e-03]]",[],0.0,0.0
1787304796.0759437,1.443384531892026,-0.5250245554265264,0.39186830849416865,"[ 1.14982654e-05 -8.07616006e-07  0.00000000e+00  0.00000000e+00
  0.00000000e+00 -9.15849446e-07 -8.07616006e-07  1.01699149e-05
  0.00000000e+00  0.00000000e+00  0.00000000e+00 -5.08375021e-08
  0.00000000e+00  0.00000000e+00  0.00000000e+00  0.00000000e+00
  0.00000000e+00  0.00000000e+00  0.00000000e+00  0.00000000e+00
  0.00000000e+00  0.00000000e+00  0.00000000e+00  0.00000000e+00
  0.00000000e+00  0.00000000e+00  0.00000000e+00  0.00000000e+00
  0.00000000e+00  0.00000000e+00 -9.15849446e-07 -5.08375021e-08
  0.00000000e+00  0.00000000e+00  0.00000000e+00  3.19070072e-06]","[[-2.63583791e-04  3.96493073e-03]
 [-6.72098557e-05 -5.09213047e-03]]",[],0.0,0.0
1787304796.2612286,1.443384531892026,-0.5250245554265264,0.39186830849416865,"[ 1.14982654e-05 -8.07616006e-07  0.00000000e+00  0.00000000e+00
  0.00000000e+00 -9.15849446e-07 -8.07616006e-07  1.01699149e-05
  0.00000000e+00  0.00000000e+00  0.00000000e+00 -5.08375021e-08
  0.00000000e+00  0.00000000e+00  0.00000000e+00  0.00000000e+00
  0.00000000e+00  0.00000000e+00  0.00000000e+00  0.00000000e+00
  0.00000000e+00  0.00000000e+00  0.00000000e+00  0.00000000e+00
  0.00000000e+00  0.00000000e+00  0.00000000e+00  0.00000000e+00
  0.00000000e+00  0.00000000e+00 -9.15849446e-07 -5.08375021e-08
  0.00000000e+00  0.00000000e+00  0.00000000e+00  3.19070072e-06]","[[-2.63583791e-04  3.96493073e-03]
 [-6.72098557e-05 -5.09213047e-03]]",[],0.0,0.0
1787304796.2762136,1.443384531892026,-0.5250245554265264,0.39186830849416865,"[ 1.14982654e-05 -8.07616006e-07  0.00000000e+00  0.00000000e+00
  0.00000000e+00 -9.15849446e-07 -8.07616006e-07  1.01699149e-05
  0.00000000e+00  0.00000000e+00  0.00000000e+00 -5.08375021e-08
  0.00000000e+00  0.00000000e+00  0.00000000e+00  0.00000000e+00
  0.00000000e+00  0.00000000e+00  0.00000000e+00  0.00000000e+00
  0.00000000e+00  0.00000000e+00  0.00000000e+00  0.00000000e+00
  0.00000000e+00  0.00000000e+00  0.00000000e+00  0.00000000e+00
  0.00000000e+00  0.00000000e+00 -9.15849446e-07 -5.08375021e-08
  0.00000000e+00  0.00000000e+00  0.00000000e+00  3.19070072e-06]","[[-2.63583791e-04  3.96493073e-03]
 [-6.72098557e-05 -5.09213047e-03]]",[],0.0,0.0
1787304796.3264294,1.443384531892026,-0.5250245554265264,0.39186830849416865,"[ 1.14982654e-05 -8.07616006e-07  0.00000000e+00  0.00000000e+00
  0.00000000e+00 -9.15849446e-07 -8.07616006e-07  1.01699149e-05
  0.00000000e+00  0.00000000e+00  0.00000000e+00 -5.08375021e-08
  0.00000000e+00  0.00000000e+00  0.00000000e+00  0.00000000e+00
  0.00000000e+00  0.00000000e+00  0.00000000e+00  0.00000000e+00
  0.00000000e+00  0.00000000e+00  0.00000000e+00  0.00000000e+00
  0.00000000e+00  0.00000000e+00  0.00000000e+00  0.00000000e+00
  0.00000000e+00  0.00000000e+00 -9.15849446e-07 -5.08375021e-08
  0.00000000e+00  0.00000000e+00  0.00000000e+00  3.19070072e-06]","[[-2.63583791e-04  3.96493073e-03]
 [-6.72098557e-05 -5.09213047e-03]]",[],0.0,0.0
1787304796.8692703,1.443384531892026,-0.5250245554265264,0.39186830849416865,"[ 1.14982654e-05 -8.07616006e-07  0.00000000e+00  0.00000000e+00
  0.00000000e+00 -9.15849446e-07 -8.07616006e-07  1.01699149e-05
  0.00000000e+00  0.00000000e+00  0.00000000e+00 -5.08375021e-08
  0.00000000e+00  0.00000000e+00  0.00000000e+00  0.00000000e+00
  0.00000000e+00  0.00000000e+00  0.00000000e+00  0.00000000e+00
  0.00000000e+00  0.00000000e+00  0.00000000e+00  0.00000000e+00
  0.00000000e+00  0.00000000e+00  0.00000000e+00  0.00000000e+00
  0.00000000e+00  0.00000000e+00 -9.15849446e-07 -5.08375021e-08
  0.00000000e+00  0.00000000e+00  0.00000000e+00  3.19070072e-06]","[[-2.63583791e-04  3.96493073e-03]
 [-6.72098557e-05 -5.09213047e-03]]",[],0.0,0.0
1787304796.8777616,1.443384531892026,-0.5250245554265264,0.39186830849416865,"[ 1.14982654e-05 -8.07616006e-07  0.00000000e+00  0.00000000e+00
  0.00000000e+00 -9.15849446e-07 -8.07616006e-07  1.01699149e-05
  0.00000000e+00  0.00000000e+00  0.00000000e+00 -5.08375021e-08
  0.00000000e+00  0.00000000e+00  0.00000000e+00  0.00000000e+00
  0.00000000e+00  0.00000000e+00  0.00000000e+00  0.00000000e+00
  0.00000000e+00  0.00000000e+00  0.00000000e+00  0.00000000e+00
  0.00000000e+00  0.00000000e+00  0.00000000e+00  0.00000000e+00
  0.00000000e+00  0.00000000e+00 -9.15849446e-07 -5.08375021e-08
  0.00000000e+00  0.00000000e+00  0.00000000e+00  3.19070072e-06]","[[-2.63583791e-04  3.96493073e-03]
 [-6.72098557e-05 -5.09213047e-03]]",[],0.0,0.0
1787304797.6975143,1.4667412607954289,-0.5055435180542729,0.4064983012959437,"[ 9.35010187e-06 -6.08713031e-07  0.00000000e+00  0.00000000e+00
  0.00000000e+00 -5.98336681e-07 -6.08713031e-07  8.12077589e-06
  0.00000000e+00  0.00000000e+00  0.00000000e+00  1.20268850e-07
  0.00000000e+00  0.00000000e+00  0.00000000e+00  0.00000000e+00
  0.00000000e+00  0.00000000e+00  0.00000000e+00  0.00000000e+00
  0.00000000e+00  0.00000000e+00  0.00000000e+00  0.00000000e+00
  0.00000000e+00  0.00000000e+00  0.00000000e+00  0.00000000e+00
  0.00000000e+00  0.00000000e+00 -5.98336681e-07  1.20268850e-07
  0.00000000e+00  0.00000000e+00  0.00000000e+00  3.00180250e-06]","[[-2.15112659e-04  2.96198255e-03]
 [-5.37476852e-05 -4.37569174e-03]]",[],0.0,0.0
1787304797.7280834,1.4667412607954289,-0.5055435180542729,0.4064983012959437,"[ 9.35010187e-06 -6.08713031e-07  0.00000000e+00  0.00000000e+00
  0.00000000e+00 -5.98336681e-07 -6.08713031e-07  8.12077589e-06
  0.00000000e+00  0.00000000e+00  0.00000000e+00  1.20268850e-07
  0.00000000e+00  0.00000000e+00  0.00000000e+00  0.00000000e+00
  0.00000000e+00  0.00000000e+00  0.00000000e+00  0.00000000e+00
  0.00000000e+00  0.00000000e+00  0.00000000e+00  0.00000000e+00
  0.00000000e+00  0.00000000e+00  0.00000000e+00  0.00000000e+00
  0.00000000e+00  0.00000000e+00 -5.98336681e-07  1.20268850e-07
  0.00000000e+00  0.00000000e+00  0.00000000e+00  3.00180250e-06]","[[-2.15112659e-04  2.96198255e-03]
 [-5.37476852e-05 -4.37569174e-03]]",[],0.0,0.0
1787304798.591036,1.4697630492220157,-0.4956643799082894,0.41349722439361075,"[ 7.97678343e-06 -4.56762101e-07  0.00000000e+00  0.00000000e+00
  0.00000000e+00 -4.78996651e-07 -4.56762101e-07  6.76702761e-06
  0.00000000e+00  0.00000000e+00  0.00000000e+00  7.92662654e-08
  0.00000000e+00  0.00000000e+00  0.00000000e+00  0.00000000e+00
  0.00000000e+00  0.00000000e+00  0.00000000e+00  0.00000000e+00
  0.00000000e+00  0.00000000e+00  0.00000000e+00  0.00000000e+00
  0.00000000e+00  0.00000000e+00  0.00000000e+00  0.00000000e+00
  0.00000000e+00  0.00000000e+00 -4.78996651e-07  7.92662654e-08
  0.00000000e+00  0.00000000e+00  0.00000000e+00  3.01878517e-06]","[[-1.82803690e-04  2.44312375e-03]
 [-4.85265633e-05 -3.46266903e-03]]",[],0.0,0.0
1787304798.6283414,1.4697630492220157,-0.4956643799082894,0.41349722439361075,"[ 7.97678343e-06 -4.56762101e-07  0.00000000e+00  0.00000000e+00
  0.00000000e+00 -4.78996651e-07 -4.56762101e-07  6.76702761e-06
  0.00000000e+00  0.00000000e+00  0.00000000e+00  7.92662654e-08
  0.00000000e+00  0.00000000e+00  0.00000000e+00  0.00000000e+00
  0.00000000e+00  0.00000000e+00  0.00000000e+00  0.00000000e+00
  0.00000000e+00  0.00000000e+00  0.00000000e+00  0.00000000e+00
  0.00000000e+00  0.00000000e+00  0.00000000e+00  0.00000000e+00
  0.00000000e+00  0.00000000e+00 -4.78996651e-07  7.92662654e-08
  0.00000000e+00  0.00000000e+00  0.00000000e+00  3.01878517e-06]","[[-1.82803690e-04  2.44312375e-03]
 [-4.85265633e-05 -3.46266903e-03]]",[],0.0,0.0
1787304798.688861,1.4697630492220157,-0.4956643799082894,0.41349722439361075,"[ 7.97678343e-06 -4.56762101e-07  0.00000000e+00  0.00000000e+00
  0.00000000e+00 -4.78996651e-07 -4.56762101e-07  6.76702761e-06
  0.00000000e+00  0.00000000e+00  0.00000000e+00  7.92662654e-08
  0.00000000e+00  0.00000000e+00  0.00000000e+00  0.00000000e+00
  0.00000000e+00  0.00000000e+00  0.00000000e+00  0.00000000e+00
  0.00000000e+00  0.00000000e+00  0.00000000e+00  0.00000000e+00
  0.00000000e+00  0.00000000e+00  0.00000000e+00  0.00000000e+00
  0.00000000e+00  0.00000000e+00 -4.78996651e-07  7.92662654e-08
  0.00000000e+00  0.00000000e+00  0.00000000e+00  3.01878517e-06]","[[-1.82803690e-04  2.44312375e-03]
 [-4.85265633e-05 -3.46266903e-03]]",[],0.0,0.0
1787304798.7294466,1.484614043386437,-0.4835970795636653,0.43691972521883354,"[ 6.93403379e-06 -3.72516869e-07  0.00000000e+00  0.00000000e+00
  0.00000000e+00 -4.61724977e-07 -3.72516869e-07  5.81564150e-06
  0.00000000e+00  0.00000000e+00  0.00000000e+00  3.86641946e-08
  0.00000000e+00  0.00000000e+00  0.00000000e+00  0.00000000e+00
  0.00000000e+00  0.00000000e+00  0.00000000e+00  0.00000000e+00
  0.00000000e+00  0.00000000e+00  0.00000000e+00  0.00000000e+00
  0.00000000e+00  0.00000000e+00  0.00000000e+00  0.00000000e+00
  0.00000000e+00  0.00000000e+00 -4.61724977e-07  3.86641946e-08
  0.00000000e+00  0.00000000e+00  0.00000000e+00  3.00401602e-06]","[[-1.59297913e-04  2.18141650e-03]
 [-4.18180834e-05 -2.93130195e-03]]",[],0.0,0.0
1787304798.7774544,1.484614043386437,-0.4835970795636653,0.43691972521883354,"[ 6.93403379e-06 -3.72516869e-07  0.00000000e+00  0.00000000e+00
  0.00000000e+00 -4.61724977e-07 -3.72516869e-07  5.81564150e-06
  0.00000000e+00  0.00000000e+00  0.00000000e+00  3.86641946e-08
  0.00000000e+00  0.00000000e+00  0.00000000e+00  0.00000000e+00
  0.00000000e+00  0.00000000e+00  0.00000000e+00  0.00000000e+00
  0.00000000e+00  0.00000000e+00  0.00000000e+00  0.00000000e+00
  0.00000000e+00  0.00000000e+00  0.00000000e+00  0.00000000e+00
  0.00000000e+00  0.00000000e+00 -4.61724977e-07  3.86641946e-08
  0.00000000e+00  0.00000000e+00  0.00000000e+00  3.00401602e-06]","[[-1.59297913e-04  2.18141650e-03]
 [-4.18180834e-05 -2.93130195e-03]]",[],0.0,0.0
1787304798.8282518,1.484614043386437,-0.4835970795636653,0.43691972521883354,"[ 6.93403379e-06 -3.72516869e-07  0.00000000e+00  0.00000000e+00
  0.00000000e+00 -4.61724977e-07 -3.72516869e-07  5.81564150e-06
  0.00000000e+00  0.00000000e+00  0.00000000e+00  3.86641946e-08
  0.00000000e+00  0.00000000e+00  0.00000000e+00  0.00000000e+00
  0.00000000e+00  0.00000000e+00  0.00000000e+00  0.00000000e+00
  0.00000000e+00  0.00000000e+00  0.00000000e+00  0.00000000e+00
  0.00000000e+00  0.00000000e+00  0.00000000e+00  0.00000000e+00
  0.00000000e+00  0.00000000e+00 -4.61724977e-07  3.86641946e-08
  0.00000000e+00  0.00000000e+00  0.00000000e+00  3.00401602e-06]","[[-1.59297913e-04  2.18141650e-03]
 [-4.18180834e-05 -2.93130195e-03]]",[],0.0,0.0
1787304798.8823996,1.484614043386437,-0.4835970795636653,0.43691972521883354,"[ 6.93403379e-06 -3.72516869e-07  0.00000000e+00  0.00000000e+00
  0.00000000e+00 -4.61724977e-07 -3.72516869e-07  5.81564150e-06
  0.00000000e+00  0.00000000e+00  0.00000000e+00  3.86641946e-08
  0.00000000e+00  0.00000000e+00  0.00000000e+00  0.00000000e+00
  0.00000000e+00  0.00000000e+00  0.00000000e+00  0.00000000e+00
  0.00000000e+00  0.00000000e+00  0.00000000e+00  0.00000000e+00
  0.00000000e+00  0.00000000e+00  0.00000000e+00  0.00000000e+00
  0.00000000e+00  0.00000000e+00 -4.61724977e-07  3.86641946e-08
  0.00000000e+00  0.00000000e+00  0.00000000e+00  3.00401602e-06]","[[-1.59297913e-04  2.18141650e-03]
 [-4.18180834e-05 -2.93130195e-03]]",[],0.0,0.0
1787304798.9726207,1.484614043386437,-0.4835970795636653,0.43691972521883354,"[ 6.93403379e-06 -3.72516869e-07  0.00000000e+00  0.00000000e+00
  0.00000000e+00 -4.61724977e-07 -3.72516869e-07  5.81564150e-06
  0.00000000e+00  0.00000000e+00  0.00000000e+00  3.86641946e-08
  0.00000000e+00  0.00000000e+00  0.00000000e+00  0.00000000e+00
  0.00000000e+00  0.00000000e+00  0.00000000e+00  0.00000000e+00
  0.00000000e+00  0.00000000e+00  0.00000000e+00  0.00000000e+00
  0.00000000e+00  0.00000000e+00  0.00000000e+00  0.00000000e+00
  0.00000000e+00  0.00000000e+00 -4.61724977e-07  3.86641946e-08
  0.00000000e+00  0.00000000e+00  0.00000000e+00  3.00401602e-06]","[[-1.59297913e-04  2.18141650e-03]
 [-4.18180834e-05 -2.93130195e-03]]",[],0.0,0.0
1787304798.9821653,1.484614043386437,-0.4835970795636653,0.43691972521883354,"[ 6.93403379e-06 -3.72516869e-07  0.00000000e+00  0.00000000e+00
  0.00000000e+00 -4.61724977e-07 -3.72516869e-07  5.81564150e-06
  0.00000000e+00  0.00000000e+00  0.00000000e+00  3.86641946e-08
  0.00000000e+00  0.00000000e+00  0.00000000e+00  0.00000000e+00
  0.00000000e+00  0.00000000e+00  0.00000000e+00  0.00000000e+00
  0.00000000e+00  0.00000000e+00  0.00000000e+00  0.00000000e+00
  0.00000000e+00  0.00000000e+00  0.00000000e+00  0.00000000e+00
  0.00000000e+00  0.00000000e+00 -4.61724977e-07  3.86641946e-08
  0.00000000e+00  0.00000000e+00  0.00000000e+00  3.00401602e-06]","[[-1.59297913e-04  2.18141650e-03]
 [-4.18180834e-05 -2.93130195e-03]]",[],0.0,0.0
1787304799.6595657,1.484614043386437,-0.4835970795636653,0.43691972521883354,"[ 6.93403379e-06 -3.72516869e-07  0.00000000e+00  0.00000000e+00
  0.00000000e+00 -4.61724977e-07 -3.72516869e-07  5.81564150e-06
  0.00000000e+00  0.00000000e+00  0.00000000e+00  3.86641946e-08
  0.00000000e+00  0.00000000e+00  0.00000000e+00  0.00000000e+00
  0.00000000e+00  0.00000000e+00  0.00000000e+00  0.00000000e+00
  0.00000000e+00  0.00000000e+00  0.00000000e+00  0.00000000e+00
  0.00000000e+00  0.00000000e+00  0.00000000e+00  0.00000000e+00
  0.00000000e+00  0.00000000e+00 -4.61724977e-07  3.86641946e-08
  0.00000000e+00  0.00000000e+00  0.00000000e+00  3.00401602e-06]","[[-1.59297913e-04  2.18141650e-03]
 [-4.18180834e-05 -2.93130195e-03]]",[],0.0,0.0
1787304799.6911376,1.484614043386437,-0.4835970795636653,0.43691972521883354,"[ 6.93403379e-06 -3.72516869e-07  0.00000000e+00  0.00000000e+00
  0.00000000e+00 -4.61724977e-07 -3.72516869e-07  5.81564150e-06
  0.00000000e+00  0.00000000e+00  0.00000000e+00  3.86641946e-08
  0.00000000e+00  0.00000000e+00  0.00000000e+00  0.00000000e+00
  0.00000000e+00  0.00000000e+00  0.00000000e+00  0.00000000e+00
  0.00000000e+00  0.00000000e+00  0.00000000e+00  0.00000000e+00
  0.00000000e+00  0.00000000e+00  0.00000000e+00  0.00000000e+00
  0.00000000e+00  0.00000000e+00 -4.61724977e-07  3.86641946e-08
  0.00000000e+00  0.00000000e+00  0.00000000e+00  3.00401602e-06]","[[-1.59297913e-04  2.18141650e-03]
 [-4.18180834e-05 -2.93130195e-03]]",[],0.0,0.0
1787304799.7372894,1.484614043386437,-0.4835970795636653,0.43691972521883354,"[ 6.93403379e-06 -3.72516869e-07  0.00000000e+00  0.00000000e+00
  0.00000000e+00 -4.61724977e-07 -3.72516869e-07  5.81564150e-06
  0.00000000e+00  0.00000000e+00  0.00000000e+00  3.86641946e-08
  0.00000000e+00  0.00000000e+00  0.00000000e+00  0.00000000e+00
  0.00000000e+00  0.00000000e+00  0.00000000e+00  0.00000000e+00
  0.00000000e+00  0.00000000e+00  0.00000000e+00  0.00000000e+00
  0.00000000e+00  0.00000000e+00  0.00000000e+00  0.00000000e+00
  0.00000000e+00  0.00000000e+00 -4.61724977e-07  3.86641946e-08
  0.00000000e+00  0.00000000e+00  0.00000000e+00  3.00401602e-06]","[[-1.59297913e-04  2.18141650e-03]
 [-4.18180834e-05 -2.93130195e-03]]",[],0.0,0.0
1787304799.7785032,1.484614043386437,-0.4835970795636653,0.43691972521883354,"[ 6.93403379e-06 -3.72516869e-07  0.00000000e+00  0.00000000e+00
  0.00000000e+00 -4.61724977e-07 -3.72516869e-07  5.81564150e-06
  0.00000000e+00  0.00000000e+00  0.00000000e+00  3.86641946e-08
  0.00000000e+00  0.00000000e+00  0.00000000e+00  0.00000000e+00
  0.00000000e+00  0.00000000e+00  0.00000000e+00  0.00000000e+00
  0.00000000e+00  0.00000000e+00  0.00000000e+00  0.00000000e+00
  0.00000000e+00  0.00000000e+00  0.00000000e+00  0.00000000e+00
  0.00000000e+00  0.00000000e+00 -4.61724977e-07  3.86641946e-08
  0.00000000e+00  0.00000000e+00  0.00000000e+00  3.00401602e-06]","[[-1.59297913e-04  2.18141650e-03]
 [-4.18180834e-05 -2.93130195e-03]]",[],0.0,0.0
1787304799.838704,1.500081091385691,-0.47592778794486884,0.4548532970551845,"[ 6.26301716e-06 -2.08437192e-07  0.00000000e+00  0.00000000e+00
  0.00000000e+00 -4.57621911e-07 -2.08437192e-07  5.14078898e-06
  0.00000000e+00  0.00000000e+00  0.00000000e+00  1.65074390e-08
  0.00000000e+00  0.00000000e+00  0.00000000e+00  0.00000000e+00
  0.00000000e+00  0.00000000e+00  0.00000000e+00  0.00000000e+00
  0.00000000e+00  0.00000000e+00  0.00000000e+00  0.00000000e+00
  0.00000000e+00  0.00000000e+00  0.00000000e+00  0.00000000e+00
  0.00000000e+00  0.00000000e+00 -4.57621911e-07  1.65074390e-08
  0.00000000e+00  0.00000000e+00  0.00000000e+00  3.13024366e-06]","[[-1.40608791e-04  2.22951517e-03]
 [-4.80525099e-05 -2.57070951e-03]]",[],0.0,0.0
1787304799.877171,1.500081091385691,-0.47592778794486884,0.4548532970551845,"[ 6.26301716e-06 -2.08437192e-07  0.00000000e+00  0.00000000e+00
  0.00000000e+00 -4.57621911e-07 -2.08437192e-07  5.14078898e-06
  0.00000000e+00  0.00000000e+00  0.00000000e+00  1.65074390e-08
  0.00000000e+00  0.00000000e+00  0.00000000e+00  0.00000000e+00
  0.00000000e+00  0.00000000e+00  0.00000000e+00  0.00000000e+00
  0.00000000e+00  0.00000000e+00  0.00000000e+00  0.00000000e+00
  0.00000000e+00  0.00000000e+00  0.00000000e+00  0.00000000e+00
  0.00000000e+00  0.00000000e+00 -4.57621911e-07  1.65074390e-08
  0.00000000e+00  0.00000000e+00  0.00000000e+00  3.13024366e-06]","[[-1.40608791e-04  2.22951517e-03]
 [-4.80525099e-05 -2.57070951e-03]]",[],0.0,0.0
1787304799.926447,1.500081091385691,-0.47592778794486884,0.4548532970551845,"[ 6.26301716e-06 -2.08437192e-07  0.00000000e+00  0.00000000e+00
  0.00000000e+00 -4.57621911e-07 -2.08437192e-07  5.14078898e-06
  0.00000000e+00  0.00000000e+00  0.00000000e+00  1.65074390e-08
  0.00000000e+00  0.00000000e+00  0.00000000e+00  0.00000000e+00
  0.00000000e+00  0.00000000e+00  0.00000000e+00  0.00000000e+00
  0.00000000e+00  0.00000000e+00  0.00000000e+00  0.00000000e+00
  0.00000000e+00  0.00000000e+00  0.00000000e+00  0.00000000e+00
  0.00000000e+00  0.00000000e+00 -4.57621911e-07  1.65074390e-08
  0.00000000e+00  0.00000000e+00  0.00000000e+00  3.13024366e-06]","[[-1.40608791e-04  2.22951517e-03]
 [-4.80525099e-05 -2.57070951e-03]]",[],0.0,0.0
1787304799.977249,1.500081091385691,-0.47592778794486884,0.4548532970551845,"[ 6.26301716e-06 -2.08437192e-07  0.00000000e+00  0.00000000e+00
  0.00000000e+00 -4.57621911e-07 -2.08437192e-07  5.14078898e-06
  0.00000000e+00  0.00000000e+00  0.00000000e+00  1.65074390e-08
  0.00000000e+00  0.00000000e+00  0.00000000e+00  0.00000000e+00
  0.00000000e+00  0.00000000e+00  0.00000000e+00  0.00000000e+00
  0.00000000e+00  0.00000000e+00  0.00000000e+00  0.00000000e+00
  0.00000000e+00  0.00000000e+00  0.00000000e+00  0.00000000e+00
  0.00000000e+00  0.00000000e+00 -4.57621911e-07  1.65074390e-08
  0.00000000e+00  0.00000000e+00  0.00000000e+00  3.13024366e-06]","[[-1.40608791e-04  2.22951517e-03]
 [-4.80525099e-05 -2.57070951e-03]]",[],0.0,0.0
1787304800.0315666,1.500081091385691,-0.47592778794486884,0.4548532970551845,"[ 6.26301716e-06 -2.08437192e-07  0.00000000e+00  0.00000000e+00
  0.00000000e+00 -4.57621911e-07 -2.08437192e-07  5.14078898e-06
  0.00000000e+00  0.00000000e+00  0.00000000e+00  1.65074390e-08
  0.00000000e+00  0.00000000e+00  0.00000000e+00  0.00000000e+00
  0.00000000e+00  0.00000000e+00  0.00000000e+00  0.00000000e+00
  0.00000000e+00  0.00000000e+00  0.00000000e+00  0.00000000e+00
  0.00000000e+00  0.00000000e+00  0.00000000e+00  0.00000000e+00
  0.00000000e+00  0.00000000e+00 -4.57621911e-07  1.65074390e-08
  0.00000000e+00  0.00000000e+00  0.00000000e+00  3.13024366e-06]","[[-1.40608791e-04  2.22951517e-03]
 [-4.80525099e-05 -2.57070951e-03]]",[],0.0,0.0
1787304800.0809338,1.500081091385691,-0.47592778794486884,0.4548532970551845,"[ 6.26301716e-06 -2.08437192e-07  0.00000000e+00  0.00000000e+00
  0.00000000e+00 -4.57621911e-07 -2.08437192e-07  5.14078898e-06
  0.00000000e+00  0.00000000e+00  0.00000000e+00  1.65074390e-08
  0.00000000e+00  0.00000000e+00  0.00000000e+00  0.00000000e+00
  0.00000000e+00  0.00000000e+00  0.00000000e+00  0.00000000e+00
  0.00000000e+00  0.00000000e+00  0.00000000e+00  0.00000000e+00
  0.00000000e+00  0.00000000e+00  0.00000000e+00  0.00000000e+00
  0.00000000e+00  0.00000000e+00 -4.57621911e-07  1.65074390e-08
  0.00000000e+00  0.00000000e+00  0.00000000e+00  3.13024366e-06]","[[-1.40608791e-04  2.22951517e-03]
 [-4.80525099e-05 -2.57070951e-03]]",[],0.0,0.0
1787304800.13366,1.500081091385691,-0.47592778794486884,0.4548532970551845,"[ 6.26301716e-06 -2.08437192e-07  0.00000000e+00  0.00000000e+00
  0.00000000e+00 -4.57621911e-07 -2.08437192e-07  5.14078898e-06
  0.00000000e+00  0.00000000e+00  0.00000000e+00  1.65074390e-08
  0.00000000e+00  0.00000000e+00  0.00000000e+00  0.00000000e+00
  0.00000000e+00  0.00000000e+00  0.00000000e+00  0.00000000e+00
  0.00000000e+00  0.00000000e+00  0.00000000e+00  0.00000000e+00
  0.00000000e+00  0.00000000e+00  0.00000000e+00  0.00000000e+00
  0.00000000e+00  0.00000000e+00 -4.57621911e-07  1.65074390e-08
  0.00000000e+00  0.00000000e+00  0.00000000e+00  3.13024366e-06]","[[-1.40608791e-04  2.22951517e-03]
 [-4.80525099e-05 -2.57070951e-03]]",[],0.0,0.0
1787304800.2277727,1.500081091385691,-0.47592778794486884,0.4548532970551845,"[ 6.26301716e-06 -2.08437192e-07  0.00000000e+00  0.00000000e+00
  0.00000000e+00 -4.57621911e-07 -2.08437192e-07  5.14078898e-06
  0.00000000e+00  0.00000000e+00  0.00000000e+00  1.65074390e-08
  0.00000000e+00  0.00000000e+00  0.00000000e+00  0.00000000e+00
  0.00000000e+00  0.00000000e+00  0.00000000e+00  0.00000000e+00
  0.00000000e+00  0.00000000e+00  0.00000000e+00  0.00000000e+00
  0.00000000e+00  0.00000000e+00  0.00000000e+00  0.00000000e+00
  0.00000000e+00  0.00000000e+00 -4.57621911e-07  1.65074390e-08
  0.00000000e+00  0.00000000e+00  0.00000000e+00  3.13024366e-06]","[[-1.40608791e-04  2.22951517e-03]
 [-4.80525099e-05 -2.57070951e-03]]",[],0.0,0.0
1787304800.2292354,1.500081091385691,-0.47592778794486884,0.4548532970551845,"[ 6.26301716e-06 -2.08437192e-07  0.00000000e+00  0.00000000e+00
  0.00000000e+00 -4.57621911e-07 -2.08437192e-07  5.14078898e-06
  0.00000000e+00  0.00000000e+00  0.00000000e+00  1.65074390e-08
  0.00000000e+00  0.00000000e+00  0.00000000e+00  0.00000000e+00
  0.00000000e+00  0.00000000e+00  0.00000000e+00  0.00000000e+00
  0.00000000e+00  0.00000000e+00  0.00000000e+00  0.00000000e+00
  0.00000000e+00  0.00000000e+00  0.00000000e+00  0.00000000e+00
  0.00000000e+00  0.00000000e+00 -4.57621911e-07  1.65074390e-08
  0.00000000e+00  0.00000000e+00  0.00000000e+00  3.13024366e-06]","[[-1.40608791e-04  2.22951517e-03]
 [-4.80525099e-05 -2.57070951e-03]]",[],0.0,0.0
1787304800.2978427,1.500081091385691,-0.47592778794486884,0.4548532970551845,"[ 6.26301716e-06 -2.08437192e-07  0.00000000e+00  0.00000000e+00
  0.00000000e+00 -4.57621911e-07 -2.08437192e-07  5.14078898e-06
  0.00000000e+00  0.00000000e+00  0.00000000e+00  1.65074390e-08
  0.00000000e+00  0.00000000e+00  0.00000000e+00  0.00000000e+00
  0.00000000e+00  0.00000000e+00  0.00000000e+00  0.00000000e+00
  0.00000000e+00  0.00000000e+00  0.00000000e+00  0.00000000e+00
  0.00000000e+00  0.00000000e+00  0.00000000e+00  0.00000000e+00
  0.00000000e+00  0.00000000e+00 -4.57621911e-07  1.65074390e-08
  0.00000000e+00  0.00000000e+00  0.00000000e+00  3.13024366e-06]","[[-1.40608791e-04  2.22951517e-03]
 [-4.80525099e-05 -2.57070951e-03]]",[],0.0,0.0
1787304800.7922451,1.500081091385691,-0.47592778794486884,0.4548532970551845,"[ 6.26301716e-06 -2.08437192e-07  0.00000000e+00  0.00000000e+00
  0.00000000e+00 -4.57621911e-07 -2.08437192e-07  5.14078898e-06
  0.00000000e+00  0.00000000e+00  0.00000000e+00  1.65074390e-08
  0.00000000e+00  0.00000000e+00  0.00000000e+00  0.00000000e+00
  0.00000000e+00  0.00000000e+00  0.00000000e+00  0.00000000e+00
  0.00000000e+00  0.00000000e+00  0.00000000e+00  0.00000000e+00
  0.00000000e+00  0.00000000e+00  0.00000000e+00  0.00000000e+00
  0.00000000e+00  0.00000000e+00 -4.57621911e-07  1.65074390e-08
  0.00000000e+00  0.00000000e+00  0.00000000e+00  3.13024366e-06]","[[-1.40608791e-04  2.22951517e-03]
 [-4.80525099e-05 -2.57070951e-03]]",[],0.0,0.0
1787304800.8282835,1.500081091385691,-0.47592778794486884,0.4548532970551845,"[ 6.26301716e-06 -2.08437192e-07  0.00000000e+00  0.00000000e+00
  0.00000000e+00 -4.57621911e-07 -2.08437192e-07  5.14078898e-06
  0.00000000e+00  0.00000000e+00  0.00000000e+00  1.65074390e-08
  0.00000000e+00  0.00000000e+00  0.00000000e+00  0.00000000e+00
  0.00000000e+00  0.00000000e+00  0.00000000e+00  0.00000000e+00
  0.00000000e+00  0.00000000e+00  0.00000000e+00  0.00000000e+00
  0.00000000e+00  0.00000000e+00  0.00000000e+00  0.00000000e+00
  0.00000000e+00  0.00000000e+00 -4.57621911e-07  1.65074390e-08
  0.00000000e+00  0.00000000e+00  0.00000000e+00  3.13024366e-06]","[[-1.40608791e-04  2.22951517e-03]
 [-4.80525099e-05 -2.57070951e-03]]",[],0.0,0.0
1787304800.965834,1.5094242375215854,-0.47208048986007595,0.46065650578061496,"[ 5.66524032e-06 -1.18493194e-07  0.00000000e+00  0.00000000e+00
  0.00000000e+00 -4.13236916e-07 -1.18493194e-07  4.61633611e-06
  0.00000000e+00  0.00000000e+00  0.00000000e+00  1.72924764e-08
  0.00000000e+00  0.00000000e+00  0.00000000e+00  0.00000000e+00
  0.00000000e+00  0.00000000e+00  0.00000000e+00  0.00000000e+00
  0.00000000e+00  0.00000000e+00  0.00000000e+00  0.00000000e+00
  0.00000000e+00  0.00000000e+00  0.00000000e+00  0.00000000e+00
  0.00000000e+00  0.00000000e+00 -4.13236916e-07  1.72924764e-08
  0.00000000e+00  0.00000000e+00  0.00000000e+00  3.09084508e-06]","[[-1.26530699e-04  2.02590351e-03]
 [-4.70572848e-05 -2.25012401e-03]]",[],0.0,0.0
1787304800.9760275,1.5094242375215854,-0.47208048986007595,0.46065650578061496,"[ 5.66524032e-06 -1.18493194e-07  0.00000000e+00  0.00000000e+00
  0.00000000e+00 -4.13236916e-07 -1.18493194e-07  4.61633611e-06
  0.00000000e+00  0.00000000e+00  0.00000000e+00  1.72924764e-08
  0.00000000e+00  0.00000000e+00  0.00000000e+00  0.00000000e+00
  0.00000000e+00  0.00000000e+00  0.00000000e+00  0.00000000e+00
  0.00000000e+00  0.00000000e+00  0.00000000e+00  0.00000000e+00
  0.00000000e+00  0.00000000e+00  0.00000000e+00  0.00000000e+00
  0.00000000e+00  0.00000000e+00 -4.13236916e-07  1.72924764e-08
  0.00000000e+00  0.00000000e+00  0.00000000e+00  3.09084508e-06]","[[-1.26530699e-04  2.02590351e-03]
 [-4.70572848e-05 -2.25012401e-03]]",[],0.0,0.0
1787304801.0294404,1.5094242375215854,-0.47208048986007595,0.46065650578061496,"[ 5.66524032e-06 -1.18493194e-07  0.00000000e+00  0.00000000e+00
  0.00000000e+00 -4.13236916e-07 -1.18493194e-07  4.61633611e-06
  0.00000000e+00  0.00000000e+00  0.00000000e+00  1.72924764e-08
  0.00000000e+00  0.00000000e+00  0.00000000e+00  0.00000000e+00
  0.00000000e+00  0.00000000e+00  0.00000000e+00  0.00000000e+00
  0.00000000e+00  0.00000000e+00  0.00000000e+00  0.00000000e+00
  0.00000000e+00  0.00000000e+00  0.00000000e+00  0.00000000e+00
  0.00000000e+00  0.00000000e+00 -4.13236916e-07  1.72924764e-08
  0.00000000e+00  0.00000000e+00  0.00000000e+00  3.09084508e-06]","[[-1.26530699e-04  2.02590351e-03]
 [-4.70572848e-05 -2.25012401e-03]]",[],0.0,0.0
1787304801.082584,1.5094242375215854,-0.47208048986007595,0.46065650578061496,"[ 5.66524032e-06 -1.18493194e-07  0.00000000e+00  0.00000000e+00
  0.00000000e+00 -4.13236916e-07 -1.18493194e-07  4.61633611e-06
  0.00000000e+00  0.00000000e+00  0.00000000e+00  1.72924764e-08
  0.00000000e+00  0.00000000e+00  0.00000000e+00  0.00000000e+00
  0.00000000e+00  0.00000000e+00  0.00000000e+00  0.00000000e+00
  0.00000000e+00  0.00000000e+00  0.00000000e+00  0.00000000e+00
  0.00000000e+00  0.00000000e+00  0.00000000e+00  0.00000000e+00
  0.00000000e+00  0.00000000e+00 -4.13236916e-07  1.72924764e-08
  0.00000000e+00  0.00000000e+00  0.00000000e+00  3.09084508e-06]","[[-1.26530699e-04  2.02590351e-03]
 [-4.70572848e-05 -2.25012401e-03]]",[],0.0,0.0
1787304801.126328,1.5094242375215854,-0.47208048986007595,0.46065650578061496,"[ 5.66524032e-06 -1.18493194e-07  0.00000000e+00  0.00000000e+00
  0.00000000e+00 -4.13236916e-07 -1.18493194e-07  4.61633611e-06
  0.00000000e+00  0.00000000e+00  0.00000000e+00  1.72924764e-08
  0.00000000e+00  0.00000000e+00  0.00000000e+00  0.00000000e+00
  0.00000000e+00  0.00000000e+00  0.00000000e+00  0.00000000e+00
  0.00000000e+00  0.00000000e+00  0.00000000e+00  0.00000000e+00
  0.00000000e+00  0.00000000e+00  0.00000000e+00  0.00000000e+00
  0.00000000e+00  0.00000000e+00 -4.13236916e-07  1.72924764e-08
  0.00000000e+00  0.00000000e+00  0.00000000e+00  3.09084508e-06]","[[-1.26530699e-04  2.02590351e-03]
 [-4.70572848e-05 -2.25012401e-03]]",[],0.0,0.0
1787304801.1766078,1.5094242375215854,-0.47208048986007595,0.46065650578061496,"[ 5.66524032e-06 -1.18493194e-07  0.00000000e+00  0.00000000e+00
  0.00000000e+00 -4.13236916e-07 -1.18493194e-07  4.61633611e-06
  0.00000000e+00  0.00000000e+00  0.00000000e+00  1.72924764e-08
  0.00000000e+00  0.00000000e+00  0.00000000e+00  0.00000000e+00
  0.00000000e+00  0.00000000e+00  0.00000000e+00  0.00000000e+00
  0.00000000e+00  0.00000000e+00  0.00000000e+00  0.00000000e+00
  0.00000000e+00  0.00000000e+00  0.00000000e+00  0.00000000e+00
  0.00000000e+00  0.00000000e+00 -4.13236916e-07  1.72924764e-08
  0.00000000e+00  0.00000000e+00  0.00000000e+00  3.09084508e-06]","[[-1.26530699e-04  2.02590351e-03]
 [-4.70572848e-05 -2.25012401e-03]]",[],0.0,0.0
1787304801.2301528,1.5094242375215854,-0.47208048986007595,0.46065650578061496,"[ 5.66524032e-06 -1.18493194e-07  0.00000000e+00  0.00000000e+00
  0.00000000e+00 -4.13236916e-07 -1.18493194e-07  4.61633611e-06
  0.00000000e+00  0.00000000e+00  0.00000000e+00  1.72924764e-08
  0.00000000e+00  0.00000000e+00  0.00000000e+00  0.00000000e+00
  0.00000000e+00  0.00000000e+00  0.00000000e+00  0.00000000e+00
  0.00000000e+00  0.00000000e+00  0.00000000e+00  0.00000000e+00
  0.00000000e+00  0.00000000e+00  0.00000000e+00  0.00000000e+00
  0.00000000e+00  0.00000000e+00 -4.13236916e-07  1.72924764e-08
  0.00000000e+00  0.00000000e+00  0.00000000e+00  3.09084508e-06]","[[-1.26530699e-04  2.02590351e-03]
 [-4.70572848e-05 -2.25012401e-03]]",[],0.0,0.0
1787304801.2792044,1.5094242375215854,-0.47208048986007595,0.46065650578061496,"[ 5.66524032e-06 -1.18493194e-07  0.00000000e+00  0.00000000e+00
  0.00000000e+00 -4.13236916e-07 -1.18493194e-07  4.61633611e-06
  0.00000000e+00  0.00000000e+00  0.00000000e+00  1.72924764e-08
  0.00000000e+00  0.00000000e+00  0.00000000e+00  0.00000000e+00
  0.00000000e+00  0.00000000e+00  0.00000000e+00  0.00000000e+00
  0.00000000e+00  0.00000000e+00  0.00000000e+00  0.00000000e+00
  0.00000000e+00  0.00000000e+00  0.00000000e+00  0.00000000e+00
  0.00000000e+00  0.00000000e+00 -4.13236916e-07  1.72924764e-08
  0.00000000e+00  0.00000000e+00  0.00000000e+00  3.09084508e-06]","[[-1.26530699e-04  2.02590351e-03]
 [-4.70572848e-05 -2.25012401e-03]]",[],0.0,0.0
1787304801.348695,1.5094242375215854,-0.47208048986007595,0.46065650578061496,"[ 5.66524032e-06 -1.18493194e-07  0.00000000e+00  0.00000000e+00
  0.00000000e+00 -4.13236916e-07 -1.18493194e-07  4.61633611e-06
  0.00000000e+00  0.00000000e+00  0.00000000e+00  1.72924764e-08
  0.00000000e+00  0.00000000e+00  0.00000000e+00  0.00000000e+00
  0.00000000e+00  0.00000000e+00  0.00000000e+00  0.00000000e+00
  0.00000000e+00  0.00000000e+00  0.00000000e+00  0.00000000e+00
  0.00000000e+00  0.00000000e+00  0.00000000e+00  0.00000000e+00
  0.00000000e+00  0.00000000e+00 -4.13236916e-07  1.72924764e-08
  0.00000000e+00  0.00000000e+00  0.00000000e+00  3.09084508e-06]","[[-1.26530699e-04  2.02590351e-03]
 [-4.70572848e-05 -2.25012401e-03]]",[],0.0,0.0
1787304801.3865097,1.5094242375215854,-0.47208048986007595,0.46065650578061496,"[ 5.66524032e-06 -1.18493194e-07  0.00000000e+00  0.00000000e+00
  0.00000000e+00 -4.13236916e-07 -1.18493194e-07  4.61633611e-06
  0.00000000e+00  0.00000000e+00  0.00000000e+00  1.72924764e-08
  0.00000000e+00  0.00000000e+00  0.00000000e+00  0.00000000e+00
  0.00000000e+00  0.00000000e+00  0.00000000e+00  0.00000000e+00
  0.00000000e+00  0.00000000e+00  0.00000000e+00  0.00000000e+00
  0.00000000e+00  0.00000000e+00  0.00000000e+00  0.00000000e+00
  0.00000000e+00  0.00000000e+00 -4.13236916e-07  1.72924764e-08
  0.00000000e+00  0.00000000e+00  0.00000000e+00  3.09084508e-06]","[[-1.26530699e-04  2.02590351e-03]
 [-4.70572848e-05 -2.25012401e-03]]",[],0.0,0.0
1787304801.428451,1.5094242375215854,-0.47208048986007595,0.46065650578061496,"[ 5.66524032e-06 -1.18493194e-07  0.00000000e+00  0.00000000e+00
  0.00000000e+00 -4.13236916e-07 -1.18493194e-07  4.61633611e-06
  0.00000000e+00  0.00000000e+00  0.00000000e+00  1.72924764e-08
  0.00000000e+00  0.00000000e+00  0.00000000e+00  0.00000000e+00
  0.00000000e+00  0.00000000e+00  0.00000000e+00  0.00000000e+00
  0.00000000e+00  0.00000000e+00  0.00000000e+00  0.00000000e+00
  0.00000000e+00  0.00000000e+00  0.00000000e+00  0.00000000e+00
  0.00000000e+00  0.00000000e+00 -4.13236916e-07  1.72924764e-08
  0.00000000e+00  0.00000000e+00  0.00000000e+00  3.09084508e-06]","[[-1.26530699e-04  2.02590351e-03]
 [-4.70572848e-05 -2.25012401e-03]]",[],0.0,0.0
1787304801.4835389,1.5094242375215854,-0.47208048986007595,0.46065650578061496,"[ 5.66524032e-06 -1.18493194e-07  0.00000000e+00  0.00000000e+00
  0.00000000e+00 -4.13236916e-07 -1.18493194e-07  4.61633611e-06
  0.00000000e+00  0.00000000e+00  0.00000000e+00  1.72924764e-08
  0.00000000e+00  0.00000000e+00  0.00000000e+00  0.00000000e+00
  0.00000000e+00  0.00000000e+00  0.00000000e+00  0.00000000e+00
  0.00000000e+00  0.00000000e+00  0.00000000e+00  0.00000000e+00
  0.00000000e+00  0.00000000e+00  0.00000000e+00  0.00000000e+00
  0.00000000e+00  0.00000000e+00 -4.13236916e-07  1.72924764e-08
  0.00000000e+00  0.00000000e+00  0.00000000e+00  3.09084508e-06]","[[-1.26530699e-04  2.02590351e-03]
 [-4.70572848e-05 -2.25012401e-03]]",[],0.0,0.0
1787304801.5265086,1.5094242375215854,-0.47208048986007595,0.46065650578061496,"[ 5.66524032e-06 -1.18493194e-07  0.00000000e+00  0.00000000e+00
  0.00000000e+00 -4.13236916e-07 -1.18493194e-07  4.61633611e-06
  0.00000000e+00  0.00000000e+00  0.00000000e+00  1.72924764e-08
  0.00000000e+00  0.00000000e+00  0.00000000e+00  0.00000000e+00
  0.00000000e+00  0.00000000e+00  0.00000000e+00  0.00000000e+00
  0.00000000e+00  0.00000000e+00  0.00000000e+00  0.00000000e+00
  0.00000000e+00  0.00000000e+00  0.00000000e+00  0.00000000e+00
  0.00000000e+00  0.00000000e+00 -4.13236916e-07  1.72924764e-08
  0.00000000e+00  0.00000000e+00  0.00000000e+00  3.09084508e-06]","[[-1.26530699e-04  2.02590351e-03]
 [-4.70572848e-05 -2.25012401e-03]]",[],0.0,0.0
1787304801.5765948,1.5094242375215854,-0.47208048986007595,0.46065650578061496,"[ 5.66524032e-06 -1.18493194e-07  0.00000000e+00  0.00000000e+00
  0.00000000e+00 -4.13236916e-07 -1.18493194e-07  4.61633611e-06
  0.00000000e+00  0.00000000e+00  0.00000000e+00  1.72924764e-08
  0.00000000e+00  0.00000000e+00  0.00000000e+00  0.00000000e+00
  0.00000000e+00  0.00000000e+00  0.00000000e+00  0.00000000e+00
  0.00000000e+00  0.00000000e+00  0.00000000e+00  0.00000000e+00
  0.00000000e+00  0.00000000e+00  0.00000000e+00  0.00000000e+00
  0.00000000e+00  0.00000000e+00 -4.13236916e-07  1.72924764e-08
  0.00000000e+00  0.00000000e+00  0.00000000e+00  3.09084508e-06]","[[-1.26530699e-04  2.02590351e-03]
 [-4.70572848e-05 -2.25012401e-03]]",[],0.0,0.0
1787304801.6336324,1.5094242375215854,-0.47208048986007595,0.46065650578061496,"[ 5.66524032e-06 -1.18493194e-07  0.00000000e+00  0.00000000e+00
  0.00000000e+00 -4.13236916e-07 -1.18493194e-07  4.61633611e-06
  0.00000000e+00  0.00000000e+00  0.00000000e+00  1.72924764e-08
  0.00000000e+00  0.00000000e+00  0.00000000e+00  0.00000000e+00
  0.00000000e+00  0.00000000e+00  0.00000000e+00  0.00000000e+00
  0.00000000e+00  0.00000000e+00  0.00000000e+00  0.00000000e+00
  0.00000000e+00  0.00000000e+00  0.00000000e+00  0.00000000e+00
  0.00000000e+00  0.00000000e+00 -4.13236916e-07  1.72924764e-08
  0.00000000e+00  0.00000000e+00  0.00000000e+00  3.09084508e-06]","[[-1.26530699e-04  2.02590351e-03]
 [-4.70572848e-05 -2.25012401e-03]]",[],0.0,0.0
1787304801.7072413,1.5094242375215854,-0.47208048986007595,0.46065650578061496,"[ 5.66524032e-06 -1.18493194e-07  0.00000000e+00  0.00000000e+00
  0.00000000e+00 -4.13236916e-07 -1.18493194e-07  4.61633611e-06
  0.00000000e+00  0.00000000e+00  0.00000000e+00  1.72924764e-08
  0.00000000e+00  0.00000000e+00  0.00000000e+00  0.00000000e+00
  0.00000000e+00  0.00000000e+00  0.00000000e+00  0.00000000e+00
  0.00000000e+00  0.00000000e+00  0.00000000e+00  0.00000000e+00
  0.00000000e+00  0.00000000e+00  0.00000000e+00  0.00000000e+00
  0.00000000e+00  0.00000000e+00 -4.13236916e-07  1.72924764e-08
  0.00000000e+00  0.00000000e+00  0.00000000e+00  3.09084508e-06]","[[-1.26530699e-04  2.02590351e-03]
 [-4.70572848e-05 -2.25012401e-03]]",[],0.0,0.0
1787304801.7845485,1.5094242375215854,-0.47208048986007595,0.46065650578061496,"[ 5.66524032e-06 -1.18493194e-07  0.00000000e+00  0.00000000e+00
  0.00000000e+00 -4.13236916e-07 -1.18493194e-07  4.61633611e-06
  0.00000000e+00  0.00000000e+00  0.00000000e+00  1.72924764e-08
  0.00000000e+00  0.00000000e+00  0.00000000e+00  0.00000000e+00
  0.00000000e+00  0.00000000e+00  0.00000000e+00  0.00000000e+00
  0.00000000e+00  0.00000000e+00  0.00000000e+00  0.00000000e+00
  0.00000000e+00  0.00000000e+00  0.00000000e+00  0.00000000e+00
  0.00000000e+00  0.00000000e+00 -4.13236916e-07  1.72924764e-08
  0.00000000e+00  0.00000000e+00  0.00000000e+00  3.09084508e-06]","[[-1.26530699e-04  2.02590351e-03]
 [-4.70572848e-05 -2.25012401e-03]]",[],0.0,0.0
1787304801.83162,1.5094242375215854,-0.47208048986007595,0.46065650578061496,"[ 5.66524032e-06 -1.18493194e-07  0.00000000e+00  0.00000000e+00
  0.00000000e+00 -4.13236916e-07 -1.18493194e-07  4.61633611e-06
  0.00000000e+00  0.00000000e+00  0.00000000e+00  1.72924764e-08
  0.00000000e+00  0.00000000e+00  0.00000000e+00  0.00000000e+00
  0.00000000e+00  0.00000000e+00  0.00000000e+00  0.00000000e+00
  0.00000000e+00  0.00000000e+00  0.00000000e+00  0.00000000e+00
  0.00000000e+00  0.00000000e+00  0.00000000e+00  0.00000000e+00
  0.00000000e+00  0.00000000e+00 -4.13236916e-07  1.72924764e-08
  0.00000000e+00  0.00000000e+00  0.00000000e+00  3.09084508e-06]","[[-1.26530699e-04  2.02590351e-03]
 [-4.70572848e-05 -2.25012401e-03]]",[],0.0,0.0
1787304801.892582,1.5094242375215854,-0.47208048986007595,0.46065650578061496,"[ 5.66524032e-06 -1.18493194e-07  0.00000000e+00  0.00000000e+00
  0.00000000e+00 -4.13236916e-07 -1.18493194e-07  4.61633611e-06
  0.00000000e+00  0.00000000e+00  0.00000000e+00  1.72924764e-08
  0.00000000e+00  0.00000000e+00  0.00000000e+00  0.00000000e+00
  0.00000000e+00  0.00000000e+00  0.00000000e+00  0.00000000e+00
  0.00000000e+00  0.00000000e+00  0.00000000e+00  0.00000000e+00
  0.00000000e+00  0.00000000e+00  0.00000000e+00  0.00000000e+00
  0.00000000e+00  0.00000000e+00 -4.13236916e-07  1.72924764e-08
  0.00000000e+00  0.00000000e+00  0.00000000e+00  3.09084508e-06]","[[-1.26530699e-04  2.02590351e-03]
 [-4.70572848e-05 -2.25012401e-03]]",[],0.0,0.0
1787304801.9275718,1.5150084385997922,-0.46965539919743343,0.473634230308321,"[ 5.28744445e-06 -1.40478020e-08  0.00000000e+00  0.00000000e+00
  0.00000000e+00 -3.62116917e-07 -1.40478020e-08  4.21707305e-06
  0.00000000e+00  0.00000000e+00  0.00000000e+00  5.46886862e-08
  0.00000000e+00  0.00000000e+00  0.00000000e+00  0.00000000e+00
  0.00000000e+00  0.00000000e+00  0.00000000e+00  0.00000000e+00
  0.00000000e+00  0.00000000e+00  0.00000000e+00  0.00000000e+00
  0.00000000e+00  0.00000000e+00  0.00000000e+00  0.00000000e+00
  0.00000000e+00  0.00000000e+00 -3.62116917e-07  5.46886862e-08
  0.00000000e+00  0.00000000e+00  0.00000000e+00  3.15931260e-06]","[[-1.19122680e-04  1.81027071e-03]
 [-4.51292894e-05 -2.10475987e-03]]",[],0.0,0.0
1787304802.0075994,1.5150084385997922,-0.46965539919743343,0.473634230308321,"[ 5.28744445e-06 -1.40478020e-08  0.00000000e+00  0.00000000e+00
  0.00000000e+00 -3.62116917e-07 -1.40478020e-08  4.21707305e-06
  0.00000000e+00  0.00000000e+00  0.00000000e+00  5.46886862e-08
  0.00000000e+00  0.00000000e+00  0.00000000e+00  0.00000000e+00
  0.00000000e+00  0.00000000e+00  0.00000000e+00  0.00000000e+00
  0.00000000e+00  0.00000000e+00  0.00000000e+00  0.00000000e+00
  0.00000000e+00  0.00000000e+00  0.00000000e+00  0.00000000e+00
  0.00000000e+00  0.00000000e+00 -3.62116917e-07  5.46886862e-08
  0.00000000e+00  0.00000000e+00  0.00000000e+00  3.15931260e-06]","[[-1.19122680e-04  1.81027071e-03]
 [-4.51292894e-05 -2.10475987e-03]]",[],0.0,0.0
1787304802.0320377,1.5150084385997922,-0.46965539919743343,0.473634230308321,"[ 5.28744445e-06 -1.40478020e-08  0.00000000e+00  0.00000000e+00
  0.00000000e+00 -3.62116917e-07 -1.40478020e-08  4.21707305e-06
  0.00000000e+00  0.00000000e+00  0.00000000e+00  5.46886862e-08
  0.00000000e+00  0.00000000e+00  0.00000000e+00  0.00000000e+00
  0.00000000e+00  0.00000000e+00  0.00000000e+00  0.00000000e+00
  0.00000000e+00  0.00000000e+00  0.00000000e+00  0.00000000e+00
  0.00000000e+00  0.00000000e+00  0.00000000e+00  0.00000000e+00
  0.00000000e+00  0.00000000e+00 -3.62116917e-07  5.46886862e-08
  0.00000000e+00  0.00000000e+00  0.00000000e+00  3.15931260e-06]","[[-1.19122680e-04  1.81027071e-03]
 [-4.51292894e-05 -2.10475987e-03]]",[],0.0,0.0
1787304802.0817444,1.5150084385997922,-0.46965539919743343,0.473634230308321,"[ 5.28744445e-06 -1.40478020e-08  0.00000000e+00  0.00000000e+00
  0.00000000e+00 -3.62116917e-07 -1.40478020e-08  4.21707305e-06
  0.00000000e+00  0.00000000e+00  0.00000000e+00  5.46886862e-08
  0.00000000e+00  0.00000000e+00  0.00000000e+00  0.00000000e+00
  0.00000000e+00  0.00000000e+00  0.00000000e+00  0.00000000e+00
  0.00000000e+00  0.00000000e+00  0.00000000e+00  0.00000000e+00
  0.00000000e+00  0.00000000e+00  0.00000000e+00  0.00000000e+00
  0.00000000e+00  0.00000000e+00 -3.62116917e-07  5.46886862e-08
  0.00000000e+00  0.00000000e+00  0.00000000e+00  3.15931260e-06]","[[-1.19122680e-04  1.81027071e-03]
 [-4.51292894e-05 -2.10475987e-03]]",[],0.0,0.0
1787304802.1281855,1.5150084385997922,-0.46965539919743343,0.473634230308321,"[ 5.28744445e-06 -1.40478020e-08  0.00000000e+00  0.00000000e+00
  0.00000000e+00 -3.62116917e-07 -1.40478020e-08  4.21707305e-06
  0.00000000e+00  0.00000000e+00  0.00000000e+00  5.46886862e-08
  0.00000000e+00  0.00000000e+00  0.00000000e+00  0.00000000e+00
  0.00000000e+00  0.00000000e+00  0.00000000e+00  0.00000000e+00
  0.00000000e+00  0.00000000e+00  0.00000000e+00  0.00000000e+00
  0.00000000e+00  0.00000000e+00  0.00000000e+00  0.00000000e+00
  0.00000000e+00  0.00000000e+00 -3.62116917e-07  5.46886862e-08
  0.00000000e+00  0.00000000e+00  0.00000000e+00  3.15931260e-06]","[[-1.19122680e-04  1.81027071e-03]
 [-4.51292894e-05 -2.10475987e-03]]",[],0.0,0.0
1787304802.1766374,1.5150084385997922,-0.46965539919743343,0.473634230308321,"[ 5.28744445e-06 -1.40478020e-08  0.00000000e+00  0.00000000e+00
  0.00000000e+00 -3.62116917e-07 -1.40478020e-08  4.21707305e-06
  0.00000000e+00  0.00000000e+00  0.00000000e+00  5.46886862e-08
  0.00000000e+00  0.00000000e+00  0.00000000e+00  0.00000000e+00
  0.00000000e+00  0.00000000e+00  0.00000000e+00  0.00000000e+00
  0.00000000e+00  0.00000000e+00  0.00000000e+00  0.00000000e+00
  0.00000000e+00  0.00000000e+00  0.00000000e+00  0.00000000e+00
  0.00000000e+00  0.00000000e+00 -3.62116917e-07  5.46886862e-08
  0.00000000e+00  0.00000000e+00  0.00000000e+00  3.15931260e-06]","[[-1.19122680e-04  1.81027071e-03]
 [-4.51292894e-05 -2.10475987e-03]]",[],0.0,0.0
1787304802.3393462,1.5150084385997922,-0.46965539919743343,0.473634230308321,"[ 5.28744445e-06 -1.40478020e-08  0.00000000e+00  0.00000000e+00
  0.00000000e+00 -3.62116917e-07 -1.40478020e-08  4.21707305e-06
  0.00000000e+00  0.00000000e+00  0.00000000e+00  5.46886862e-08
  0.00000000e+00  0.00000000e+00  0.00000000e+00  0.00000000e+00
  0.00000000e+00  0.00000000e+00  0.00000000e+00  0.00000000e+00
  0.00000000e+00  0.00000000e+00  0.00000000e+00  0.00000000e+00
  0.00000000e+00  0.00000000e+00  0.00000000e+00  0.00000000e+00
  0.00000000e+00  0.00000000e+00 -3.62116917e-07  5.46886862e-08
  0.00000000e+00  0.00000000e+00  0.00000000e+00  3.15931260e-06]","[[-1.19122680e-04  1.81027071e-03]
 [-4.51292894e-05 -2.10475987e-03]]",[],0.0,0.0
1787304802.378489,1.5150084385997922,-0.46965539919743343,0.473634230308321,"[ 5.28744445e-06 -1.40478020e-08  0.00000000e+00  0.00000000e+00
  0.00000000e+00 -3.62116917e-07 -1.40478020e-08  4.21707305e-06
  0.00000000e+00  0.00000000e+00  0.00000000e+00  5.46886862e-08
  0.00000000e+00  0.00000000e+00  0.00000000e+00  0.00000000e+00
  0.00000000e+00  0.00000000e+00  0.00000000e+00  0.00000000e+00
  0.00000000e+00  0.00000000e+00  0.00000000e+00  0.00000000e+00
  0.00000000e+00  0.00000000e+00  0.00000000e+00  0.00000000e+00
  0.00000000e+00  0.00000000e+00 -3.62116917e-07  5.46886862e-08
  0.00000000e+00  0.00000000e+00  0.00000000e+00  3.15931260e-06]","[[-1.19122680e-04  1.81027071e-03]
 [-4.51292894e-05 -2.10475987e-03]]",[],0.0,0.0
1787304802.4275544,1.5150084385997922,-0.46965539919743343,0.473634230308321,"[ 5.28744445e-06 -1.40478020e-08  0.00000000e+00  0.00000000e+00
  0.00000000e+00 -3.62116917e-07 -1.40478020e-08  4.21707305e-06
  0.00000000e+00  0.00000000e+00  0.00000000e+00  5.46886862e-08
  0.00000000e+00  0.00000000e+00  0.00000000e+00  0.00000000e+00
  0.00000000e+00  0.00000000e+00  0.00000000e+00  0.00000000e+00
  0.00000000e+00  0.00000000e+00  0.00000000e+00  0.00000000e+00
  0.00000000e+00  0.00000000e+00  0.00000000e+00  0.00000000e+00
  0.00000000e+00  0.00000000e+00 -3.62116917e-07  5.46886862e-08
  0.00000000e+00  0.00000000e+00  0.00000000e+00  3.15931260e-06]","[[-1.19122680e-04  1.81027071e-03]
 [-4.51292894e-05 -2.10475987e-03]]",[],0.0,0.0
1787304802.486873,1.5150084385997922,-0.46965539919743343,0.473634230308321,"[ 5.28744445e-06 -1.40478020e-08  0.00000000e+00  0.00000000e+00
  0.00000000e+00 -3.62116917e-07 -1.40478020e-08  4.21707305e-06
  0.00000000e+00  0.00000000e+00  0.00000000e+00  5.46886862e-08
  0.00000000e+00  0.00000000e+00  0.00000000e+00  0.00000000e+00
  0.00000000e+00  0.00000000e+00  0.00000000e+00  0.00000000e+00
  0.00000000e+00  0.00000000e+00  0.00000000e+00  0.00000000e+00
  0.00000000e+00  0.00000000e+00  0.00000000e+00  0.00000000e+00
  0.00000000e+00  0.00000000e+00 -3.62116917e-07  5.46886862e-08
  0.00000000e+00  0.00000000e+00  0.00000000e+00  3.15931260e-06]","[[-1.19122680e-04  1.81027071e-03]
 [-4.51292894e-05 -2.10475987e-03]]",[],0.0,0.0
1787304802.5535772,1.5150084385997922,-0.46965539919743343,0.473634230308321,"[ 5.28744445e-06 -1.40478020e-08  0.00000000e+00  0.00000000e+00
  0.00000000e+00 -3.62116917e-07 -1.40478020e-08  4.21707305e-06
  0.00000000e+00  0.00000000e+00  0.00000000e+00  5.46886862e-08
  0.00000000e+00  0.00000000e+00  0.00000000e+00  0.00000000e+00
  0.00000000e+00  0.00000000e+00  0.00000000e+00  0.00000000e+00
  0.00000000e+00  0.00000000e+00  0.00000000e+00  0.00000000e+00
  0.00000000e+00  0.00000000e+00  0.00000000e+00  0.00000000e+00
  0.00000000e+00  0.00000000e+00 -3.62116917e-07  5.46886862e-08
  0.00000000e+00  0.00000000e+00  0.00000000e+00  3.15931260e-06]","[[-1.19122680e-04  1.81027071e-03]
 [-4.51292894e-05 -2.10475987e-03]]",[],0.0,0.0
1787304802.5853672,1.5150084385997922,-0.46965539919743343,0.473634230308321,"[ 5.28744445e-06 -1.40478020e-08  0.00000000e+00  0.00000000e+00
  0.00000000e+00 -3.62116917e-07 -1.40478020e-08  4.21707305e-06
  0.00000000e+00  0.00000000e+00  0.00000000e+00  5.46886862e-08
  0.00000000e+00  0.00000000e+00  0.00000000e+00  0.00000000e+00
  0.00000000e+00  0.00000000e+00  0.00000000e+00  0.00000000e+00
  0.00000000e+00  0.00000000e+00  0.00000000e+00  0.00000000e+00
  0.00000000e+00  0.00000000e+00  0.00000000e+00  0.00000000e+00
  0.00000000e+00  0.00000000e+00 -3.62116917e-07  5.46886862e-08
  0.00000000e+00  0.00000000e+00  0.00000000e+00  3.15931260e-06]","[[-1.19122680e-04  1.81027071e-03]
 [-4.51292894e-05 -2.10475987e-03]]",[],0.0,0.0
1787304802.9117906,1.5150084385997922,-0.46965539919743343,0.473634230308321,"[ 5.28744445e-06 -1.40478020e-08  0.00000000e+00  0.00000000e+00
  0.00000000e+00 -3.62116917e-07 -1.40478020e-08  4.21707305e-06
  0.00000000e+00  0.00000000e+00  0.00000000e+00  5.46886862e-08
  0.00000000e+00  0.00000000e+00  0.00000000e+00  0.00000000e+00
  0.00000000e+00  0.00000000e+00  0.00000000e+00  0.00000000e+00
  0.00000000e+00  0.00000000e+00  0.00000000e+00  0.00000000e+00
  0.00000000e+00  0.00000000e+00  0.00000000e+00  0.00000000e+00
  0.00000000e+00  0.00000000e+00 -3.62116917e-07  5.46886862e-08
  0.00000000e+00  0.00000000e+00  0.00000000e+00  3.15931260e-06]","[[-1.19122680e-04  1.81027071e-03]
 [-4.51292894e-05 -2.10475987e-03]]",[],0.0,0.0
1787304802.9297626,1.5150084385997922,-0.46965539919743343,0.473634230308321,"[ 5.28744445e-06 -1.40478020e-08  0.00000000e+00  0.00000000e+00
  0.00000000e+00 -3.62116917e-07 -1.40478020e-08  4.21707305e-06
  0.00000000e+00  0.00000000e+00  0.00000000e+00  5.46886862e-08
  0.00000000e+00  0.00000000e+00  0.00000000e+00  0.00000000e+00
  0.00000000e+00  0.00000000e+00  0.00000000e+00  0.00000000e+00
  0.00000000e+00  0.00000000e+00  0.00000000e+00  0.00000000e+00
  0.00000000e+00  0.00000000e+00  0.00000000e+00  0.00000000e+00
  0.00000000e+00  0.00000000e+00 -3.62116917e-07  5.46886862e-08
  0.00000000e+00  0.00000000e+00  0.00000000e+00  3.15931260e-06]","[[-1.19122680e-04  1.81027071e-03]
 [-4.51292894e-05 -2.10475987e-03]]",[],0.0,0.0
1787304802.979159,1.5150084385997922,-0.46965539919743343,0.473634230308321,"[ 5.28744445e-06 -1.40478020e-08  0.00000000e+00  0.00000000e+00
  0.00000000e+00 -3.62116917e-07 -1.40478020e-08  4.21707305e-06
  0.00000000e+00  0.00000000e+00  0.00000000e+00  5.46886862e-08
  0.00000000e+00  0.00000000e+00  0.00000000e+00  0.00000000e+00
  0.00000000e+00  0.00000000e+00  0.00000000e+00  0.00000000e+00
  0.00000000e+00  0.00000000e+00  0.00000000e+00  0.00000000e+00
  0.00000000e+00  0.00000000e+00  0.00000000e+00  0.00000000e+00
  0.00000000e+00  0.00000000e+00 -3.62116917e-07  5.46886862e-08
  0.00000000e+00  0.00000000e+00  0.00000000e+00  3.15931260e-06]","[[-1.19122680e-04  1.81027071e-03]
 [-4.51292894e-05 -2.10475987e-03]]",[],0.0,0.0
1787304803.0516856,1.5244196326254869,-0.4657723865857197,0.4849028023611411,"[ 4.88443333e-06  3.42248551e-08  0.00000000e+00  0.00000000e+00
  0.00000000e+00 -3.26943228e-07  3.42248551e-08  3.85486369e-06
  0.00000000e+00  0.00000000e+00  0.00000000e+00 -2.51709950e-08
  0.00000000e+00  0.00000000e+00  0.00000000e+00  0.00000000e+00
  0.00000000e+00  0.00000000e+00  0.00000000e+00  0.00000000e+00
  0.00000000e+00  0.00000000e+00  0.00000000e+00  0.00000000e+00
  0.00000000e+00  0.00000000e+00  0.00000000e+00  0.00000000e+00
  0.00000000e+00  0.00000000e+00 -3.26943228e-07 -2.51709950e-08
  0.00000000e+00  0.00000000e+00  0.00000000e+00  3.00524410e-06]","[[-1.10548147e-04  1.63955518e-03]
 [-4.23208676e-05 -1.79244194e-03]]",[],0.0,0.0
1787304803.0774615,1.5244196326254869,-0.4657723865857197,0.4849028023611411,"[ 4.88443333e-06  3.42248551e-08  0.00000000e+00  0.00000000e+00
  0.00000000e+00 -3.26943228e-07  3.42248551e-08  3.85486369e-06
  0.00000000e+00  0.00000000e+00  0.00000000e+00 -2.51709950e-08
  0.00000000e+00  0.00000000e+00  0.00000000e+00  0.00000000e+00
  0.00000000e+00  0.00000000e+00  0.00000000e+00  0.00000000e+00
  0.00000000e+00  0.00000000e+00  0.00000000e+00  0.00000000e+00
  0.00000000e+00  0.00000000e+00  0.00000000e+00  0.00000000e+00
  0.00000000e+00  0.00000000e+00 -3.26943228e-07 -2.51709950e-08
  0.00000000e+00  0.00000000e+00  0.00000000e+00  3.00524410e-06]","[[-1.10548147e-04  1.63955518e-03]
 [-4.23208676e-05 -1.79244194e-03]]",[],0.0,0.0
1787304803.4672225,1.5244196326254869,-0.4657723865857197,0.4849028023611411,"[ 4.88443333e-06  3.42248551e-08  0.00000000e+00  0.00000000e+00
  0.00000000e+00 -3.26943228e-07  3.42248551e-08  3.85486369e-06
  0.00000000e+00  0.00000000e+00  0.00000000e+00 -2.51709950e-08
  0.00000000e+00  0.00000000e+00  0.00000000e+00  0.00000000e+00
  0.00000000e+00  0.00000000e+00  0.00000000e+00  0.00000000e+00
  0.00000000e+00  0.00000000e+00  0.00000000e+00  0.00000000e+00
  0.00000000e+00  0.00000000e+00  0.00000000e+00  0.00000000e+00
  0.00000000e+00  0.00000000e+00 -3.26943228e-07 -2.51709950e-08
  0.00000000e+00  0.00000000e+00  0.00000000e+00  3.00524410e-06]","[[-1.10548147e-04  1.63955518e-03]
 [-4.23208676e-05 -1.79244194e-03]]",[],0.0,0.0
1787304803.484436,1.5244196326254869,-0.4657723865857197,0.4849028023611411,"[ 4.88443333e-06  3.42248551e-08  0.00000000e+00  0.00000000e+00
  0.00000000e+00 -3.26943228e-07  3.42248551e-08  3.85486369e-06
  0.00000000e+00  0.00000000e+00  0.00000000e+00 -2.51709950e-08
  0.00000000e+00  0.00000000e+00  0.00000000e+00  0.00000000e+00
  0.00000000e+00  0.00000000e+00  0.00000000e+00  0.00000000e+00
  0.00000000e+00  0.00000000e+00  0.00000000e+00  0.00000000e+00
  0.00000000e+00  0.00000000e+00  0.00000000e+00  0.00000000e+00
  0.00000000e+00  0.00000000e+00 -3.26943228e-07 -2.51709950e-08
  0.00000000e+00  0.00000000e+00  0.00000000e+00  3.00524410e-06]","[[-1.10548147e-04  1.63955518e-03]
 [-4.23208676e-05 -1.79244194e-03]]",[],0.0,0.0
1787304803.5590627,1.5244196326254869,-0.4657723865857197,0.4849028023611411,"[ 4.88443333e-06  3.42248551e-08  0.00000000e+00  0.00000000e+00
  0.00000000e+00 -3.26943228e-07  3.42248551e-08  3.85486369e-06
  0.00000000e+00  0.00000000e+00  0.00000000e+00 -2.51709950e-08
  0.00000000e+00  0.00000000e+00  0.00000000e+00  0.00000000e+00
  0.00000000e+00  0.00000000e+00  0.00000000e+00  0.00000000e+00
  0.00000000e+00  0.00000000e+00  0.00000000e+00  0.00000000e+00
  0.00000000e+00  0.00000000e+00  0.00000000e+00  0.00000000e+00
  0.00000000e+00  0.00000000e+00 -3.26943228e-07 -2.51709950e-08
  0.00000000e+00  0.00000000e+00  0.00000000e+00  3.00524410e-06]","[[-1.10548147e-04  1.63955518e-03]
 [-4.23208676e-05 -1.79244194e-03]]",[],0.0,0.0
1787304803.5960448,1.5244196326254869,-0.4657723865857197,0.4849028023611411,"[ 4.88443333e-06  3.42248551e-08  0.00000000e+00  0.00000000e+00
  0.00000000e+00 -3.26943228e-07  3.42248551e-08  3.85486369e-06
  0.00000000e+00  0.00000000e+00  0.00000000e+00 -2.51709950e-08
  0.00000000e+00  0.00000000e+00  0.00000000e+00  0.00000000e+00
  0.00000000e+00  0.00000000e+00  0.00000000e+00  0.00000000e+00
  0.00000000e+00  0.00000000e+00  0.00000000e+00  0.00000000e+00
  0.00000000e+00  0.00000000e+00  0.00000000e+00  0.00000000e+00
  0.00000000e+00  0.00000000e+00 -3.26943228e-07 -2.51709950e-08
  0.00000000e+00  0.00000000e+00  0.00000000e+00  3.00524410e-06]","[[-1.10548147e-04  1.63955518e-03]
 [-4.23208676e-05 -1.79244194e-03]]",[],0.0,0.0
1787304803.6849527,1.5244196326254869,-0.4657723865857197,0.4849028023611411,"[ 4.88443333e-06  3.42248551e-08  0.00000000e+00  0.00000000e+00
  0.00000000e+00 -3.26943228e-07  3.42248551e-08  3.85486369e-06
  0.00000000e+00  0.00000000e+00  0.00000000e+00 -2.51709950e-08
  0.00000000e+00  0.00000000e+00  0.00000000e+00  0.00000000e+00
  0.00000000e+00  0.00000000e+00  0.00000000e+00  0.00000000e+00
  0.00000000e+00  0.00000000e+00  0.00000000e+00  0.00000000e+00
  0.00000000e+00  0.00000000e+00  0.00000000e+00  0.00000000e+00
  0.00000000e+00  0.00000000e+00 -3.26943228e-07 -2.51709950e-08
  0.00000000e+00  0.00000000e+00  0.00000000e+00  3.00524410e-06]","[[-1.10548147e-04  1.63955518e-03]
 [-4.23208676e-05 -1.79244194e-03]]",[],0.0,0.0
1787304803.7797437,1.5244196326254869,-0.4657723865857197,0.4849028023611411,"[ 4.88443333e-06  3.42248551e-08  0.00000000e+00  0.00000000e+00
  0.00000000e+00 -3.26943228e-07  3.42248551e-08  3.85486369e-06
  0.00000000e+00  0.00000000e+00  0.00000000e+00 -2.51709950e-08
  0.00000000e+00  0.00000000e+00  0.00000000e+00  0.00000000e+00
  0.00000000e+00  0.00000000e+00  0.00000000e+00  0.00000000e+00
  0.00000000e+00  0.00000000e+00  0.00000000e+00  0.00000000e+00
  0.00000000e+00  0.00000000e+00  0.00000000e+00  0.00000000e+00
  0.00000000e+00  0.00000000e+00 -3.26943228e-07 -2.51709950e-08
  0.00000000e+00  0.00000000e+00  0.00000000e+00  3.00524410e-06]","[[-1.10548147e-04  1.63955518e-03]
 [-4.23208676e-05 -1.79244194e-03]]",[],0.0,0.0
1787304803.876304,1.5244196326254869,-0.4657723865857197,0.4849028023611411,"[ 4.88443333e-06  3.42248551e-08  0.00000000e+00  0.00000000e+00
  0.00000000e+00 -3.26943228e-07  3.42248551e-08  3.85486369e-06
  0.00000000e+00  0.00000000e+00  0.00000000e+00 -2.51709950e-08
  0.00000000e+00  0.00000000e+00  0.00000000e+00  0.00000000e+00
  0.00000000e+00  0.00000000e+00  0.00000000e+00  0.00000000e+00
  0.00000000e+00  0.00000000e+00  0.00000000e+00  0.00000000e+00
  0.00000000e+00  0.00000000e+00  0.00000000e+00  0.00000000e+00
  0.00000000e+00  0.00000000e+00 -3.26943228e-07 -2.51709950e-08
  0.00000000e+00  0.00000000e+00  0.00000000e+00  3.00524410e-06]","[[-1.10548147e-04  1.63955518e-03]
 [-4.23208676e-05 -1.79244194e-03]]",[],0.0,0.0
1787304803.8900495,1.5244196326254869,-0.4657723865857197,0.4849028023611411,"[ 4.88443333e-06  3.42248551e-08  0.00000000e+00  0.00000000e+00
  0.00000000e+00 -3.26943228e-07  3.42248551e-08  3.85486369e-06
  0.00000000e+00  0.00000000e+00  0.00000000e+00 -2.51709950e-08
  0.00000000e+00  0.00000000e+00  0.00000000e+00  0.00000000e+00
  0.00000000e+00  0.00000000e+00  0.00000000e+00  0.00000000e+00
  0.00000000e+00  0.00000000e+00  0.00000000e+00  0.00000000e+00
  0.00000000e+00  0.00000000e+00  0.00000000e+00  0.00000000e+00
  0.00000000e+00  0.00000000e+00 -3.26943228e-07 -2.51709950e-08
  0.00000000e+00  0.00000000e+00  0.00000000e+00  3.00524410e-06]","[[-1.10548147e-04  1.63955518e-03]
 [-4.23208676e-05 -1.79244194e-03]]",[],0.0,0.0
1787304803.9348862,1.5244196326254869,-0.4657723865857197,0.4849028023611411,"[ 4.88443333e-06  3.42248551e-08  0.00000000e+00  0.00000000e+00
  0.00000000e+00 -3.26943228e-07  3.42248551e-08  3.85486369e-06
  0.00000000e+00  0.00000000e+00  0.00000000e+00 -2.51709950e-08
  0.00000000e+00  0.00000000e+00  0.00000000e+00  0.00000000e+00
  0.00000000e+00  0.00000000e+00  0.00000000e+00  0.00000000e+00
  0.00000000e+00  0.00000000e+00  0.00000000e+00  0.00000000e+00
  0.00000000e+00  0.00000000e+00  0.00000000e+00  0.00000000e+00
  0.00000000e+00  0.00000000e+00 -3.26943228e-07 -2.51709950e-08
  0.00000000e+00  0.00000000e+00  0.00000000e+00  3.00524410e-06]","[[-1.10548147e-04  1.63955518e-03]
 [-4.23208676e-05 -1.79244194e-03]]",[],0.0,0.0
1787304803.9770699,1.5244196326254869,-0.4657723865857197,0.4849028023611411,"[ 4.88443333e-06  3.42248551e-08  0.00000000e+00  0.00000000e+00
  0.00000000e+00 -3.26943228e-07  3.42248551e-08  3.85486369e-06
  0.00000000e+00  0.00000000e+00  0.00000000e+00 -2.51709950e-08
  0.00000000e+00  0.00000000e+00  0.00000000e+00  0.00000000e+00
  0.00000000e+00  0.00000000e+00  0.00000000e+00  0.00000000e+00
  0.00000000e+00  0.00000000e+00  0.00000000e+00  0.00000000e+00
  0.00000000e+00  0.00000000e+00  0.00000000e+00  0.00000000e+00
  0.00000000e+00  0.00000000e+00 -3.26943228e-07 -2.51709950e-08
  0.00000000e+00  0.00000000e+00  0.00000000e+00  3.00524410e-06]","[[-1.10548147e-04  1.63955518e-03]
 [-4.23208676e-05 -1.79244194e-03]]",[],0.0,0.0
1787304804.0293522,1.5303342251939247,-0.4649188794768577,0.49497237855652765,"[ 4.61247118e-06  1.26317034e-07  0.00000000e+00  0.00000000e+00
  0.00000000e+00 -3.15173344e-07  1.26317034e-07  3.59155930e-06
  0.00000000e+00  0.00000000e+00  0.00000000e+00 -4.68951485e-09
  0.00000000e+00  0.00000000e+00  0.00000000e+00  0.00000000e+00
  0.00000000e+00  0.00000000e+00  0.00000000e+00  0.00000000e+00
  0.00000000e+00  0.00000000e+00  0.00000000e+00  0.00000000e+00
  0.00000000e+00  0.00000000e+00  0.00000000e+00  0.00000000e+00
  0.00000000e+00  0.00000000e+00 -3.15173344e-07 -4.68951485e-09
  0.00000000e+00  0.00000000e+00  0.00000000e+00  3.06542059e-06]","[[-1.05397693e-04  1.51763474e-03]
 [-4.15744103e-05 -1.68483584e-03]]",[],0.0,0.0
1787304804.0765724,1.5303342251939247,-0.4649188794768577,0.49497237855652765,"[ 4.61247118e-06  1.26317034e-07  0.00000000e+00  0.00000000e+00
  0.00000000e+00 -3.15173344e-07  1.26317034e-07  3.59155930e-06
  0.00000000e+00  0.00000000e+00  0.00000000e+00 -4.68951485e-09
  0.00000000e+00  0.00000000e+00  0.00000000e+00  0.00000000e+00
  0.00000000e+00  0.00000000e+00  0.00000000e+00  0.00000000e+00
  0.00000000e+00  0.00000000e+00  0.00000000e+00  0.00000000e+00
  0.00000000e+00  0.00000000e+00  0.00000000e+00  0.00000000e+00
  0.00000000e+00  0.00000000e+00 -3.15173344e-07 -4.68951485e-09
  0.00000000e+00  0.00000000e+00  0.00000000e+00  3.06542059e-06]","[[-1.05397693e-04  1.51763474e-03]
 [-4.15744103e-05 -1.68483584e-03]]",[],0.0,0.0
1787304804.1273308,1.5303342251939247,-0.4649188794768577,0.49497237855652765,"[ 4.61247118e-06  1.26317034e-07  0.00000000e+00  0.00000000e+00
  0.00000000e+00 -3.15173344e-07  1.26317034e-07  3.59155930e-06
  0.00000000e+00  0.00000000e+00  0.00000000e+00 -4.68951485e-09
  0.00000000e+00  0.00000000e+00  0.00000000e+00  0.00000000e+00
  0.00000000e+00  0.00000000e+00  0.00000000e+00  0.00000000e+00
  0.00000000e+00  0.00000000e+00  0.00000000e+00  0.00000000e+00
  0.00000000e+00  0.00000000e+00  0.00000000e+00  0.00000000e+00
  0.00000000e+00  0.00000000e+00 -3.15173344e-07 -4.68951485e-09
  0.00000000e+00  0.00000000e+00  0.00000000e+00  3.06542059e-06]","[[-1.05397693e-04  1.51763474e-03]
 [-4.15744103e-05 -1.68483584e-03]]",[],0.0,0.0
1787304804.1880836,1.5303342251939247,-0.4649188794768577,0.49497237855652765,"[ 4.61247118e-06  1.26317034e-07  0.00000000e+00  0.00000000e+00
  0.00000000e+00 -3.15173344e-07  1.26317034e-07  3.59155930e-06
  0.00000000e+00  0.00000000e+00  0.00000000e+00 -4.68951485e-09
  0.00000000e+00  0.00000000e+00  0.00000000e+00  0.00000000e+00
  0.00000000e+00  0.00000000e+00  0.00000000e+00  0.00000000e+00
  0.00000000e+00  0.00000000e+00  0.00000000e+00  0.00000000e+00
  0.00000000e+00  0.00000000e+00  0.00000000e+00  0.00000000e+00
  0.00000000e+00  0.00000000e+00 -3.15173344e-07 -4.68951485e-09
  0.00000000e+00  0.00000000e+00  0.00000000e+00  3.06542059e-06]","[[-1.05397693e-04  1.51763474e-03]
 [-4.15744103e-05 -1.68483584e-03]]",[],0.0,0.0
1787304804.2265055,1.5303342251939247,-0.4649188794768577,0.49497237855652765,"[ 4.61247118e-06  1.26317034e-07  0.00000000e+00  0.00000000e+00
  0.00000000e+00 -3.15173344e-07  1.26317034e-07  3.59155930e-06
  0.00000000e+00  0.00000000e+00  0.00000000e+00 -4.68951485e-09
  0.00000000e+00  0.00000000e+00  0.00000000e+00  0.00000000e+00
  0.00000000e+00  0.00000000e+00  0.00000000e+00  0.00000000e+00
  0.00000000e+00  0.00000000e+00  0.00000000e+00  0.00000000e+00
  0.00000000e+00  0.00000000e+00  0.00000000e+00  0.00000000e+00
  0.00000000e+00  0.00000000e+00 -3.15173344e-07 -4.68951485e-09
  0.00000000e+00  0.00000000e+00  0.00000000e+00  3.06542059e-06]","[[-1.05397693e-04  1.51763474e-03]
 [-4.15744103e-05 -1.68483584e-03]]",[],0.0,0.0
1787304804.2794404,1.5303342251939247,-0.4649188794768577,0.49497237855652765,"[ 4.61247118e-06  1.26317034e-07  0.00000000e+00  0.00000000e+00
  0.00000000e+00 -3.15173344e-07  1.26317034e-07  3.59155930e-06
  0.00000000e+00  0.00000000e+00  0.00000000e+00 -4.68951485e-09
  0.00000000e+00  0.00000000e+00  0.00000000e+00  0.00000000e+00
  0.00000000e+00  0.00000000e+00  0.00000000e+00  0.00000000e+00
  0.00000000e+00  0.00000000e+00  0.00000000e+00  0.00000000e+00
  0.00000000e+00  0.00000000e+00  0.00000000e+00  0.00000000e+00
  0.00000000e+00  0.00000000e+00 -3.15173344e-07 -4.68951485e-09
  0.00000000e+00  0.00000000e+00  0.00000000e+00  3.06542059e-06]","[[-1.05397693e-04  1.51763474e-03]
 [-4.15744103e-05 -1.68483584e-03]]",[],0.0,0.0
1787304804.32681,1.5303342251939247,-0.4649188794768577,0.49497237855652765,"[ 4.61247118e-06  1.26317034e-07  0.00000000e+00  0.00000000e+00
  0.00000000e+00 -3.15173344e-07  1.26317034e-07  3.59155930e-06
  0.00000000e+00  0.00000000e+00  0.00000000e+00 -4.68951485e-09
  0.00000000e+00  0.00000000e+00  0.00000000e+00  0.00000000e+00
  0.00000000e+00  0.00000000e+00  0.00000000e+00  0.00000000e+00
  0.00000000e+00  0.00000000e+00  0.00000000e+00  0.00000000e+00
  0.00000000e+00  0.00000000e+00  0.00000000e+00  0.00000000e+00
  0.00000000e+00  0.00000000e+00 -3.15173344e-07 -4.68951485e-09
  0.00000000e+00  0.00000000e+00  0.00000000e+00  3.06542059e-06]","[[-1.05397693e-04  1.51763474e-03]
 [-4.15744103e-05 -1.68483584e-03]]",[],0.0,0.0
1787304804.3819013,1.5303342251939247,-0.4649188794768577,0.49497237855652765,"[ 4.61247118e-06  1.26317034e-07  0.00000000e+00  0.00000000e+00
  0.00000000e+00 -3.15173344e-07  1.26317034e-07  3.59155930e-06
  0.00000000e+00  0.00000000e+00  0.00000000e+00 -4.68951485e-09
  0.00000000e+00  0.00000000e+00  0.00000000e+00  0.00000000e+00
  0.00000000e+00  0.00000000e+00  0.00000000e+00  0.00000000e+00
  0.00000000e+00  0.00000000e+00  0.00000000e+00  0.00000000e+00
  0.00000000e+00  0.00000000e+00  0.00000000e+00  0.00000000e+00
  0.00000000e+00  0.00000000e+00 -3.15173344e-07 -4.68951485e-09
  0.00000000e+00  0.00000000e+00  0.00000000e+00  3.06542059e-06]","[[-1.05397693e-04  1.51763474e-03]
 [-4.15744103e-05 -1.68483584e-03]]",[],0.0,0.0
1787304804.438076,1.5303342251939247,-0.4649188794768577,0.49497237855652765,"[ 4.61247118e-06  1.26317034e-07  0.00000000e+00  0.00000000e+00
  0.00000000e+00 -3.15173344e-07  1.26317034e-07  3.59155930e-06
  0.00000000e+00  0.00000000e+00  0.00000000e+00 -4.68951485e-09
  0.00000000e+00  0.00000000e+00  0.00000000e+00  0.00000000e+00
  0.00000000e+00  0.00000000e+00  0.00000000e+00  0.00000000e+00
  0.00000000e+00  0.00000000e+00  0.00000000e+00  0.00000000e+00
  0.00000000e+00  0.00000000e+00  0.00000000e+00  0.00000000e+00
  0.00000000e+00  0.00000000e+00 -3.15173344e-07 -4.68951485e-09
  0.00000000e+00  0.00000000e+00  0.00000000e+00  3.06542059e-06]","[[-1.05397693e-04  1.51763474e-03]
 [-4.15744103e-05 -1.68483584e-03]]",[],0.0,0.0
1787304804.5111747,1.5303342251939247,-0.4649188794768577,0.49497237855652765,"[ 4.61247118e-06  1.26317034e-07  0.00000000e+00  0.00000000e+00
  0.00000000e+00 -3.15173344e-07  1.26317034e-07  3.59155930e-06
  0.00000000e+00  0.00000000e+00  0.00000000e+00 -4.68951485e-09
  0.00000000e+00  0.00000000e+00  0.00000000e+00  0.00000000e+00
  0.00000000e+00  0.00000000e+00  0.00000000e+00  0.00000000e+00
  0.00000000e+00  0.00000000e+00  0.00000000e+00  0.00000000e+00
  0.00000000e+00  0.00000000e+00  0.00000000e+00  0.00000000e+00
  0.00000000e+00  0.00000000e+00 -3.15173344e-07 -4.68951485e-09
  0.00000000e+00  0.00000000e+00  0.00000000e+00  3.06542059e-06]","[[-1.05397693e-04  1.51763474e-03]
 [-4.15744103e-05 -1.68483584e-03]]",[],0.0,0.0
1787304804.5267622,1.5303342251939247,-0.4649188794768577,0.49497237855652765,"[ 4.61247118e-06  1.26317034e-07  0.00000000e+00  0.00000000e+00
  0.00000000e+00 -3.15173344e-07  1.26317034e-07  3.59155930e-06
  0.00000000e+00  0.00000000e+00  0.00000000e+00 -4.68951485e-09
  0.00000000e+00  0.00000000e+00  0.00000000e+00  0.00000000e+00
  0.00000000e+00  0.00000000e+00  0.00000000e+00  0.00000000e+00
  0.00000000e+00  0.00000000e+00  0.00000000e+00  0.00000000e+00
  0.00000000e+00  0.00000000e+00  0.00000000e+00  0.00000000e+00
  0.00000000e+00  0.00000000e+00 -3.15173344e-07 -4.68951485e-09
  0.00000000e+00  0.00000000e+00  0.00000000e+00  3.06542059e-06]","[[-1.05397693e-04  1.51763474e-03]
 [-4.15744103e-05 -1.68483584e-03]]",[],0.0,0.0
1787304804.5784552,1.5303342251939247,-0.4649188794768577,0.49497237855652765,"[ 4.61247118e-06  1.26317034e-07  0.00000000e+00  0.00000000e+00
  0.00000000e+00 -3.15173344e-07  1.26317034e-07  3.59155930e-06
  0.00000000e+00  0.00000000e+00  0.00000000e+00 -4.68951485e-09
  0.00000000e+00  0.00000000e+00  0.00000000e+00  0.00000000e+00
  0.00000000e+00  0.00000000e+00  0.00000000e+00  0.00000000e+00
  0.00000000e+00  0.00000000e+00  0.00000000e+00  0.00000000e+00
  0.00000000e+00  0.00000000e+00  0.00000000e+00  0.00000000e+00
  0.00000000e+00  0.00000000e+00 -3.15173344e-07 -4.68951485e-09
  0.00000000e+00  0.00000000e+00  0.00000000e+00  3.06542059e-06]","[[-1.05397693e-04  1.51763474e-03]
 [-4.15744103e-05 -1.68483584e-03]]",[],0.0,0.0
1787304804.626576,1.5303342251939247,-0.4649188794768577,0.49497237855652765,"[ 4.61247118e-06  1.26317034e-07  0.00000000e+00  0.00000000e+00
  0.00000000e+00 -3.15173344e-07  1.26317034e-07  3.59155930e-06
  0.00000000e+00  0.00000000e+00  0.00000000e+00 -4.68951485e-09
  0.00000000e+00  0.00000000e+00  0.00000000e+00  0.00000000e+00
  0.00000000e+00  0.00000000e+00  0.00000000e+00  0.00000000e+00
  0.00000000e+00  0.00000000e+00  0.00000000e+00  0.00000000e+00
  0.00000000e+00  0.00000000e+00  0.00000000e+00  0.00000000e+00
  0.00000000e+00  0.00000000e+00 -3.15173344e-07 -4.68951485e-09
  0.00000000e+00  0.00000000e+00  0.00000000e+00  3.06542059e-06]","[[-1.05397693e-04  1.51763474e-03]
 [-4.15744103e-05 -1.68483584e-03]]",[],0.0,0.0
1787304805.0207283,1.5303342251939247,-0.4649188794768577,0.49497237855652765,"[ 4.61247118e-06  1.26317034e-07  0.00000000e+00  0.00000000e+00
  0.00000000e+00 -3.15173344e-07  1.26317034e-07  3.59155930e-06
  0.00000000e+00  0.00000000e+00  0.00000000e+00 -4.68951485e-09
  0.00000000e+00  0.00000000e+00  0.00000000e+00  0.00000000e+00
  0.00000000e+00  0.00000000e+00  0.00000000e+00  0.00000000e+00
  0.00000000e+00  0.00000000e+00  0.00000000e+00  0.00000000e+00
  0.00000000e+00  0.00000000e+00  0.00000000e+00  0.00000000e+00
  0.00000000e+00  0.00000000e+00 -3.15173344e-07 -4.68951485e-09
  0.00000000e+00  0.00000000e+00  0.00000000e+00  3.06542059e-06]","[[-1.05397693e-04  1.51763474e-03]
 [-4.15744103e-05 -1.68483584e-03]]",[],0.0,0.0
1787304805.05846,1.5303342251939247,-0.4649188794768577,0.49497237855652765,"[ 4.61247118e-06  1.26317034e-07  0.00000000e+00  0.00000000e+00
  0.00000000e+00 -3.15173344e-07  1.26317034e-07  3.59155930e-06
  0.00000000e+00  0.00000000e+00  0.00000000e+00 -4.68951485e-09
  0.00000000e+00  0.00000000e+00  0.00000000e+00  0.00000000e+00
  0.00000000e+00  0.00000000e+00  0.00000000e+00  0.00000000e+00
  0.00000000e+00  0.00000000e+00  0.00000000e+00  0.00000000e+00
  0.00000000e+00  0.00000000e+00  0.00000000e+00  0.00000000e+00
  0.00000000e+00  0.00000000e+00 -3.15173344e-07 -4.68951485e-09
  0.00000000e+00  0.00000000e+00  0.00000000e+00  3.06542059e-06]","[[-1.05397693e-04  1.51763474e-03]
 [-4.15744103e-05 -1.68483584e-03]]",[],0.0,0.0
1787304805.0783045,1.5303342251939247,-0.4649188794768577,0.49497237855652765,"[ 4.61247118e-06  1.26317034e-07  0.00000000e+00  0.00000000e+00
  0.00000000e+00 -3.15173344e-07  1.26317034e-07  3.59155930e-06
  0.00000000e+00  0.00000000e+00  0.00000000e+00 -4.68951485e-09
  0.00000000e+00  0.00000000e+00  0.00000000e+00  0.00000000e+00
  0.00000000e+00  0.00000000e+00  0.00000000e+00  0.00000000e+00
  0.00000000e+00  0.00000000e+00  0.00000000e+00  0.00000000e+00
  0.00000000e+00  0.00000000e+00  0.00000000e+00  0.00000000e+00
  0.00000000e+00  0.00000000e+00 -3.15173344e-07 -4.68951485e-09
  0.00000000e+00  0.00000000e+00  0.00000000e+00  3.06542059e-06]","[[-1.05397693e-04  1.51763474e-03]
 [-4.15744103e-05 -1.68483584e-03]]",[],0.0,0.0
1787304805.305718,1.5303342251939247,-0.4649188794768577,0.49497237855652765,"[ 4.61247118e-06  1.26317034e-07  0.00000000e+00  0.00000000e+00
  0.00000000e+00 -3.15173344e-07  1.26317034e-07  3.59155930e-06
  0.00000000e+00  0.00000000e+00  0.00000000e+00 -4.68951485e-09
  0.00000000e+00  0.00000000e+00  0.00000000e+00  0.00000000e+00
  0.00000000e+00  0.00000000e+00  0.00000000e+00  0.00000000e+00
  0.00000000e+00  0.00000000e+00  0.00000000e+00  0.00000000e+00
  0.00000000e+00  0.00000000e+00  0.00000000e+00  0.00000000e+00
  0.00000000e+00  0.00000000e+00 -3.15173344e-07 -4.68951485e-09
  0.00000000e+00  0.00000000e+00  0.00000000e+00  3.06542059e-06]","[[-1.05397693e-04  1.51763474e-03]
 [-4.15744103e-05 -1.68483584e-03]]",[],0.0,0.0
1787304805.337388,1.5303342251939247,-0.4649188794768577,0.49497237855652765,"[ 4.61247118e-06  1.26317034e-07  0.00000000e+00  0.00000000e+00
  0.00000000e+00 -3.15173344e-07  1.26317034e-07  3.59155930e-06
  0.00000000e+00  0.00000000e+00  0.00000000e+00 -4.68951485e-09
  0.00000000e+00  0.00000000e+00  0.00000000e+00  0.00000000e+00
  0.00000000e+00  0.00000000e+00  0.00000000e+00  0.00000000e+00
  0.00000000e+00  0.00000000e+00  0.00000000e+00  0.00000000e+00
  0.00000000e+00  0.00000000e+00  0.00000000e+00  0.00000000e+00
  0.00000000e+00  0.00000000e+00 -3.15173344e-07 -4.68951485e-09
  0.00000000e+00  0.00000000e+00  0.00000000e+00  3.06542059e-06]","[[-1.05397693e-04  1.51763474e-03]
 [-4.15744103e-05 -1.68483584e-03]]",[],0.0,0.0
1787304805.4790134,1.5303342251939247,-0.4649188794768577,0.49497237855652765,"[ 4.61247118e-06  1.26317034e-07  0.00000000e+00  0.00000000e+00
  0.00000000e+00 -3.15173344e-07  1.26317034e-07  3.59155930e-06
  0.00000000e+00  0.00000000e+00  0.00000000e+00 -4.68951485e-09
  0.00000000e+00  0.00000000e+00  0.00000000e+00  0.00000000e+00
  0.00000000e+00  0.00000000e+00  0.00000000e+00  0.00000000e+00
  0.00000000e+00  0.00000000e+00  0.00000000e+00  0.00000000e+00
  0.00000000e+00  0.00000000e+00  0.00000000e+00  0.00000000e+00
  0.00000000e+00  0.00000000e+00 -3.15173344e-07 -4.68951485e-09
  0.00000000e+00  0.00000000e+00  0.00000000e+00  3.06542059e-06]","[[-1.05397693e-04  1.51763474e-03]
 [-4.15744103e-05 -1.68483584e-03]]",[],0.0,0.0
1787304805.9832416,1.5303342251939247,-0.4649188794768577,0.49497237855652765,"[ 4.61247118e-06  1.26317034e-07  0.00000000e+00  0.00000000e+00
  0.00000000e+00 -3.15173344e-07  1.26317034e-07  3.59155930e-06
  0.00000000e+00  0.00000000e+00  0.00000000e+00 -4.68951485e-09
  0.00000000e+00  0.00000000e+00  0.00000000e+00  0.00000000e+00
  0.00000000e+00  0.00000000e+00  0.00000000e+00  0.00000000e+00
  0.00000000e+00  0.00000000e+00  0.00000000e+00  0.00000000e+00
  0.00000000e+00  0.00000000e+00  0.00000000e+00  0.00000000e+00
  0.00000000e+00  0.00000000e+00 -3.15173344e-07 -4.68951485e-09
  0.00000000e+00  0.00000000e+00  0.00000000e+00  3.06542059e-06]","[[-1.05397693e-04  1.51763474e-03]
 [-4.15744103e-05 -1.68483584e-03]]",[],0.0,0.0
1787304806.0274532,-0.03535526108793132,-0.03730330124556051,0.46612915351835005,"[ 4.30225681e-06  2.03551024e-07  0.00000000e+00  0.00000000e+00
  0.00000000e+00 -4.00800582e-07  2.03551024e-07  3.37019616e-06
  0.00000000e+00  0.00000000e+00  0.00000000e+00  5.87912198e-08
  0.00000000e+00  0.00000000e+00  0.00000000e+00  0.00000000e+00
  0.00000000e+00  0.00000000e+00  0.00000000e+00  0.00000000e+00
  0.00000000e+00  0.00000000e+00  0.00000000e+00  0.00000000e+00
  0.00000000e+00  0.00000000e+00  0.00000000e+00  0.00000000e+00
  0.00000000e+00  0.00000000e+00 -4.00800582e-07  5.87912198e-08
  0.00000000e+00  0.00000000e+00  0.00000000e+00  3.24537768e-06]","[[-1.00855327e-04  1.43404417e-03]
 [-3.78853402e-05 -1.63943092e-03]]",[],0.0,0.0
1787304806.0843906,-0.03535526108793132,-0.03730330124556051,0.46612915351835005,"[ 4.30225681e-06  2.03551024e-07  0.00000000e+00  0.00000000e+00
  0.00000000e+00 -4.00800582e-07  2.03551024e-07  3.37019616e-06
  0.00000000e+00  0.00000000e+00  0.00000000e+00  5.87912198e-08
  0.00000000e+00  0.00000000e+00  0.00000000e+00  0.00000000e+00
  0.00000000e+00  0.00000000e+00  0.00000000e+00  0.00000000e+00
  0.00000000e+00  0.00000000e+00  0.00000000e+00  0.00000000e+00
  0.00000000e+00  0.00000000e+00  0.00000000e+00  0.00000000e+00
  0.00000000e+00  0.00000000e+00 -4.00800582e-07  5.87912198e-08
  0.00000000e+00  0.00000000e+00  0.00000000e+00  3.24537768e-06]","[[-1.00855327e-04  1.43404417e-03]
 [-3.78853402e-05 -1.63943092e-03]]",[],0.0,0.0
1787304806.1272144,-0.03535526108793132,-0.03730330124556051,0.46612915351835005,"[ 4.30225681e-06  2.03551024e-07  0.00000000e+00  0.00000000e+00
  0.00000000e+00 -4.00800582e-07  2.03551024e-07  3.37019616e-06
  0.00000000e+00  0.00000000e+00  0.00000000e+00  5.87912198e-08
  0.00000000e+00  0.00000000e+00  0.00000000e+00  0.00000000e+00
  0.00000000e+00  0.00000000e+00  0.00000000e+00  0.00000000e+00
  0.00000000e+00  0.00000000e+00  0.00000000e+00  0.00000000e+00
  0.00000000e+00  0.00000000e+00  0.00000000e+00  0.00000000e+00
  0.00000000e+00  0.00000000e+00 -4.00800582e-07  5.87912198e-08
  0.00000000e+00  0.00000000e+00  0.00000000e+00  3.24537768e-06]","[[-1.00855327e-04  1.43404417e-03]
 [-3.78853402e-05 -1.63943092e-03]]",[],0.0,0.0
1787304806.1791484,-0.03535526108793132,-0.03730330124556051,0.46612915351835005,"[ 4.30225681e-06  2.03551024e-07  0.00000000e+00  0.00000000e+00
  0.00000000e+00 -4.00800582e-07  2.03551024e-07  3.37019616e-06
  0.00000000e+00  0.00000000e+00  0.00000000e+00  5.87912198e-08
  0.00000000e+00  0.00000000e+00  0.00000000e+00  0.00000000e+00
  0.00000000e+00  0.00000000e+00  0.00000000e+00  0.00000000e+00
  0.00000000e+00  0.00000000e+00  0.00000000e+00  0.00000000e+00
  0.00000000e+00  0.00000000e+00  0.00000000e+00  0.00000000e+00
  0.00000000e+00  0.00000000e+00 -4.00800582e-07  5.87912198e-08
  0.00000000e+00  0.00000000e+00  0.00000000e+00  3.24537768e-06]","[[-1.00855327e-04  1.43404417e-03]
 [-3.78853402e-05 -1.63943092e-03]]",[],0.0,0.0
1787304806.2344468,-0.03535526108793132,-0.03730330124556051,0.46612915351835005,"[ 4.30225681e-06  2.03551024e-07  0.00000000e+00  0.00000000e+00
  0.00000000e+00 -4.00800582e-07  2.03551024e-07  3.37019616e-06
  0.00000000e+00  0.00000000e+00  0.00000000e+00  5.87912198e-08
  0.00000000e+00  0.00000000e+00  0.00000000e+00  0.00000000e+00
  0.00000000e+00  0.00000000e+00  0.00000000e+00  0.00000000e+00
  0.00000000e+00  0.00000000e+00  0.00000000e+00  0.00000000e+00
  0.00000000e+00  0.00000000e+00  0.00000000e+00  0.00000000e+00
  0.00000000e+00  0.00000000e+00 -4.00800582e-07  5.87912198e-08
  0.00000000e+00  0.00000000e+00  0.00000000e+00  3.24537768e-06]","[[-1.00855327e-04  1.43404417e-03]
 [-3.78853402e-05 -1.63943092e-03]]",[],0.0,0.0
1787304806.2835188,-0.03535526108793132,-0.03730330124556051,0.46612915351835005,"[ 4.30225681e-06  2.03551024e-07  0.00000000e+00  0.00000000e+00
  0.00000000e+00 -4.00800582e-07  2.03551024e-07  3.37019616e-06
  0.00000000e+00  0.00000000e+00  0.00000000e+00  5.87912198e-08
  0.00000000e+00  0.00000000e+00  0.00000000e+00  0.00000000e+00
  0.00000000e+00  0.00000000e+00  0.00000000e+00  0.00000000e+00
  0.00000000e+00  0.00000000e+00  0.00000000e+00  0.00000000e+00
  0.00000000e+00  0.00000000e+00  0.00000000e+00  0.00000000e+00
  0.00000000e+00  0.00000000e+00 -4.00800582e-07  5.87912198e-08
  0.00000000e+00  0.00000000e+00  0.00000000e+00  3.24537768e-06]","[[-1.00855327e-04  1.43404417e-03]
 [-3.78853402e-05 -1.63943092e-03]]",[],0.0,0.0
1787304806.3733597,-0.03535526108793132,-0.03730330124556051,0.46612915351835005,"[ 4.30225681e-06  2.03551024e-07  0.00000000e+00  0.00000000e+00
  0.00000000e+00 -4.00800582e-07  2.03551024e-07  3.37019616e-06
  0.00000000e+00  0.00000000e+00  0.00000000e+00  5.87912198e-08
  0.00000000e+00  0.00000000e+00  0.00000000e+00  0.00000000e+00
  0.00000000e+00  0.00000000e+00  0.00000000e+00  0.00000000e+00
  0.00000000e+00  0.00000000e+00  0.00000000e+00  0.00000000e+00
  0.00000000e+00  0.00000000e+00  0.00000000e+00  0.00000000e+00
  0.00000000e+00  0.00000000e+00 -4.00800582e-07  5.87912198e-08
  0.00000000e+00  0.00000000e+00  0.00000000e+00  3.24537768e-06]","[[-1.00855327e-04  1.43404417e-03]
 [-3.78853402e-05 -1.63943092e-03]]",[],0.0,0.0
1787304806.3856206,-0.03535526108793132,-0.03730330124556051,0.46612915351835005,"[ 4.30225681e-06  2.03551024e-07  0.00000000e+00  0.00000000e+00
  0.00000000e+00 -4.00800582e-07  2.03551024e-07  3.37019616e-06
  0.00000000e+00  0.00000000e+00  0.00000000e+00  5.87912198e-08
  0.00000000e+00  0.00000000e+00  0.00000000e+00  0.00000000e+00
  0.00000000e+00  0.00000000e+00  0.00000000e+00  0.00000000e+00
  0.00000000e+00  0.00000000e+00  0.00000000e+00  0.00000000e+00
  0.00000000e+00  0.00000000e+00  0.00000000e+00  0.00000000e+00
  0.00000000e+00  0.00000000e+00 -4.00800582e-07  5.87912198e-08
  0.00000000e+00  0.00000000e+00  0.00000000e+00  3.24537768e-06]","[[-1.00855327e-04  1.43404417e-03]
 [-3.78853402e-05 -1.63943092e-03]]",[],0.0,0.0
1787304806.4651933,-0.03535526108793132,-0.03730330124556051,0.46612915351835005,"[ 4.30225681e-06  2.03551024e-07  0.00000000e+00  0.00000000e+00
  0.00000000e+00 -4.00800582e-07  2.03551024e-07  3.37019616e-06
  0.00000000e+00  0.00000000e+00  0.00000000e+00  5.87912198e-08
  0.00000000e+00  0.00000000e+00  0.00000000e+00  0.00000000e+00
  0.00000000e+00  0.00000000e+00  0.00000000e+00  0.00000000e+00
  0.00000000e+00  0.00000000e+00  0.00000000e+00  0.00000000e+00
  0.00000000e+00  0.00000000e+00  0.00000000e+00  0.00000000e+00
  0.00000000e+00  0.00000000e+00 -4.00800582e-07  5.87912198e-08
  0.00000000e+00  0.00000000e+00  0.00000000e+00  3.24537768e-06]","[[-1.00855327e-04  1.43404417e-03]
 [-3.78853402e-05 -1.63943092e-03]]",[],0.0,0.0
1787304806.5356085,-0.03535526108793132,-0.03730330124556051,0.46612915351835005,"[ 4.30225681e-06  2.03551024e-07  0.00000000e+00  0.00000000e+00
  0.00000000e+00 -4.00800582e-07  2.03551024e-07  3.37019616e-06
  0.00000000e+00  0.00000000e+00  0.00000000e+00  5.87912198e-08
  0.00000000e+00  0.00000000e+00  0.00000000e+00  0.00000000e+00
  0.00000000e+00  0.00000000e+00  0.00000000e+00  0.00000000e+00
  0.00000000e+00  0.00000000e+00  0.00000000e+00  0.00000000e+00
  0.00000000e+00  0.00000000e+00  0.00000000e+00  0.00000000e+00
  0.00000000e+00  0.00000000e+00 -4.00800582e-07  5.87912198e-08
  0.00000000e+00  0.00000000e+00  0.00000000e+00  3.24537768e-06]","[[-1.00855327e-04  1.43404417e-03]
 [-3.78853402e-05 -1.63943092e-03]]",[],0.0,0.0
1787304806.578141,-0.03535526108793132,-0.03730330124556051,0.46612915351835005,"[ 4.30225681e-06  2.03551024e-07  0.00000000e+00  0.00000000e+00
  0.00000000e+00 -4.00800582e-07  2.03551024e-07  3.37019616e-06
  0.00000000e+00  0.00000000e+00  0.00000000e+00  5.87912198e-08
  0.00000000e+00  0.00000000e+00  0.00000000e+00  0.00000000e+00
  0.00000000e+00  0.00000000e+00  0.00000000e+00  0.00000000e+00
  0.00000000e+00  0.00000000e+00  0.00000000e+00  0.00000000e+00
  0.00000000e+00  0.00000000e+00  0.00000000e+00  0.00000000e+00
  0.00000000e+00  0.00000000e+00 -4.00800582e-07  5.87912198e-08
  0.00000000e+00  0.00000000e+00  0.00000000e+00  3.24537768e-06]","[[-1.00855327e-04  1.43404417e-03]
 [-3.78853402e-05 -1.63943092e-03]]",[],0.0,0.0
1787304806.6267474,-0.03535526108793132,-0.03730330124556051,0.46612915351835005,"[ 4.30225681e-06  2.03551024e-07  0.00000000e+00  0.00000000e+00
  0.00000000e+00 -4.00800582e-07  2.03551024e-07  3.37019616e-06
  0.00000000e+00  0.00000000e+00  0.00000000e+00  5.87912198e-08
  0.00000000e+00  0.00000000e+00  0.00000000e+00  0.00000000e+00
  0.00000000e+00  0.00000000e+00  0.00000000e+00  0.00000000e+00
  0.00000000e+00  0.00000000e+00  0.00000000e+00  0.00000000e+00
  0.00000000e+00  0.00000000e+00  0.00000000e+00  0.00000000e+00
  0.00000000e+00  0.00000000e+00 -4.00800582e-07  5.87912198e-08
  0.00000000e+00  0.00000000e+00  0.00000000e+00  3.24537768e-06]","[[-1.00855327e-04  1.43404417e-03]
 [-3.78853402e-05 -1.63943092e-03]]",[],0.0,0.0
1787304806.6794183,-0.03535526108793132,-0.03730330124556051,0.46612915351835005,"[ 4.30225681e-06  2.03551024e-07  0.00000000e+00  0.00000000e+00
  0.00000000e+00 -4.00800582e-07  2.03551024e-07  3.37019616e-06
  0.00000000e+00  0.00000000e+00  0.00000000e+00  5.87912198e-08
  0.00000000e+00  0.00000000e+00  0.00000000e+00  0.00000000e+00
  0.00000000e+00  0.00000000e+00  0.00000000e+00  0.00000000e+00
  0.00000000e+00  0.00000000e+00  0.00000000e+00  0.00000000e+00
  0.00000000e+00  0.00000000e+00  0.00000000e+00  0.00000000e+00
  0.00000000e+00  0.00000000e+00 -4.00800582e-07  5.87912198e-08
  0.00000000e+00  0.00000000e+00  0.00000000e+00  3.24537768e-06]","[[-1.00855327e-04  1.43404417e-03]
 [-3.78853402e-05 -1.63943092e-03]]",[],0.0,0.0
1787304806.731659,-0.03535526108793132,-0.03730330124556051,0.46612915351835005,"[ 4.30225681e-06  2.03551024e-07  0.00000000e+00  0.00000000e+00
  0.00000000e+00 -4.00800582e-07  2.03551024e-07  3.37019616e-06
  0.00000000e+00  0.00000000e+00  0.00000000e+00  5.87912198e-08
  0.00000000e+00  0.00000000e+00  0.00000000e+00  0.00000000e+00
  0.00000000e+00  0.00000000e+00  0.00000000e+00  0.00000000e+00
  0.00000000e+00  0.00000000e+00  0.00000000e+00  0.00000000e+00
  0.00000000e+00  0.00000000e+00  0.00000000e+00  0.00000000e+00
  0.00000000e+00  0.00000000e+00 -4.00800582e-07  5.87912198e-08
  0.00000000e+00  0.00000000e+00  0.00000000e+00  3.24537768e-06]","[[-1.00855327e-04  1.43404417e-03]
 [-3.78853402e-05 -1.63943092e-03]]",[],0.0,0.0
1787304806.8025756,-0.03535526108793132,-0.03730330124556051,0.46612915351835005,"[ 4.30225681e-06  2.03551024e-07  0.00000000e+00  0.00000000e+00
  0.00000000e+00 -4.00800582e-07  2.03551024e-07  3.37019616e-06
  0.00000000e+00  0.00000000e+00  0.00000000e+00  5.87912198e-08
  0.00000000e+00  0.00000000e+00  0.00000000e+00  0.00000000e+00
  0.00000000e+00  0.00000000e+00  0.00000000e+00  0.00000000e+00
  0.00000000e+00  0.00000000e+00  0.00000000e+00  0.00000000e+00
  0.00000000e+00  0.00000000e+00  0.00000000e+00  0.00000000e+00
  0.00000000e+00  0.00000000e+00 -4.00800582e-07  5.87912198e-08
  0.00000000e+00  0.00000000e+00  0.00000000e+00  3.24537768e-06]","[[-1.00855327e-04  1.43404417e-03]
 [-3.78853402e-05 -1.63943092e-03]]",[],0.0,0.0
1787304806.8584666,-0.03535526108793132,-0.03730330124556051,0.46612915351835005,"[ 4.30225681e-06  2.03551024e-07  0.00000000e+00  0.00000000e+00
  0.00000000e+00 -4.00800582e-07  2.03551024e-07  3.37019616e-06
  0.00000000e+00  0.00000000e+00  0.00000000e+00  5.87912198e-08
  0.00000000e+00  0.00000000e+00  0.00000000e+00  0.00000000e+00
  0.00000000e+00  0.00000000e+00  0.00000000e+00  0.00000000e+00
  0.00000000e+00  0.00000000e+00  0.00000000e+00  0.00000000e+00
  0.00000000e+00  0.00000000e+00  0.00000000e+00  0.00000000e+00
  0.00000000e+00  0.00000000e+00 -4.00800582e-07  5.87912198e-08
  0.00000000e+00  0.00000000e+00  0.00000000e+00  3.24537768e-06]","[[-1.00855327e-04  1.43404417e-03]
 [-3.78853402e-05 -1.63943092e-03]]",[],0.0,0.0
1787304806.8982582,-0.03535526108793132,-0.03730330124556051,0.46612915351835005,"[ 4.30225681e-06  2.03551024e-07  0.00000000e+00  0.00000000e+00
  0.00000000e+00 -4.00800582e-07  2.03551024e-07  3.37019616e-06
  0.00000000e+00  0.00000000e+00  0.00000000e+00  5.87912198e-08
  0.00000000e+00  0.00000000e+00  0.00000000e+00  0.00000000e+00
  0.00000000e+00  0.00000000e+00  0.00000000e+00  0.00000000e+00
  0.00000000e+00  0.00000000e+00  0.00000000e+00  0.00000000e+00
  0.00000000e+00  0.00000000e+00  0.00000000e+00  0.00000000e+00
  0.00000000e+00  0.00000000e+00 -4.00800582e-07  5.87912198e-08
  0.00000000e+00  0.00000000e+00  0.00000000e+00  3.24537768e-06]","[[-1.00855327e-04  1.43404417e-03]
 [-3.78853402e-05 -1.63943092e-03]]",[],0.0,0.0
1787304806.9283476,-0.03535526108793132,-0.03730330124556051,0.46612915351835005,"[ 4.30225681e-06  2.03551024e-07  0.00000000e+00  0.00000000e+00
  0.00000000e+00 -4.00800582e-07  2.03551024e-07  3.37019616e-06
  0.00000000e+00  0.00000000e+00  0.00000000e+00  5.87912198e-08
  0.00000000e+00  0.00000000e+00  0.00000000e+00  0.00000000e+00
  0.00000000e+00  0.00000000e+00  0.00000000e+00  0.00000000e+00
  0.00000000e+00  0.00000000e+00  0.00000000e+00  0.00000000e+00
  0.00000000e+00  0.00000000e+00  0.00000000e+00  0.00000000e+00
  0.00000000e+00  0.00000000e+00 -4.00800582e-07  5.87912198e-08
  0.00000000e+00  0.00000000e+00  0.00000000e+00  3.24537768e-06]","[[-1.00855327e-04  1.43404417e-03]
 [-3.78853402e-05 -1.63943092e-03]]",[],0.0,0.0
1787304807.0097373,-0.03535526108793132,-0.03730330124556051,0.46612915351835005,"[ 4.30225681e-06  2.03551024e-07  0.00000000e+00  0.00000000e+00
  0.00000000e+00 -4.00800582e-07  2.03551024e-07  3.37019616e-06
  0.00000000e+00  0.00000000e+00  0.00000000e+00  5.87912198e-08
  0.00000000e+00  0.00000000e+00  0.00000000e+00  0.00000000e+00
  0.00000000e+00  0.00000000e+00  0.00000000e+00  0.00000000e+00
  0.00000000e+00  0.00000000e+00  0.00000000e+00  0.00000000e+00
  0.00000000e+00  0.00000000e+00  0.00000000e+00  0.00000000e+00
  0.00000000e+00  0.00000000e+00 -4.00800582e-07  5.87912198e-08
  0.00000000e+00  0.00000000e+00  0.00000000e+00  3.24537768e-06]","[[-1.00855327e-04  1.43404417e-03]
 [-3.78853402e-05 -1.63943092e-03]]",[],0.0,0.0
1787304807.0500739,-0.03535526108793132,-0.03730330124556051,0.46612915351835005,"[ 4.30225681e-06  2.03551024e-07  0.00000000e+00  0.00000000e+00
