time,x,y,yaw,cov_prop,K_gain,innovation,v_ekf,omega_ekf
1787153558.5165348,1.9717204215021717,0.8135231965237092,1.9068524454139062,"[ 7.15577671e-05  1.95966119e-06  0.00000000e+00  0.00000000e+00
  0.00000000e+00 -4.96717828e-06  1.95966119e-06  5.17463032e-05
  0.00000000e+00  0.00000000e+00  0.00000000e+00  3.36919293e-07
  0.00000000e+00  0.00000000e+00  0.00000000e+00  0.00000000e+00
  0.00000000e+00  0.00000000e+00  0.00000000e+00  0.00000000e+00
  0.00000000e+00  0.00000000e+00  0.00000000e+00  0.00000000e+00
  0.00000000e+00  0.00000000e+00  0.00000000e+00  0.00000000e+00
  0.00000000e+00  0.00000000e+00 -4.96717828e-06  3.36919293e-07
  0.00000000e+00  0.00000000e+00  0.00000000e+00  4.22326516e-06]","[[-0.00066392  0.0607044 ]
 [-0.00123095 -0.01321846]]",[],0.0,0.0
1787153558.5364132,1.9717204215021717,0.8135231965237092,1.9068524454139062,"[ 7.15577671e-05  1.95966119e-06  0.00000000e+00  0.00000000e+00
  0.00000000e+00 -4.96717828e-06  1.95966119e-06  5.17463032e-05
  0.00000000e+00  0.00000000e+00  0.00000000e+00  3.36919293e-07
  0.00000000e+00  0.00000000e+00  0.00000000e+00  0.00000000e+00
  0.00000000e+00  0.00000000e+00  0.00000000e+00  0.00000000e+00
  0.00000000e+00  0.00000000e+00  0.00000000e+00  0.00000000e+00
  0.00000000e+00  0.00000000e+00  0.00000000e+00  0.00000000e+00
  0.00000000e+00  0.00000000e+00 -4.96717828e-06  3.36919293e-07
  0.00000000e+00  0.00000000e+00  0.00000000e+00  4.22326516e-06]","[[-0.00066392  0.0607044 ]
 [-0.00123095 -0.01321846]]",[],0.0,0.0
1787153558.6663623,1.954116251939768,0.794082080132176,1.9378037158638808,"[ 3.33946391e-05  6.21731358e-08  0.00000000e+00  0.00000000e+00
  0.00000000e+00 -2.38819575e-06  6.21731358e-08  2.56439763e-05
  0.00000000e+00  0.00000000e+00  0.00000000e+00  2.41266670e-07
  0.00000000e+00  0.00000000e+00  0.00000000e+00  0.00000000e+00
  0.00000000e+00  0.00000000e+00  0.00000000e+00  0.00000000e+00
  0.00000000e+00  0.00000000e+00  0.00000000e+00  0.00000000e+00
  0.00000000e+00  0.00000000e+00  0.00000000e+00  0.00000000e+00
  0.00000000e+00  0.00000000e+00 -2.38819575e-06  2.41266670e-07
  0.00000000e+00  0.00000000e+00  0.00000000e+00  3.31322627e-06]","[[ 0.00038778  0.02579649]
 [-0.00056647  0.00847181]]",[],0.0,0.0
1787153558.6826818,1.954116251939768,0.794082080132176,1.9378037158638808,"[ 3.33946391e-05  6.21731358e-08  0.00000000e+00  0.00000000e+00
  0.00000000e+00 -2.38819575e-06  6.21731358e-08  2.56439763e-05
  0.00000000e+00  0.00000000e+00  0.00000000e+00  2.41266670e-07
  0.00000000e+00  0.00000000e+00  0.00000000e+00  0.00000000e+00
  0.00000000e+00  0.00000000e+00  0.00000000e+00  0.00000000e+00
  0.00000000e+00  0.00000000e+00  0.00000000e+00  0.00000000e+00
  0.00000000e+00  0.00000000e+00  0.00000000e+00  0.00000000e+00
  0.00000000e+00  0.00000000e+00 -2.38819575e-06  2.41266670e-07
  0.00000000e+00  0.00000000e+00  0.00000000e+00  3.31322627e-06]","[[ 0.00038778  0.02579649]
 [-0.00056647  0.00847181]]",[],0.0,0.0
1787153559.2473476,1.954116251939768,0.794082080132176,1.9378037158638808,"[ 3.33946391e-05  6.21731358e-08  0.00000000e+00  0.00000000e+00
  0.00000000e+00 -2.38819575e-06  6.21731358e-08  2.56439763e-05
  0.00000000e+00  0.00000000e+00  0.00000000e+00  2.41266670e-07
  0.00000000e+00  0.00000000e+00  0.00000000e+00  0.00000000e+00
  0.00000000e+00  0.00000000e+00  0.00000000e+00  0.00000000e+00
  0.00000000e+00  0.00000000e+00  0.00000000e+00  0.00000000e+00
  0.00000000e+00  0.00000000e+00  0.00000000e+00  0.00000000e+00
  0.00000000e+00  0.00000000e+00 -2.38819575e-06  2.41266670e-07
  0.00000000e+00  0.00000000e+00  0.00000000e+00  3.31322627e-06]","[[ 0.00038778  0.02579649]
 [-0.00056647  0.00847181]]",[],0.0,0.0
1787153559.2796237,1.954116251939768,0.794082080132176,1.9378037158638808,"[ 3.33946391e-05  6.21731358e-08  0.00000000e+00  0.00000000e+00
  0.00000000e+00 -2.38819575e-06  6.21731358e-08  2.56439763e-05
  0.00000000e+00  0.00000000e+00  0.00000000e+00  2.41266670e-07
  0.00000000e+00  0.00000000e+00  0.00000000e+00  0.00000000e+00
  0.00000000e+00  0.00000000e+00  0.00000000e+00  0.00000000e+00
  0.00000000e+00  0.00000000e+00  0.00000000e+00  0.00000000e+00
  0.00000000e+00  0.00000000e+00  0.00000000e+00  0.00000000e+00
  0.00000000e+00  0.00000000e+00 -2.38819575e-06  2.41266670e-07
  0.00000000e+00  0.00000000e+00  0.00000000e+00  3.31322627e-06]","[[ 0.00038778  0.02579649]
 [-0.00056647  0.00847181]]",[],0.0,0.0
1787153559.8146393,1.937095094062859,0.7830398415375782,1.9698664009168132,"[ 2.17482221e-05 -2.56497883e-07  0.00000000e+00  0.00000000e+00
  0.00000000e+00 -1.65231834e-06 -2.56497883e-07  1.70599728e-05
  0.00000000e+00  0.00000000e+00  0.00000000e+00  1.20178425e-07
  0.00000000e+00  0.00000000e+00  0.00000000e+00  0.00000000e+00
  0.00000000e+00  0.00000000e+00  0.00000000e+00  0.00000000e+00
  0.00000000e+00  0.00000000e+00  0.00000000e+00  0.00000000e+00
  0.00000000e+00  0.00000000e+00  0.00000000e+00  0.00000000e+00
  0.00000000e+00  0.00000000e+00 -1.65231834e-06  1.20178425e-07
  0.00000000e+00  0.00000000e+00  0.00000000e+00  3.36065466e-06]","[[ 0.00025386  0.01688348]
 [-0.00038241  0.00536184]]",[],0.0,0.0
1787153559.829217,1.937095094062859,0.7830398415375782,1.9698664009168132,"[ 2.17482221e-05 -2.56497883e-07  0.00000000e+00  0.00000000e+00
  0.00000000e+00 -1.65231834e-06 -2.56497883e-07  1.70599728e-05
  0.00000000e+00  0.00000000e+00  0.00000000e+00  1.20178425e-07
  0.00000000e+00  0.00000000e+00  0.00000000e+00  0.00000000e+00
  0.00000000e+00  0.00000000e+00  0.00000000e+00  0.00000000e+00
  0.00000000e+00  0.00000000e+00  0.00000000e+00  0.00000000e+00
  0.00000000e+00  0.00000000e+00  0.00000000e+00  0.00000000e+00
  0.00000000e+00  0.00000000e+00 -1.65231834e-06  1.20178425e-07
  0.00000000e+00  0.00000000e+00  0.00000000e+00  3.36065466e-06]","[[ 0.00025386  0.01688348]
 [-0.00038241  0.00536184]]",[],0.0,0.0
1787153560.451373,1.9125105707497558,0.7786777220135997,2.0091016678370615,"[ 1.60230884e-05 -2.81252236e-07  0.00000000e+00  0.00000000e+00
  0.00000000e+00 -1.12609970e-06 -2.81252236e-07  1.27462393e-05
  0.00000000e+00  0.00000000e+00  0.00000000e+00  1.60067267e-07
  0.00000000e+00  0.00000000e+00  0.00000000e+00  0.00000000e+00
  0.00000000e+00  0.00000000e+00  0.00000000e+00  0.00000000e+00
  0.00000000e+00  0.00000000e+00  0.00000000e+00  0.00000000e+00
  0.00000000e+00  0.00000000e+00  0.00000000e+00  0.00000000e+00
  0.00000000e+00  0.00000000e+00 -1.12609970e-06  1.60067267e-07
  0.00000000e+00  0.00000000e+00  0.00000000e+00  3.07627548e-06]","[[ 0.00018591  0.01229659]
 [-0.00028798  0.00375147]]",[],0.0,0.0
1787153560.4799404,1.9125105707497558,0.7786777220135997,2.0091016678370615,"[ 1.60230884e-05 -2.81252236e-07  0.00000000e+00  0.00000000e+00
  0.00000000e+00 -1.12609970e-06 -2.81252236e-07  1.27462393e-05
  0.00000000e+00  0.00000000e+00  0.00000000e+00  1.60067267e-07
  0.00000000e+00  0.00000000e+00  0.00000000e+00  0.00000000e+00
  0.00000000e+00  0.00000000e+00  0.00000000e+00  0.00000000e+00
  0.00000000e+00  0.00000000e+00  0.00000000e+00  0.00000000e+00
  0.00000000e+00  0.00000000e+00  0.00000000e+00  0.00000000e+00
  0.00000000e+00  0.00000000e+00 -1.12609970e-06  1.60067267e-07
  0.00000000e+00  0.00000000e+00  0.00000000e+00  3.07627548e-06]","[[ 0.00018591  0.01229659]
 [-0.00028798  0.00375147]]",[],0.0,0.0
1787153561.081413,1.903121574785001,0.7759540767907475,2.031229570538459,"[ 1.26208269e-05 -2.16982610e-07  0.00000000e+00  0.00000000e+00
  0.00000000e+00 -8.30660041e-07 -2.16982610e-07  1.03290722e-05
  0.00000000e+00  0.00000000e+00  0.00000000e+00  1.33177493e-07
  0.00000000e+00  0.00000000e+00  0.00000000e+00  0.00000000e+00
  0.00000000e+00  0.00000000e+00  0.00000000e+00  0.00000000e+00
  0.00000000e+00  0.00000000e+00  0.00000000e+00  0.00000000e+00
  0.00000000e+00  0.00000000e+00  0.00000000e+00  0.00000000e+00
  0.00000000e+00  0.00000000e+00 -8.30660041e-07  1.33177493e-07
  0.00000000e+00  0.00000000e+00  0.00000000e+00  3.21156933e-06]","[[ 0.00016258  0.00905153]
 [-0.00022629  0.00331455]]",[],0.0,0.0
1787153561.0854702,1.903121574785001,0.7759540767907475,2.031229570538459,"[ 1.26208269e-05 -2.16982610e-07  0.00000000e+00  0.00000000e+00
  0.00000000e+00 -8.30660041e-07 -2.16982610e-07  1.03290722e-05
  0.00000000e+00  0.00000000e+00  0.00000000e+00  1.33177493e-07
  0.00000000e+00  0.00000000e+00  0.00000000e+00  0.00000000e+00
  0.00000000e+00  0.00000000e+00  0.00000000e+00  0.00000000e+00
  0.00000000e+00  0.00000000e+00  0.00000000e+00  0.00000000e+00
  0.00000000e+00  0.00000000e+00  0.00000000e+00  0.00000000e+00
  0.00000000e+00  0.00000000e+00 -8.30660041e-07  1.33177493e-07
  0.00000000e+00  0.00000000e+00  0.00000000e+00  3.21156933e-06]","[[ 0.00016258  0.00905153]
 [-0.00022629  0.00331455]]",[],0.0,0.0
1787153561.1297417,1.903121574785001,0.7759540767907475,2.031229570538459,"[ 1.26208269e-05 -2.16982610e-07  0.00000000e+00  0.00000000e+00
  0.00000000e+00 -8.30660041e-07 -2.16982610e-07  1.03290722e-05
  0.00000000e+00  0.00000000e+00  0.00000000e+00  1.33177493e-07
  0.00000000e+00  0.00000000e+00  0.00000000e+00  0.00000000e+00
  0.00000000e+00  0.00000000e+00  0.00000000e+00  0.00000000e+00
  0.00000000e+00  0.00000000e+00  0.00000000e+00  0.00000000e+00
  0.00000000e+00  0.00000000e+00  0.00000000e+00  0.00000000e+00
  0.00000000e+00  0.00000000e+00 -8.30660041e-07  1.33177493e-07
  0.00000000e+00  0.00000000e+00  0.00000000e+00  3.21156933e-06]","[[ 0.00016258  0.00905153]
 [-0.00022629  0.00331455]]",[],0.0,0.0
1787153561.180543,1.8980598851294763,0.7748346171404685,2.0498659809718482,"[ 1.04522126e-05 -2.11447192e-07  0.00000000e+00  0.00000000e+00
  0.00000000e+00 -8.04165984e-07 -2.11447192e-07  8.73134293e-06
  0.00000000e+00  0.00000000e+00  0.00000000e+00  9.69576441e-08
  0.00000000e+00  0.00000000e+00  0.00000000e+00  0.00000000e+00
  0.00000000e+00  0.00000000e+00  0.00000000e+00  0.00000000e+00
  0.00000000e+00  0.00000000e+00  0.00000000e+00  0.00000000e+00
  0.00000000e+00  0.00000000e+00  0.00000000e+00  0.00000000e+00
  0.00000000e+00  0.00000000e+00 -8.04165984e-07  9.69576441e-08
  0.00000000e+00  0.00000000e+00  0.00000000e+00  3.20898265e-06]","[[ 0.00013442  0.00769915]
 [-0.00019206  0.0027912 ]]",[],0.0,0.0
1787153561.231587,1.8980598851294763,0.7748346171404685,2.0498659809718482,"[ 1.04522126e-05 -2.11447192e-07  0.00000000e+00  0.00000000e+00
  0.00000000e+00 -8.04165984e-07 -2.11447192e-07  8.73134293e-06
  0.00000000e+00  0.00000000e+00  0.00000000e+00  9.69576441e-08
  0.00000000e+00  0.00000000e+00  0.00000000e+00  0.00000000e+00
  0.00000000e+00  0.00000000e+00  0.00000000e+00  0.00000000e+00
  0.00000000e+00  0.00000000e+00  0.00000000e+00  0.00000000e+00
  0.00000000e+00  0.00000000e+00  0.00000000e+00  0.00000000e+00
  0.00000000e+00  0.00000000e+00 -8.04165984e-07  9.69576441e-08
  0.00000000e+00  0.00000000e+00  0.00000000e+00  3.20898265e-06]","[[ 0.00013442  0.00769915]
 [-0.00019206  0.0027912 ]]",[],0.0,0.0
1787153561.7139378,1.8980598851294763,0.7748346171404685,2.0498659809718482,"[ 1.04522126e-05 -2.11447192e-07  0.00000000e+00  0.00000000e+00
  0.00000000e+00 -8.04165984e-07 -2.11447192e-07  8.73134293e-06
  0.00000000e+00  0.00000000e+00  0.00000000e+00  9.69576441e-08
  0.00000000e+00  0.00000000e+00  0.00000000e+00  0.00000000e+00
  0.00000000e+00  0.00000000e+00  0.00000000e+00  0.00000000e+00
  0.00000000e+00  0.00000000e+00  0.00000000e+00  0.00000000e+00
  0.00000000e+00  0.00000000e+00  0.00000000e+00  0.00000000e+00
  0.00000000e+00  0.00000000e+00 -8.04165984e-07  9.69576441e-08
  0.00000000e+00  0.00000000e+00  0.00000000e+00  3.20898265e-06]","[[ 0.00013442  0.00769915]
 [-0.00019206  0.0027912 ]]",[],0.0,0.0
1787153561.7330027,1.8980598851294763,0.7748346171404685,2.0498659809718482,"[ 1.04522126e-05 -2.11447192e-07  0.00000000e+00  0.00000000e+00
  0.00000000e+00 -8.04165984e-07 -2.11447192e-07  8.73134293e-06
  0.00000000e+00  0.00000000e+00  0.00000000e+00  9.69576441e-08
  0.00000000e+00  0.00000000e+00  0.00000000e+00  0.00000000e+00
  0.00000000e+00  0.00000000e+00  0.00000000e+00  0.00000000e+00
  0.00000000e+00  0.00000000e+00  0.00000000e+00  0.00000000e+00
  0.00000000e+00  0.00000000e+00  0.00000000e+00  0.00000000e+00
  0.00000000e+00  0.00000000e+00 -8.04165984e-07  9.69576441e-08
  0.00000000e+00  0.00000000e+00  0.00000000e+00  3.20898265e-06]","[[ 0.00013442  0.00769915]
 [-0.00019206  0.0027912 ]]",[],0.0,0.0
1787153561.7783747,1.8980598851294763,0.7748346171404685,2.0498659809718482,"[ 1.04522126e-05 -2.11447192e-07  0.00000000e+00  0.00000000e+00
  0.00000000e+00 -8.04165984e-07 -2.11447192e-07  8.73134293e-06
  0.00000000e+00  0.00000000e+00  0.00000000e+00  9.69576441e-08
  0.00000000e+00  0.00000000e+00  0.00000000e+00  0.00000000e+00
  0.00000000e+00  0.00000000e+00  0.00000000e+00  0.00000000e+00
  0.00000000e+00  0.00000000e+00  0.00000000e+00  0.00000000e+00
  0.00000000e+00  0.00000000e+00  0.00000000e+00  0.00000000e+00
  0.00000000e+00  0.00000000e+00 -8.04165984e-07  9.69576441e-08
  0.00000000e+00  0.00000000e+00  0.00000000e+00  3.20898265e-06]","[[ 0.00013442  0.00769915]
 [-0.00019206  0.0027912 ]]",[],0.0,0.0
1787153562.5731108,1.8923040735849284,0.7698207873267832,2.071321373211074,"[ 8.90665589e-06 -2.09607695e-07  0.00000000e+00  0.00000000e+00
  0.00000000e+00 -4.86803301e-07 -2.09607695e-07  7.54118718e-06
  0.00000000e+00  0.00000000e+00  0.00000000e+00  1.81388632e-07
  0.00000000e+00  0.00000000e+00  0.00000000e+00  0.00000000e+00
  0.00000000e+00  0.00000000e+00  0.00000000e+00  0.00000000e+00
  0.00000000e+00  0.00000000e+00  0.00000000e+00  0.00000000e+00
  0.00000000e+00  0.00000000e+00  0.00000000e+00  0.00000000e+00
  0.00000000e+00  0.00000000e+00 -4.86803301e-07  1.81388632e-07
  0.00000000e+00  0.00000000e+00  0.00000000e+00  3.17084834e-06]","[[ 0.00011478  0.0062326 ]
 [-0.0001664   0.00222421]]",[],0.0,0.0
1787153562.596855,1.8923040735849284,0.7698207873267832,2.071321373211074,"[ 8.90665589e-06 -2.09607695e-07  0.00000000e+00  0.00000000e+00
  0.00000000e+00 -4.86803301e-07 -2.09607695e-07  7.54118718e-06
  0.00000000e+00  0.00000000e+00  0.00000000e+00  1.81388632e-07
  0.00000000e+00  0.00000000e+00  0.00000000e+00  0.00000000e+00
  0.00000000e+00  0.00000000e+00  0.00000000e+00  0.00000000e+00
  0.00000000e+00  0.00000000e+00  0.00000000e+00  0.00000000e+00
  0.00000000e+00  0.00000000e+00  0.00000000e+00  0.00000000e+00
  0.00000000e+00  0.00000000e+00 -4.86803301e-07  1.81388632e-07
  0.00000000e+00  0.00000000e+00  0.00000000e+00  3.17084834e-06]","[[ 0.00011478  0.0062326 ]
 [-0.0001664   0.00222421]]",[],0.0,0.0
1787153562.631409,1.8923040735849284,0.7698207873267832,2.071321373211074,"[ 8.90665589e-06 -2.09607695e-07  0.00000000e+00  0.00000000e+00
  0.00000000e+00 -4.86803301e-07 -2.09607695e-07  7.54118718e-06
  0.00000000e+00  0.00000000e+00  0.00000000e+00  1.81388632e-07
  0.00000000e+00  0.00000000e+00  0.00000000e+00  0.00000000e+00
  0.00000000e+00  0.00000000e+00  0.00000000e+00  0.00000000e+00
  0.00000000e+00  0.00000000e+00  0.00000000e+00  0.00000000e+00
  0.00000000e+00  0.00000000e+00  0.00000000e+00  0.00000000e+00
  0.00000000e+00  0.00000000e+00 -4.86803301e-07  1.81388632e-07
  0.00000000e+00  0.00000000e+00  0.00000000e+00  3.17084834e-06]","[[ 0.00011478  0.0062326 ]
 [-0.0001664   0.00222421]]",[],0.0,0.0
1787153562.6797485,1.8878599491967925,0.7673092117202425,2.0959428293894193,"[ 7.74636335e-06 -2.81421294e-07  0.00000000e+00  0.00000000e+00
  0.00000000e+00 -5.13063526e-07 -2.81421294e-07  6.73999243e-06
  0.00000000e+00  0.00000000e+00  0.00000000e+00  5.46349331e-08
  0.00000000e+00  0.00000000e+00  0.00000000e+00  0.00000000e+00
  0.00000000e+00  0.00000000e+00  0.00000000e+00  0.00000000e+00
  0.00000000e+00  0.00000000e+00  0.00000000e+00  0.00000000e+00
  0.00000000e+00  0.00000000e+00  0.00000000e+00  0.00000000e+00
  0.00000000e+00  0.00000000e+00 -5.13063526e-07  5.46349331e-08
  0.00000000e+00  0.00000000e+00  0.00000000e+00  3.41109804e-06]","[[ 0.00010145  0.00554034]
 [-0.00015014  0.00209243]]",[],0.0,0.0
1787153563.3232589,1.8878599491967925,0.7673092117202425,2.0959428293894193,"[ 7.74636335e-06 -2.81421294e-07  0.00000000e+00  0.00000000e+00
  0.00000000e+00 -5.13063526e-07 -2.81421294e-07  6.73999243e-06
  0.00000000e+00  0.00000000e+00  0.00000000e+00  5.46349331e-08
  0.00000000e+00  0.00000000e+00  0.00000000e+00  0.00000000e+00
  0.00000000e+00  0.00000000e+00  0.00000000e+00  0.00000000e+00
  0.00000000e+00  0.00000000e+00  0.00000000e+00  0.00000000e+00
  0.00000000e+00  0.00000000e+00  0.00000000e+00  0.00000000e+00
  0.00000000e+00  0.00000000e+00 -5.13063526e-07  5.46349331e-08
  0.00000000e+00  0.00000000e+00  0.00000000e+00  3.41109804e-06]","[[ 0.00010145  0.00554034]
 [-0.00015014  0.00209243]]",[],0.0,0.0
1787153563.3353074,1.8878599491967925,0.7673092117202425,2.0959428293894193,"[ 7.74636335e-06 -2.81421294e-07  0.00000000e+00  0.00000000e+00
  0.00000000e+00 -5.13063526e-07 -2.81421294e-07  6.73999243e-06
  0.00000000e+00  0.00000000e+00  0.00000000e+00  5.46349331e-08
  0.00000000e+00  0.00000000e+00  0.00000000e+00  0.00000000e+00
  0.00000000e+00  0.00000000e+00  0.00000000e+00  0.00000000e+00
  0.00000000e+00  0.00000000e+00  0.00000000e+00  0.00000000e+00
  0.00000000e+00  0.00000000e+00  0.00000000e+00  0.00000000e+00
  0.00000000e+00  0.00000000e+00 -5.13063526e-07  5.46349331e-08
  0.00000000e+00  0.00000000e+00  0.00000000e+00  3.41109804e-06]","[[ 0.00010145  0.00554034]
 [-0.00015014  0.00209243]]",[],0.0,0.0
1787153563.3834698,1.8847605241944498,0.7651702093357645,2.099224010264921,"[ 6.86462682e-06 -2.87162280e-07  0.00000000e+00  0.00000000e+00
  0.00000000e+00 -5.14718886e-07 -2.87162280e-07  6.05794120e-06
  0.00000000e+00  0.00000000e+00  0.00000000e+00  5.26599463e-08
  0.00000000e+00  0.00000000e+00  0.00000000e+00  0.00000000e+00
  0.00000000e+00  0.00000000e+00  0.00000000e+00  0.00000000e+00
  0.00000000e+00  0.00000000e+00  0.00000000e+00  0.00000000e+00
  0.00000000e+00  0.00000000e+00  0.00000000e+00  0.00000000e+00
  0.00000000e+00  0.00000000e+00 -5.14718886e-07  5.26599463e-08
  0.00000000e+00  0.00000000e+00  0.00000000e+00  3.23943945e-06]","[[ 9.04033953e-05  5.00146397e-03]
 [-1.35513888e-04  1.84520840e-03]]",[],0.0,0.0
1787153564.0196831,1.8847605241944498,0.7651702093357645,2.099224010264921,"[ 6.86462682e-06 -2.87162280e-07  0.00000000e+00  0.00000000e+00
  0.00000000e+00 -5.14718886e-07 -2.87162280e-07  6.05794120e-06
  0.00000000e+00  0.00000000e+00  0.00000000e+00  5.26599463e-08
  0.00000000e+00  0.00000000e+00  0.00000000e+00  0.00000000e+00
  0.00000000e+00  0.00000000e+00  0.00000000e+00  0.00000000e+00
  0.00000000e+00  0.00000000e+00  0.00000000e+00  0.00000000e+00
  0.00000000e+00  0.00000000e+00  0.00000000e+00  0.00000000e+00
  0.00000000e+00  0.00000000e+00 -5.14718886e-07  5.26599463e-08
  0.00000000e+00  0.00000000e+00  0.00000000e+00  3.23943945e-06]","[[ 9.04033953e-05  5.00146397e-03]
 [-1.35513888e-04  1.84520840e-03]]",[],0.0,0.0
1787153564.0299623,1.8847605241944498,0.7651702093357645,2.099224010264921,"[ 6.86462682e-06 -2.87162280e-07  0.00000000e+00  0.00000000e+00
  0.00000000e+00 -5.14718886e-07 -2.87162280e-07  6.05794120e-06
  0.00000000e+00  0.00000000e+00  0.00000000e+00  5.26599463e-08
  0.00000000e+00  0.00000000e+00  0.00000000e+00  0.00000000e+00
  0.00000000e+00  0.00000000e+00  0.00000000e+00  0.00000000e+00
  0.00000000e+00  0.00000000e+00  0.00000000e+00  0.00000000e+00
  0.00000000e+00  0.00000000e+00  0.00000000e+00  0.00000000e+00
  0.00000000e+00  0.00000000e+00 -5.14718886e-07  5.26599463e-08
  0.00000000e+00  0.00000000e+00  0.00000000e+00  3.23943945e-06]","[[ 9.04033953e-05  5.00146397e-03]
 [-1.35513888e-04  1.84520840e-03]]",[],0.0,0.0
1787153564.0822897,1.88039692133598,0.7601107716305066,2.1010745177026493,"[ 6.21919458e-06 -2.70923592e-07  0.00000000e+00  0.00000000e+00
  0.00000000e+00 -4.13683664e-07 -2.70923592e-07  5.51730791e-06
  0.00000000e+00  0.00000000e+00  0.00000000e+00  1.13029426e-07
  0.00000000e+00  0.00000000e+00  0.00000000e+00  0.00000000e+00
  0.00000000e+00  0.00000000e+00  0.00000000e+00  0.00000000e+00
  0.00000000e+00  0.00000000e+00  0.00000000e+00  0.00000000e+00
  0.00000000e+00  0.00000000e+00  0.00000000e+00  0.00000000e+00
  0.00000000e+00  0.00000000e+00 -4.13683664e-07  1.13029426e-07
  0.00000000e+00  0.00000000e+00  0.00000000e+00  3.22246624e-06]","[[ 9.04033953e-05  5.00146397e-03]
 [-1.35513888e-04  1.84520840e-03]]",[],0.0,0.0
1787153564.6974223,1.88039692133598,0.7601107716305066,2.1010745177026493,"[ 6.21919458e-06 -2.70923592e-07  0.00000000e+00  0.00000000e+00
  0.00000000e+00 -4.13683664e-07 -2.70923592e-07  5.51730791e-06
  0.00000000e+00  0.00000000e+00  0.00000000e+00  1.13029426e-07
  0.00000000e+00  0.00000000e+00  0.00000000e+00  0.00000000e+00
  0.00000000e+00  0.00000000e+00  0.00000000e+00  0.00000000e+00
  0.00000000e+00  0.00000000e+00  0.00000000e+00  0.00000000e+00
  0.00000000e+00  0.00000000e+00  0.00000000e+00  0.00000000e+00
  0.00000000e+00  0.00000000e+00 -4.13683664e-07  1.13029426e-07
  0.00000000e+00  0.00000000e+00  0.00000000e+00  3.22246624e-06]","[[ 8.19248907e-05  4.44359056e-03]
 [-1.23634458e-04  1.56118250e-03]]",[],0.0,0.0
1787153564.7296402,1.88039692133598,0.7601107716305066,2.1010745177026493,"[ 6.21919458e-06 -2.70923592e-07  0.00000000e+00  0.00000000e+00
  0.00000000e+00 -4.13683664e-07 -2.70923592e-07  5.51730791e-06
  0.00000000e+00  0.00000000e+00  0.00000000e+00  1.13029426e-07
  0.00000000e+00  0.00000000e+00  0.00000000e+00  0.00000000e+00
  0.00000000e+00  0.00000000e+00  0.00000000e+00  0.00000000e+00
  0.00000000e+00  0.00000000e+00  0.00000000e+00  0.00000000e+00
  0.00000000e+00  0.00000000e+00  0.00000000e+00  0.00000000e+00
  0.00000000e+00  0.00000000e+00 -4.13683664e-07  1.13029426e-07
  0.00000000e+00  0.00000000e+00  0.00000000e+00  3.22246624e-06]","[[ 8.19248907e-05  4.44359056e-03]
 [-1.23634458e-04  1.56118250e-03]]",[],0.0,0.0
1787153564.7942538,1.8778661884062655,0.7585035997178244,2.118111786807928,"[ 5.65806126e-06 -2.74559155e-07  0.00000000e+00  0.00000000e+00
  0.00000000e+00 -3.96181266e-07 -2.74559155e-07  5.08639667e-06
  0.00000000e+00  0.00000000e+00  0.00000000e+00  8.56603340e-08
  0.00000000e+00  0.00000000e+00  0.00000000e+00  0.00000000e+00
  0.00000000e+00  0.00000000e+00  0.00000000e+00  0.00000000e+00
  0.00000000e+00  0.00000000e+00  0.00000000e+00  0.00000000e+00
  0.00000000e+00  0.00000000e+00  0.00000000e+00  0.00000000e+00
  0.00000000e+00  0.00000000e+00 -3.96181266e-07  8.56603340e-08
  0.00000000e+00  0.00000000e+00  0.00000000e+00  3.21865456e-06]","[[ 7.48218200e-05  4.06808388e-03]
 [-1.14432421e-04  1.44424275e-03]]",[],0.0,0.0
1787153564.8294127,1.8778661884062655,0.7585035997178244,2.118111786807928,"[ 5.65806126e-06 -2.74559155e-07  0.00000000e+00  0.00000000e+00
  0.00000000e+00 -3.96181266e-07 -2.74559155e-07  5.08639667e-06
  0.00000000e+00  0.00000000e+00  0.00000000e+00  8.56603340e-08
  0.00000000e+00  0.00000000e+00  0.00000000e+00  0.00000000e+00
  0.00000000e+00  0.00000000e+00  0.00000000e+00  0.00000000e+00
  0.00000000e+00  0.00000000e+00  0.00000000e+00  0.00000000e+00
  0.00000000e+00  0.00000000e+00  0.00000000e+00  0.00000000e+00
  0.00000000e+00  0.00000000e+00 -3.96181266e-07  8.56603340e-08
  0.00000000e+00  0.00000000e+00  0.00000000e+00  3.21865456e-06]","[[ 7.48218200e-05  4.06808388e-03]
 [-1.14432421e-04  1.44424275e-03]]",[],0.0,0.0
1787153564.8802218,1.8778661884062655,0.7585035997178244,2.118111786807928,"[ 5.65806126e-06 -2.74559155e-07  0.00000000e+00  0.00000000e+00
  0.00000000e+00 -3.96181266e-07 -2.74559155e-07  5.08639667e-06
  0.00000000e+00  0.00000000e+00  0.00000000e+00  8.56603340e-08
  0.00000000e+00  0.00000000e+00  0.00000000e+00  0.00000000e+00
  0.00000000e+00  0.00000000e+00  0.00000000e+00  0.00000000e+00
  0.00000000e+00  0.00000000e+00  0.00000000e+00  0.00000000e+00
  0.00000000e+00  0.00000000e+00  0.00000000e+00  0.00000000e+00
  0.00000000e+00  0.00000000e+00 -3.96181266e-07  8.56603340e-08
  0.00000000e+00  0.00000000e+00  0.00000000e+00  3.21865456e-06]","[[ 7.48218200e-05  4.06808388e-03]
 [-1.14432421e-04  1.44424275e-03]]",[],0.0,0.0
1787153564.9289377,1.8778661884062655,0.7585035997178244,2.118111786807928,"[ 5.65806126e-06 -2.74559155e-07  0.00000000e+00  0.00000000e+00
  0.00000000e+00 -3.96181266e-07 -2.74559155e-07  5.08639667e-06
  0.00000000e+00  0.00000000e+00  0.00000000e+00  8.56603340e-08
  0.00000000e+00  0.00000000e+00  0.00000000e+00  0.00000000e+00
  0.00000000e+00  0.00000000e+00  0.00000000e+00  0.00000000e+00
  0.00000000e+00  0.00000000e+00  0.00000000e+00  0.00000000e+00
  0.00000000e+00  0.00000000e+00  0.00000000e+00  0.00000000e+00
  0.00000000e+00  0.00000000e+00 -3.96181266e-07  8.56603340e-08
  0.00000000e+00  0.00000000e+00  0.00000000e+00  3.21865456e-06]","[[ 7.48218200e-05  4.06808388e-03]
 [-1.14432421e-04  1.44424275e-03]]",[],0.0,0.0
1787153564.9784648,1.8778661884062655,0.7585035997178244,2.118111786807928,"[ 5.65806126e-06 -2.74559155e-07  0.00000000e+00  0.00000000e+00
  0.00000000e+00 -3.96181266e-07 -2.74559155e-07  5.08639667e-06
  0.00000000e+00  0.00000000e+00  0.00000000e+00  8.56603340e-08
  0.00000000e+00  0.00000000e+00  0.00000000e+00  0.00000000e+00
  0.00000000e+00  0.00000000e+00  0.00000000e+00  0.00000000e+00
  0.00000000e+00  0.00000000e+00  0.00000000e+00  0.00000000e+00
  0.00000000e+00  0.00000000e+00  0.00000000e+00  0.00000000e+00
  0.00000000e+00  0.00000000e+00 -3.96181266e-07  8.56603340e-08
  0.00000000e+00  0.00000000e+00  0.00000000e+00  3.21865456e-06]","[[ 7.48218200e-05  4.06808388e-03]
 [-1.14432421e-04  1.44424275e-03]]",[],0.0,0.0
1787153565.0298924,1.8778661884062655,0.7585035997178244,2.118111786807928,"[ 5.65806126e-06 -2.74559155e-07  0.00000000e+00  0.00000000e+00
  0.00000000e+00 -3.96181266e-07 -2.74559155e-07  5.08639667e-06
  0.00000000e+00  0.00000000e+00  0.00000000e+00  8.56603340e-08
  0.00000000e+00  0.00000000e+00  0.00000000e+00  0.00000000e+00
  0.00000000e+00  0.00000000e+00  0.00000000e+00  0.00000000e+00
  0.00000000e+00  0.00000000e+00  0.00000000e+00  0.00000000e+00
  0.00000000e+00  0.00000000e+00  0.00000000e+00  0.00000000e+00
  0.00000000e+00  0.00000000e+00 -3.96181266e-07  8.56603340e-08
  0.00000000e+00  0.00000000e+00  0.00000000e+00  3.21865456e-06]","[[ 7.48218200e-05  4.06808388e-03]
 [-1.14432421e-04  1.44424275e-03]]",[],0.0,0.0
1787153565.0808072,1.8778661884062655,0.7585035997178244,2.118111786807928,"[ 5.65806126e-06 -2.74559155e-07  0.00000000e+00  0.00000000e+00
  0.00000000e+00 -3.96181266e-07 -2.74559155e-07  5.08639667e-06
  0.00000000e+00  0.00000000e+00  0.00000000e+00  8.56603340e-08
  0.00000000e+00  0.00000000e+00  0.00000000e+00  0.00000000e+00
  0.00000000e+00  0.00000000e+00  0.00000000e+00  0.00000000e+00
  0.00000000e+00  0.00000000e+00  0.00000000e+00  0.00000000e+00
  0.00000000e+00  0.00000000e+00  0.00000000e+00  0.00000000e+00
  0.00000000e+00  0.00000000e+00 -3.96181266e-07  8.56603340e-08
  0.00000000e+00  0.00000000e+00  0.00000000e+00  3.21865456e-06]","[[ 7.48218200e-05  4.06808388e-03]
 [-1.14432421e-04  1.44424275e-03]]",[],0.0,0.0
1787153565.137599,1.8778661884062655,0.7585035997178244,2.118111786807928,"[ 5.65806126e-06 -2.74559155e-07  0.00000000e+00  0.00000000e+00
  0.00000000e+00 -3.96181266e-07 -2.74559155e-07  5.08639667e-06
  0.00000000e+00  0.00000000e+00  0.00000000e+00  8.56603340e-08
  0.00000000e+00  0.00000000e+00  0.00000000e+00  0.00000000e+00
  0.00000000e+00  0.00000000e+00  0.00000000e+00  0.00000000e+00
  0.00000000e+00  0.00000000e+00  0.00000000e+00  0.00000000e+00
  0.00000000e+00  0.00000000e+00  0.00000000e+00  0.00000000e+00
  0.00000000e+00  0.00000000e+00 -3.96181266e-07  8.56603340e-08
  0.00000000e+00  0.00000000e+00  0.00000000e+00  3.21865456e-06]","[[ 7.48218200e-05  4.06808388e-03]
 [-1.14432421e-04  1.44424275e-03]]",[],0.0,0.0
1787153565.1861238,1.8778661884062655,0.7585035997178244,2.118111786807928,"[ 5.65806126e-06 -2.74559155e-07  0.00000000e+00  0.00000000e+00
  0.00000000e+00 -3.96181266e-07 -2.74559155e-07  5.08639667e-06
  0.00000000e+00  0.00000000e+00  0.00000000e+00  8.56603340e-08
  0.00000000e+00  0.00000000e+00  0.00000000e+00  0.00000000e+00
  0.00000000e+00  0.00000000e+00  0.00000000e+00  0.00000000e+00
  0.00000000e+00  0.00000000e+00  0.00000000e+00  0.00000000e+00
  0.00000000e+00  0.00000000e+00  0.00000000e+00  0.00000000e+00
  0.00000000e+00  0.00000000e+00 -3.96181266e-07  8.56603340e-08
  0.00000000e+00  0.00000000e+00  0.00000000e+00  3.21865456e-06]","[[ 7.48218200e-05  4.06808388e-03]
 [-1.14432421e-04  1.44424275e-03]]",[],0.0,0.0
1787153565.2302415,1.8778661884062655,0.7585035997178244,2.118111786807928,"[ 5.65806126e-06 -2.74559155e-07  0.00000000e+00  0.00000000e+00
  0.00000000e+00 -3.96181266e-07 -2.74559155e-07  5.08639667e-06
  0.00000000e+00  0.00000000e+00  0.00000000e+00  8.56603340e-08
  0.00000000e+00  0.00000000e+00  0.00000000e+00  0.00000000e+00
  0.00000000e+00  0.00000000e+00  0.00000000e+00  0.00000000e+00
  0.00000000e+00  0.00000000e+00  0.00000000e+00  0.00000000e+00
  0.00000000e+00  0.00000000e+00  0.00000000e+00  0.00000000e+00
  0.00000000e+00  0.00000000e+00 -3.96181266e-07  8.56603340e-08
  0.00000000e+00  0.00000000e+00  0.00000000e+00  3.21865456e-06]","[[ 7.48218200e-05  4.06808388e-03]
 [-1.14432421e-04  1.44424275e-03]]",[],0.0,0.0
1787153565.2804992,1.8778661884062655,0.7585035997178244,2.118111786807928,"[ 5.65806126e-06 -2.74559155e-07  0.00000000e+00  0.00000000e+00
  0.00000000e+00 -3.96181266e-07 -2.74559155e-07  5.08639667e-06
  0.00000000e+00  0.00000000e+00  0.00000000e+00  8.56603340e-08
  0.00000000e+00  0.00000000e+00  0.00000000e+00  0.00000000e+00
  0.00000000e+00  0.00000000e+00  0.00000000e+00  0.00000000e+00
  0.00000000e+00  0.00000000e+00  0.00000000e+00  0.00000000e+00
  0.00000000e+00  0.00000000e+00  0.00000000e+00  0.00000000e+00
  0.00000000e+00  0.00000000e+00 -3.96181266e-07  8.56603340e-08
  0.00000000e+00  0.00000000e+00  0.00000000e+00  3.21865456e-06]","[[ 7.48218200e-05  4.06808388e-03]
 [-1.14432421e-04  1.44424275e-03]]",[],0.0,0.0
1787153565.32856,1.8778661884062655,0.7585035997178244,2.118111786807928,"[ 5.65806126e-06 -2.74559155e-07  0.00000000e+00  0.00000000e+00
  0.00000000e+00 -3.96181266e-07 -2.74559155e-07  5.08639667e-06
  0.00000000e+00  0.00000000e+00  0.00000000e+00  8.56603340e-08
  0.00000000e+00  0.00000000e+00  0.00000000e+00  0.00000000e+00
  0.00000000e+00  0.00000000e+00  0.00000000e+00  0.00000000e+00
  0.00000000e+00  0.00000000e+00  0.00000000e+00  0.00000000e+00
  0.00000000e+00  0.00000000e+00  0.00000000e+00  0.00000000e+00
  0.00000000e+00  0.00000000e+00 -3.96181266e-07  8.56603340e-08
  0.00000000e+00  0.00000000e+00  0.00000000e+00  3.21865456e-06]","[[ 7.48218200e-05  4.06808388e-03]
 [-1.14432421e-04  1.44424275e-03]]",[],0.0,0.0
1787153565.3790586,1.8778661884062655,0.7585035997178244,2.118111786807928,"[ 5.65806126e-06 -2.74559155e-07  0.00000000e+00  0.00000000e+00
  0.00000000e+00 -3.96181266e-07 -2.74559155e-07  5.08639667e-06
  0.00000000e+00  0.00000000e+00  0.00000000e+00  8.56603340e-08
  0.00000000e+00  0.00000000e+00  0.00000000e+00  0.00000000e+00
  0.00000000e+00  0.00000000e+00  0.00000000e+00  0.00000000e+00
  0.00000000e+00  0.00000000e+00  0.00000000e+00  0.00000000e+00
  0.00000000e+00  0.00000000e+00  0.00000000e+00  0.00000000e+00
  0.00000000e+00  0.00000000e+00 -3.96181266e-07  8.56603340e-08
  0.00000000e+00  0.00000000e+00  0.00000000e+00  3.21865456e-06]","[[ 7.48218200e-05  4.06808388e-03]
 [-1.14432421e-04  1.44424275e-03]]",[],0.0,0.0
1787153565.4318452,1.8778661884062655,0.7585035997178244,2.118111786807928,"[ 5.65806126e-06 -2.74559155e-07  0.00000000e+00  0.00000000e+00
  0.00000000e+00 -3.96181266e-07 -2.74559155e-07  5.08639667e-06
  0.00000000e+00  0.00000000e+00  0.00000000e+00  8.56603340e-08
  0.00000000e+00  0.00000000e+00  0.00000000e+00  0.00000000e+00
  0.00000000e+00  0.00000000e+00  0.00000000e+00  0.00000000e+00
  0.00000000e+00  0.00000000e+00  0.00000000e+00  0.00000000e+00
  0.00000000e+00  0.00000000e+00  0.00000000e+00  0.00000000e+00
  0.00000000e+00  0.00000000e+00 -3.96181266e-07  8.56603340e-08
  0.00000000e+00  0.00000000e+00  0.00000000e+00  3.21865456e-06]","[[ 7.48218200e-05  4.06808388e-03]
 [-1.14432421e-04  1.44424275e-03]]",[],0.0,0.0
1787153565.4859772,1.8778661884062655,0.7585035997178244,2.118111786807928,"[ 5.65806126e-06 -2.74559155e-07  0.00000000e+00  0.00000000e+00
  0.00000000e+00 -3.96181266e-07 -2.74559155e-07  5.08639667e-06
  0.00000000e+00  0.00000000e+00  0.00000000e+00  8.56603340e-08
  0.00000000e+00  0.00000000e+00  0.00000000e+00  0.00000000e+00
  0.00000000e+00  0.00000000e+00  0.00000000e+00  0.00000000e+00
  0.00000000e+00  0.00000000e+00  0.00000000e+00  0.00000000e+00
  0.00000000e+00  0.00000000e+00  0.00000000e+00  0.00000000e+00
  0.00000000e+00  0.00000000e+00 -3.96181266e-07  8.56603340e-08
  0.00000000e+00  0.00000000e+00  0.00000000e+00  3.21865456e-06]","[[ 7.48218200e-05  4.06808388e-03]
 [-1.14432421e-04  1.44424275e-03]]",[],0.0,0.0
1787153565.52943,1.8778661884062655,0.7585035997178244,2.118111786807928,"[ 5.65806126e-06 -2.74559155e-07  0.00000000e+00  0.00000000e+00
  0.00000000e+00 -3.96181266e-07 -2.74559155e-07  5.08639667e-06
  0.00000000e+00  0.00000000e+00  0.00000000e+00  8.56603340e-08
  0.00000000e+00  0.00000000e+00  0.00000000e+00  0.00000000e+00
  0.00000000e+00  0.00000000e+00  0.00000000e+00  0.00000000e+00
  0.00000000e+00  0.00000000e+00  0.00000000e+00  0.00000000e+00
  0.00000000e+00  0.00000000e+00  0.00000000e+00  0.00000000e+00
  0.00000000e+00  0.00000000e+00 -3.96181266e-07  8.56603340e-08
  0.00000000e+00  0.00000000e+00  0.00000000e+00  3.21865456e-06]","[[ 7.48218200e-05  4.06808388e-03]
 [-1.14432421e-04  1.44424275e-03]]",[],0.0,0.0
1787153565.5937998,1.8778661884062655,0.7585035997178244,2.118111786807928,"[ 5.65806126e-06 -2.74559155e-07  0.00000000e+00  0.00000000e+00
  0.00000000e+00 -3.96181266e-07 -2.74559155e-07  5.08639667e-06
  0.00000000e+00  0.00000000e+00  0.00000000e+00  8.56603340e-08
  0.00000000e+00  0.00000000e+00  0.00000000e+00  0.00000000e+00
  0.00000000e+00  0.00000000e+00  0.00000000e+00  0.00000000e+00
  0.00000000e+00  0.00000000e+00  0.00000000e+00  0.00000000e+00
  0.00000000e+00  0.00000000e+00  0.00000000e+00  0.00000000e+00
  0.00000000e+00  0.00000000e+00 -3.96181266e-07  8.56603340e-08
  0.00000000e+00  0.00000000e+00  0.00000000e+00  3.21865456e-06]","[[ 7.48218200e-05  4.06808388e-03]
 [-1.14432421e-04  1.44424275e-03]]",[],0.0,0.0
1787153565.6296341,1.8778661884062655,0.7585035997178244,2.118111786807928,"[ 5.65806126e-06 -2.74559155e-07  0.00000000e+00  0.00000000e+00
  0.00000000e+00 -3.96181266e-07 -2.74559155e-07  5.08639667e-06
  0.00000000e+00  0.00000000e+00  0.00000000e+00  8.56603340e-08
  0.00000000e+00  0.00000000e+00  0.00000000e+00  0.00000000e+00
  0.00000000e+00  0.00000000e+00  0.00000000e+00  0.00000000e+00
  0.00000000e+00  0.00000000e+00  0.00000000e+00  0.00000000e+00
  0.00000000e+00  0.00000000e+00  0.00000000e+00  0.00000000e+00
  0.00000000e+00  0.00000000e+00 -3.96181266e-07  8.56603340e-08
  0.00000000e+00  0.00000000e+00  0.00000000e+00  3.21865456e-06]","[[ 7.48218200e-05  4.06808388e-03]
 [-1.14432421e-04  1.44424275e-03]]",[],0.0,0.0
1787153565.6798193,1.8756347822873225,0.7558519695360754,2.1434962454917716,"[ 5.21324204e-06 -3.39924033e-07  0.00000000e+00  0.00000000e+00
  0.00000000e+00 -3.79473671e-07 -3.39924033e-07  4.80262759e-06
  0.00000000e+00  0.00000000e+00  0.00000000e+00  7.34519800e-08
  0.00000000e+00  0.00000000e+00  0.00000000e+00  0.00000000e+00
  0.00000000e+00  0.00000000e+00  0.00000000e+00  0.00000000e+00
  0.00000000e+00  0.00000000e+00  0.00000000e+00  0.00000000e+00
  0.00000000e+00  0.00000000e+00  0.00000000e+00  0.00000000e+00
  0.00000000e+00  0.00000000e+00 -3.79473671e-07  7.34519800e-08
  0.00000000e+00  0.00000000e+00  0.00000000e+00  3.35939507e-06]","[[ 7.06977018e-05  3.74447066e-03]
 [-1.09095072e-04  1.32185669e-03]]",[],0.0,0.0
1787153565.7315211,1.8756347822873225,0.7558519695360754,2.1434962454917716,"[ 5.21324204e-06 -3.39924033e-07  0.00000000e+00  0.00000000e+00
  0.00000000e+00 -3.79473671e-07 -3.39924033e-07  4.80262759e-06
  0.00000000e+00  0.00000000e+00  0.00000000e+00  7.34519800e-08
  0.00000000e+00  0.00000000e+00  0.00000000e+00  0.00000000e+00
  0.00000000e+00  0.00000000e+00  0.00000000e+00  0.00000000e+00
  0.00000000e+00  0.00000000e+00  0.00000000e+00  0.00000000e+00
  0.00000000e+00  0.00000000e+00  0.00000000e+00  0.00000000e+00
  0.00000000e+00  0.00000000e+00 -3.79473671e-07  7.34519800e-08
  0.00000000e+00  0.00000000e+00  0.00000000e+00  3.35939507e-06]","[[ 7.06977018e-05  3.74447066e-03]
 [-1.09095072e-04  1.32185669e-03]]",[],0.0,0.0
1787153565.7942736,1.8756347822873225,0.7558519695360754,2.1434962454917716,"[ 5.21324204e-06 -3.39924033e-07  0.00000000e+00  0.00000000e+00
  0.00000000e+00 -3.79473671e-07 -3.39924033e-07  4.80262759e-06
  0.00000000e+00  0.00000000e+00  0.00000000e+00  7.34519800e-08
  0.00000000e+00  0.00000000e+00  0.00000000e+00  0.00000000e+00
  0.00000000e+00  0.00000000e+00  0.00000000e+00  0.00000000e+00
  0.00000000e+00  0.00000000e+00  0.00000000e+00  0.00000000e+00
  0.00000000e+00  0.00000000e+00  0.00000000e+00  0.00000000e+00
  0.00000000e+00  0.00000000e+00 -3.79473671e-07  7.34519800e-08
  0.00000000e+00  0.00000000e+00  0.00000000e+00  3.35939507e-06]","[[ 7.06977018e-05  3.74447066e-03]
 [-1.09095072e-04  1.32185669e-03]]",[],0.0,0.0
1787153565.8360527,1.8756347822873225,0.7558519695360754,2.1434962454917716,"[ 5.21324204e-06 -3.39924033e-07  0.00000000e+00  0.00000000e+00
  0.00000000e+00 -3.79473671e-07 -3.39924033e-07  4.80262759e-06
  0.00000000e+00  0.00000000e+00  0.00000000e+00  7.34519800e-08
  0.00000000e+00  0.00000000e+00  0.00000000e+00  0.00000000e+00
  0.00000000e+00  0.00000000e+00  0.00000000e+00  0.00000000e+00
  0.00000000e+00  0.00000000e+00  0.00000000e+00  0.00000000e+00
  0.00000000e+00  0.00000000e+00  0.00000000e+00  0.00000000e+00
  0.00000000e+00  0.00000000e+00 -3.79473671e-07  7.34519800e-08
  0.00000000e+00  0.00000000e+00  0.00000000e+00  3.35939507e-06]","[[ 7.06977018e-05  3.74447066e-03]
 [-1.09095072e-04  1.32185669e-03]]",[],0.0,0.0
1787153565.8787503,1.8756347822873225,0.7558519695360754,2.1434962454917716,"[ 5.21324204e-06 -3.39924033e-07  0.00000000e+00  0.00000000e+00
  0.00000000e+00 -3.79473671e-07 -3.39924033e-07  4.80262759e-06
  0.00000000e+00  0.00000000e+00  0.00000000e+00  7.34519800e-08
  0.00000000e+00  0.00000000e+00  0.00000000e+00  0.00000000e+00
  0.00000000e+00  0.00000000e+00  0.00000000e+00  0.00000000e+00
  0.00000000e+00  0.00000000e+00  0.00000000e+00  0.00000000e+00
  0.00000000e+00  0.00000000e+00  0.00000000e+00  0.00000000e+00
  0.00000000e+00  0.00000000e+00 -3.79473671e-07  7.34519800e-08
  0.00000000e+00  0.00000000e+00  0.00000000e+00  3.35939507e-06]","[[ 7.06977018e-05  3.74447066e-03]
 [-1.09095072e-04  1.32185669e-03]]",[],0.0,0.0
1787153565.9306664,1.8756347822873225,0.7558519695360754,2.1434962454917716,"[ 5.21324204e-06 -3.39924033e-07  0.00000000e+00  0.00000000e+00
  0.00000000e+00 -3.79473671e-07 -3.39924033e-07  4.80262759e-06
  0.00000000e+00  0.00000000e+00  0.00000000e+00  7.34519800e-08
  0.00000000e+00  0.00000000e+00  0.00000000e+00  0.00000000e+00
  0.00000000e+00  0.00000000e+00  0.00000000e+00  0.00000000e+00
  0.00000000e+00  0.00000000e+00  0.00000000e+00  0.00000000e+00
  0.00000000e+00  0.00000000e+00  0.00000000e+00  0.00000000e+00
  0.00000000e+00  0.00000000e+00 -3.79473671e-07  7.34519800e-08
  0.00000000e+00  0.00000000e+00  0.00000000e+00  3.35939507e-06]","[[ 7.06977018e-05  3.74447066e-03]
 [-1.09095072e-04  1.32185669e-03]]",[],0.0,0.0
1787153565.9804952,1.8756347822873225,0.7558519695360754,2.1434962454917716,"[ 5.21324204e-06 -3.39924033e-07  0.00000000e+00  0.00000000e+00
  0.00000000e+00 -3.79473671e-07 -3.39924033e-07  4.80262759e-06
  0.00000000e+00  0.00000000e+00  0.00000000e+00  7.34519800e-08
  0.00000000e+00  0.00000000e+00  0.00000000e+00  0.00000000e+00
  0.00000000e+00  0.00000000e+00  0.00000000e+00  0.00000000e+00
  0.00000000e+00  0.00000000e+00  0.00000000e+00  0.00000000e+00
  0.00000000e+00  0.00000000e+00  0.00000000e+00  0.00000000e+00
  0.00000000e+00  0.00000000e+00 -3.79473671e-07  7.34519800e-08
  0.00000000e+00  0.00000000e+00  0.00000000e+00  3.35939507e-06]","[[ 7.06977018e-05  3.74447066e-03]
 [-1.09095072e-04  1.32185669e-03]]",[],0.0,0.0
1787153566.0295599,1.8756347822873225,0.7558519695360754,2.1434962454917716,"[ 5.21324204e-06 -3.39924033e-07  0.00000000e+00  0.00000000e+00
  0.00000000e+00 -3.79473671e-07 -3.39924033e-07  4.80262759e-06
  0.00000000e+00  0.00000000e+00  0.00000000e+00  7.34519800e-08
  0.00000000e+00  0.00000000e+00  0.00000000e+00  0.00000000e+00
  0.00000000e+00  0.00000000e+00  0.00000000e+00  0.00000000e+00
  0.00000000e+00  0.00000000e+00  0.00000000e+00  0.00000000e+00
  0.00000000e+00  0.00000000e+00  0.00000000e+00  0.00000000e+00
  0.00000000e+00  0.00000000e+00 -3.79473671e-07  7.34519800e-08
  0.00000000e+00  0.00000000e+00  0.00000000e+00  3.35939507e-06]","[[ 7.06977018e-05  3.74447066e-03]
 [-1.09095072e-04  1.32185669e-03]]",[],0.0,0.0
1787153566.0886662,1.8756347822873225,0.7558519695360754,2.1434962454917716,"[ 5.21324204e-06 -3.39924033e-07  0.00000000e+00  0.00000000e+00
  0.00000000e+00 -3.79473671e-07 -3.39924033e-07  4.80262759e-06
  0.00000000e+00  0.00000000e+00  0.00000000e+00  7.34519800e-08
  0.00000000e+00  0.00000000e+00  0.00000000e+00  0.00000000e+00
  0.00000000e+00  0.00000000e+00  0.00000000e+00  0.00000000e+00
  0.00000000e+00  0.00000000e+00  0.00000000e+00  0.00000000e+00
  0.00000000e+00  0.00000000e+00  0.00000000e+00  0.00000000e+00
  0.00000000e+00  0.00000000e+00 -3.79473671e-07  7.34519800e-08
  0.00000000e+00  0.00000000e+00  0.00000000e+00  3.35939507e-06]","[[ 7.06977018e-05  3.74447066e-03]
 [-1.09095072e-04  1.32185669e-03]]",[],0.0,0.0
1787153566.151645,1.8756347822873225,0.7558519695360754,2.1434962454917716,"[ 5.21324204e-06 -3.39924033e-07  0.00000000e+00  0.00000000e+00
  0.00000000e+00 -3.79473671e-07 -3.39924033e-07  4.80262759e-06
  0.00000000e+00  0.00000000e+00  0.00000000e+00  7.34519800e-08
  0.00000000e+00  0.00000000e+00  0.00000000e+00  0.00000000e+00
  0.00000000e+00  0.00000000e+00  0.00000000e+00  0.00000000e+00
  0.00000000e+00  0.00000000e+00  0.00000000e+00  0.00000000e+00
  0.00000000e+00  0.00000000e+00  0.00000000e+00  0.00000000e+00
  0.00000000e+00  0.00000000e+00 -3.79473671e-07  7.34519800e-08
  0.00000000e+00  0.00000000e+00  0.00000000e+00  3.35939507e-06]","[[ 7.06977018e-05  3.74447066e-03]
 [-1.09095072e-04  1.32185669e-03]]",[],0.0,0.0
1787153566.1857944,1.8756347822873225,0.7558519695360754,2.1434962454917716,"[ 5.21324204e-06 -3.39924033e-07  0.00000000e+00  0.00000000e+00
  0.00000000e+00 -3.79473671e-07 -3.39924033e-07  4.80262759e-06
  0.00000000e+00  0.00000000e+00  0.00000000e+00  7.34519800e-08
  0.00000000e+00  0.00000000e+00  0.00000000e+00  0.00000000e+00
  0.00000000e+00  0.00000000e+00  0.00000000e+00  0.00000000e+00
  0.00000000e+00  0.00000000e+00  0.00000000e+00  0.00000000e+00
  0.00000000e+00  0.00000000e+00  0.00000000e+00  0.00000000e+00
  0.00000000e+00  0.00000000e+00 -3.79473671e-07  7.34519800e-08
  0.00000000e+00  0.00000000e+00  0.00000000e+00  3.35939507e-06]","[[ 7.06977018e-05  3.74447066e-03]
 [-1.09095072e-04  1.32185669e-03]]",[],0.0,0.0
1787153566.2326574,1.8756347822873225,0.7558519695360754,2.1434962454917716,"[ 5.21324204e-06 -3.39924033e-07  0.00000000e+00  0.00000000e+00
  0.00000000e+00 -3.79473671e-07 -3.39924033e-07  4.80262759e-06
  0.00000000e+00  0.00000000e+00  0.00000000e+00  7.34519800e-08
  0.00000000e+00  0.00000000e+00  0.00000000e+00  0.00000000e+00
  0.00000000e+00  0.00000000e+00  0.00000000e+00  0.00000000e+00
  0.00000000e+00  0.00000000e+00  0.00000000e+00  0.00000000e+00
  0.00000000e+00  0.00000000e+00  0.00000000e+00  0.00000000e+00
  0.00000000e+00  0.00000000e+00 -3.79473671e-07  7.34519800e-08
  0.00000000e+00  0.00000000e+00  0.00000000e+00  3.35939507e-06]","[[ 7.06977018e-05  3.74447066e-03]
 [-1.09095072e-04  1.32185669e-03]]",[],0.0,0.0
1787153566.2811334,1.8756347822873225,0.7558519695360754,2.1434962454917716,"[ 5.21324204e-06 -3.39924033e-07  0.00000000e+00  0.00000000e+00
  0.00000000e+00 -3.79473671e-07 -3.39924033e-07  4.80262759e-06
  0.00000000e+00  0.00000000e+00  0.00000000e+00  7.34519800e-08
  0.00000000e+00  0.00000000e+00  0.00000000e+00  0.00000000e+00
  0.00000000e+00  0.00000000e+00  0.00000000e+00  0.00000000e+00
  0.00000000e+00  0.00000000e+00  0.00000000e+00  0.00000000e+00
  0.00000000e+00  0.00000000e+00  0.00000000e+00  0.00000000e+00
  0.00000000e+00  0.00000000e+00 -3.79473671e-07  7.34519800e-08
  0.00000000e+00  0.00000000e+00  0.00000000e+00  3.35939507e-06]","[[ 7.06977018e-05  3.74447066e-03]
 [-1.09095072e-04  1.32185669e-03]]",[],0.0,0.0
1787153566.328853,1.8756347822873225,0.7558519695360754,2.1434962454917716,"[ 5.21324204e-06 -3.39924033e-07  0.00000000e+00  0.00000000e+00
  0.00000000e+00 -3.79473671e-07 -3.39924033e-07  4.80262759e-06
  0.00000000e+00  0.00000000e+00  0.00000000e+00  7.34519800e-08
  0.00000000e+00  0.00000000e+00  0.00000000e+00  0.00000000e+00
  0.00000000e+00  0.00000000e+00  0.00000000e+00  0.00000000e+00
  0.00000000e+00  0.00000000e+00  0.00000000e+00  0.00000000e+00
  0.00000000e+00  0.00000000e+00  0.00000000e+00  0.00000000e+00
  0.00000000e+00  0.00000000e+00 -3.79473671e-07  7.34519800e-08
  0.00000000e+00  0.00000000e+00  0.00000000e+00  3.35939507e-06]","[[ 7.06977018e-05  3.74447066e-03]
 [-1.09095072e-04  1.32185669e-03]]",[],0.0,0.0
1787153566.3797069,1.8756347822873225,0.7558519695360754,2.1434962454917716,"[ 5.21324204e-06 -3.39924033e-07  0.00000000e+00  0.00000000e+00
  0.00000000e+00 -3.79473671e-07 -3.39924033e-07  4.80262759e-06
  0.00000000e+00  0.00000000e+00  0.00000000e+00  7.34519800e-08
  0.00000000e+00  0.00000000e+00  0.00000000e+00  0.00000000e+00
  0.00000000e+00  0.00000000e+00  0.00000000e+00  0.00000000e+00
  0.00000000e+00  0.00000000e+00  0.00000000e+00  0.00000000e+00
  0.00000000e+00  0.00000000e+00  0.00000000e+00  0.00000000e+00
  0.00000000e+00  0.00000000e+00 -3.79473671e-07  7.34519800e-08
  0.00000000e+00  0.00000000e+00  0.00000000e+00  3.35939507e-06]","[[ 7.06977018e-05  3.74447066e-03]
 [-1.09095072e-04  1.32185669e-03]]",[],0.0,0.0
1787153566.4316952,1.8756347822873225,0.7558519695360754,2.1434962454917716,"[ 5.21324204e-06 -3.39924033e-07  0.00000000e+00  0.00000000e+00
  0.00000000e+00 -3.79473671e-07 -3.39924033e-07  4.80262759e-06
  0.00000000e+00  0.00000000e+00  0.00000000e+00  7.34519800e-08
  0.00000000e+00  0.00000000e+00  0.00000000e+00  0.00000000e+00
  0.00000000e+00  0.00000000e+00  0.00000000e+00  0.00000000e+00
  0.00000000e+00  0.00000000e+00  0.00000000e+00  0.00000000e+00
  0.00000000e+00  0.00000000e+00  0.00000000e+00  0.00000000e+00
  0.00000000e+00  0.00000000e+00 -3.79473671e-07  7.34519800e-08
  0.00000000e+00  0.00000000e+00  0.00000000e+00  3.35939507e-06]","[[ 7.06977018e-05  3.74447066e-03]
 [-1.09095072e-04  1.32185669e-03]]",[],0.0,0.0
1787153566.4786634,1.8756347822873225,0.7558519695360754,2.1434962454917716,"[ 5.21324204e-06 -3.39924033e-07  0.00000000e+00  0.00000000e+00
  0.00000000e+00 -3.79473671e-07 -3.39924033e-07  4.80262759e-06
  0.00000000e+00  0.00000000e+00  0.00000000e+00  7.34519800e-08
  0.00000000e+00  0.00000000e+00  0.00000000e+00  0.00000000e+00
  0.00000000e+00  0.00000000e+00  0.00000000e+00  0.00000000e+00
  0.00000000e+00  0.00000000e+00  0.00000000e+00  0.00000000e+00
  0.00000000e+00  0.00000000e+00  0.00000000e+00  0.00000000e+00
  0.00000000e+00  0.00000000e+00 -3.79473671e-07  7.34519800e-08
  0.00000000e+00  0.00000000e+00  0.00000000e+00  3.35939507e-06]","[[ 7.06977018e-05  3.74447066e-03]
 [-1.09095072e-04  1.32185669e-03]]",[],0.0,0.0
1787153566.528589,1.8756347822873225,0.7558519695360754,2.1434962454917716,"[ 5.21324204e-06 -3.39924033e-07  0.00000000e+00  0.00000000e+00
  0.00000000e+00 -3.79473671e-07 -3.39924033e-07  4.80262759e-06
  0.00000000e+00  0.00000000e+00  0.00000000e+00  7.34519800e-08
  0.00000000e+00  0.00000000e+00  0.00000000e+00  0.00000000e+00
  0.00000000e+00  0.00000000e+00  0.00000000e+00  0.00000000e+00
  0.00000000e+00  0.00000000e+00  0.00000000e+00  0.00000000e+00
  0.00000000e+00  0.00000000e+00  0.00000000e+00  0.00000000e+00
  0.00000000e+00  0.00000000e+00 -3.79473671e-07  7.34519800e-08
  0.00000000e+00  0.00000000e+00  0.00000000e+00  3.35939507e-06]","[[ 7.06977018e-05  3.74447066e-03]
 [-1.09095072e-04  1.32185669e-03]]",[],0.0,0.0
1787153566.580082,1.873563983957743,0.7534666121388518,2.158491222531711,"[ 4.86944150e-06 -3.99437138e-07  0.00000000e+00  0.00000000e+00
  0.00000000e+00 -3.78265530e-07 -3.99437138e-07  4.56143224e-06
  0.00000000e+00  0.00000000e+00  0.00000000e+00  1.43366826e-08
  0.00000000e+00  0.00000000e+00  0.00000000e+00  0.00000000e+00
  0.00000000e+00  0.00000000e+00  0.00000000e+00  0.00000000e+00
  0.00000000e+00  0.00000000e+00  0.00000000e+00  0.00000000e+00
  0.00000000e+00  0.00000000e+00  0.00000000e+00  0.00000000e+00
  0.00000000e+00  0.00000000e+00 -3.78265530e-07  1.43366826e-08
  0.00000000e+00  0.00000000e+00  0.00000000e+00  3.39168559e-06]","[[ 6.76849926e-05  3.50984436e-03]
 [-1.04610217e-04  1.29481757e-03]]",[],0.0,0.0
1787153566.6303594,1.873563983957743,0.7534666121388518,2.158491222531711,"[ 4.86944150e-06 -3.99437138e-07  0.00000000e+00  0.00000000e+00
  0.00000000e+00 -3.78265530e-07 -3.99437138e-07  4.56143224e-06
  0.00000000e+00  0.00000000e+00  0.00000000e+00  1.43366826e-08
  0.00000000e+00  0.00000000e+00  0.00000000e+00  0.00000000e+00
  0.00000000e+00  0.00000000e+00  0.00000000e+00  0.00000000e+00
  0.00000000e+00  0.00000000e+00  0.00000000e+00  0.00000000e+00
  0.00000000e+00  0.00000000e+00  0.00000000e+00  0.00000000e+00
  0.00000000e+00  0.00000000e+00 -3.78265530e-07  1.43366826e-08
  0.00000000e+00  0.00000000e+00  0.00000000e+00  3.39168559e-06]","[[ 6.76849926e-05  3.50984436e-03]
 [-1.04610217e-04  1.29481757e-03]]",[],0.0,0.0
1787153566.696136,1.873563983957743,0.7534666121388518,2.158491222531711,"[ 4.86944150e-06 -3.99437138e-07  0.00000000e+00  0.00000000e+00
  0.00000000e+00 -3.78265530e-07 -3.99437138e-07  4.56143224e-06
  0.00000000e+00  0.00000000e+00  0.00000000e+00  1.43366826e-08
  0.00000000e+00  0.00000000e+00  0.00000000e+00  0.00000000e+00
  0.00000000e+00  0.00000000e+00  0.00000000e+00  0.00000000e+00
  0.00000000e+00  0.00000000e+00  0.00000000e+00  0.00000000e+00
  0.00000000e+00  0.00000000e+00  0.00000000e+00  0.00000000e+00
  0.00000000e+00  0.00000000e+00 -3.78265530e-07  1.43366826e-08
  0.00000000e+00  0.00000000e+00  0.00000000e+00  3.39168559e-06]","[[ 6.76849926e-05  3.50984436e-03]
 [-1.04610217e-04  1.29481757e-03]]",[],0.0,0.0
1787153566.7286904,1.873563983957743,0.7534666121388518,2.158491222531711,"[ 4.86944150e-06 -3.99437138e-07  0.00000000e+00  0.00000000e+00
  0.00000000e+00 -3.78265530e-07 -3.99437138e-07  4.56143224e-06
  0.00000000e+00  0.00000000e+00  0.00000000e+00  1.43366826e-08
  0.00000000e+00  0.00000000e+00  0.00000000e+00  0.00000000e+00
  0.00000000e+00  0.00000000e+00  0.00000000e+00  0.00000000e+00
  0.00000000e+00  0.00000000e+00  0.00000000e+00  0.00000000e+00
  0.00000000e+00  0.00000000e+00  0.00000000e+00  0.00000000e+00
  0.00000000e+00  0.00000000e+00 -3.78265530e-07  1.43366826e-08
  0.00000000e+00  0.00000000e+00  0.00000000e+00  3.39168559e-06]","[[ 6.76849926e-05  3.50984436e-03]
 [-1.04610217e-04  1.29481757e-03]]",[],0.0,0.0
1787153566.7834692,1.873563983957743,0.7534666121388518,2.158491222531711,"[ 4.86944150e-06 -3.99437138e-07  0.00000000e+00  0.00000000e+00
  0.00000000e+00 -3.78265530e-07 -3.99437138e-07  4.56143224e-06
  0.00000000e+00  0.00000000e+00  0.00000000e+00  1.43366826e-08
  0.00000000e+00  0.00000000e+00  0.00000000e+00  0.00000000e+00
  0.00000000e+00  0.00000000e+00  0.00000000e+00  0.00000000e+00
  0.00000000e+00  0.00000000e+00  0.00000000e+00  0.00000000e+00
  0.00000000e+00  0.00000000e+00  0.00000000e+00  0.00000000e+00
  0.00000000e+00  0.00000000e+00 -3.78265530e-07  1.43366826e-08
  0.00000000e+00  0.00000000e+00  0.00000000e+00  3.39168559e-06]","[[ 6.76849926e-05  3.50984436e-03]
 [-1.04610217e-04  1.29481757e-03]]",[],0.0,0.0
1787153566.83816,1.873563983957743,0.7534666121388518,2.158491222531711,"[ 4.86944150e-06 -3.99437138e-07  0.00000000e+00  0.00000000e+00
  0.00000000e+00 -3.78265530e-07 -3.99437138e-07  4.56143224e-06
  0.00000000e+00  0.00000000e+00  0.00000000e+00  1.43366826e-08
  0.00000000e+00  0.00000000e+00  0.00000000e+00  0.00000000e+00
  0.00000000e+00  0.00000000e+00  0.00000000e+00  0.00000000e+00
  0.00000000e+00  0.00000000e+00  0.00000000e+00  0.00000000e+00
  0.00000000e+00  0.00000000e+00  0.00000000e+00  0.00000000e+00
  0.00000000e+00  0.00000000e+00 -3.78265530e-07  1.43366826e-08
  0.00000000e+00  0.00000000e+00  0.00000000e+00  3.39168559e-06]","[[ 6.76849926e-05  3.50984436e-03]
 [-1.04610217e-04  1.29481757e-03]]",[],0.0,0.0
1787153566.878402,1.873563983957743,0.7534666121388518,2.158491222531711,"[ 4.86944150e-06 -3.99437138e-07  0.00000000e+00  0.00000000e+00
  0.00000000e+00 -3.78265530e-07 -3.99437138e-07  4.56143224e-06
  0.00000000e+00  0.00000000e+00  0.00000000e+00  1.43366826e-08
  0.00000000e+00  0.00000000e+00  0.00000000e+00  0.00000000e+00
  0.00000000e+00  0.00000000e+00  0.00000000e+00  0.00000000e+00
  0.00000000e+00  0.00000000e+00  0.00000000e+00  0.00000000e+00
  0.00000000e+00  0.00000000e+00  0.00000000e+00  0.00000000e+00
  0.00000000e+00  0.00000000e+00 -3.78265530e-07  1.43366826e-08
  0.00000000e+00  0.00000000e+00  0.00000000e+00  3.39168559e-06]","[[ 6.76849926e-05  3.50984436e-03]
 [-1.04610217e-04  1.29481757e-03]]",[],0.0,0.0
1787153566.9303215,1.873563983957743,0.7534666121388518,2.158491222531711,"[ 4.86944150e-06 -3.99437138e-07  0.00000000e+00  0.00000000e+00
  0.00000000e+00 -3.78265530e-07 -3.99437138e-07  4.56143224e-06
  0.00000000e+00  0.00000000e+00  0.00000000e+00  1.43366826e-08
  0.00000000e+00  0.00000000e+00  0.00000000e+00  0.00000000e+00
  0.00000000e+00  0.00000000e+00  0.00000000e+00  0.00000000e+00
  0.00000000e+00  0.00000000e+00  0.00000000e+00  0.00000000e+00
  0.00000000e+00  0.00000000e+00  0.00000000e+00  0.00000000e+00
  0.00000000e+00  0.00000000e+00 -3.78265530e-07  1.43366826e-08
  0.00000000e+00  0.00000000e+00  0.00000000e+00  3.39168559e-06]","[[ 6.76849926e-05  3.50984436e-03]
 [-1.04610217e-04  1.29481757e-03]]",[],0.0,0.0
1787153566.9820704,1.873563983957743,0.7534666121388518,2.158491222531711,"[ 4.86944150e-06 -3.99437138e-07  0.00000000e+00  0.00000000e+00
  0.00000000e+00 -3.78265530e-07 -3.99437138e-07  4.56143224e-06
  0.00000000e+00  0.00000000e+00  0.00000000e+00  1.43366826e-08
  0.00000000e+00  0.00000000e+00  0.00000000e+00  0.00000000e+00
  0.00000000e+00  0.00000000e+00  0.00000000e+00  0.00000000e+00
  0.00000000e+00  0.00000000e+00  0.00000000e+00  0.00000000e+00
  0.00000000e+00  0.00000000e+00  0.00000000e+00  0.00000000e+00
  0.00000000e+00  0.00000000e+00 -3.78265530e-07  1.43366826e-08
  0.00000000e+00  0.00000000e+00  0.00000000e+00  3.39168559e-06]","[[ 6.76849926e-05  3.50984436e-03]
 [-1.04610217e-04  1.29481757e-03]]",[],0.0,0.0
1787153567.0342703,1.873563983957743,0.7534666121388518,2.158491222531711,"[ 4.86944150e-06 -3.99437138e-07  0.00000000e+00  0.00000000e+00
  0.00000000e+00 -3.78265530e-07 -3.99437138e-07  4.56143224e-06
  0.00000000e+00  0.00000000e+00  0.00000000e+00  1.43366826e-08
  0.00000000e+00  0.00000000e+00  0.00000000e+00  0.00000000e+00
  0.00000000e+00  0.00000000e+00  0.00000000e+00  0.00000000e+00
  0.00000000e+00  0.00000000e+00  0.00000000e+00  0.00000000e+00
  0.00000000e+00  0.00000000e+00  0.00000000e+00  0.00000000e+00
  0.00000000e+00  0.00000000e+00 -3.78265530e-07  1.43366826e-08
  0.00000000e+00  0.00000000e+00  0.00000000e+00  3.39168559e-06]","[[ 6.76849926e-05  3.50984436e-03]
 [-1.04610217e-04  1.29481757e-03]]",[],0.0,0.0
1787153567.0806236,1.873563983957743,0.7534666121388518,2.158491222531711,"[ 4.86944150e-06 -3.99437138e-07  0.00000000e+00  0.00000000e+00
  0.00000000e+00 -3.78265530e-07 -3.99437138e-07  4.56143224e-06
  0.00000000e+00  0.00000000e+00  0.00000000e+00  1.43366826e-08
  0.00000000e+00  0.00000000e+00  0.00000000e+00  0.00000000e+00
  0.00000000e+00  0.00000000e+00  0.00000000e+00  0.00000000e+00
  0.00000000e+00  0.00000000e+00  0.00000000e+00  0.00000000e+00
  0.00000000e+00  0.00000000e+00  0.00000000e+00  0.00000000e+00
  0.00000000e+00  0.00000000e+00 -3.78265530e-07  1.43366826e-08
  0.00000000e+00  0.00000000e+00  0.00000000e+00  3.39168559e-06]","[[ 6.76849926e-05  3.50984436e-03]
 [-1.04610217e-04  1.29481757e-03]]",[],0.0,0.0
1787153567.1285253,1.873563983957743,0.7534666121388518,2.158491222531711,"[ 4.86944150e-06 -3.99437138e-07  0.00000000e+00  0.00000000e+00
  0.00000000e+00 -3.78265530e-07 -3.99437138e-07  4.56143224e-06
  0.00000000e+00  0.00000000e+00  0.00000000e+00  1.43366826e-08
  0.00000000e+00  0.00000000e+00  0.00000000e+00  0.00000000e+00
  0.00000000e+00  0.00000000e+00  0.00000000e+00  0.00000000e+00
  0.00000000e+00  0.00000000e+00  0.00000000e+00  0.00000000e+00
  0.00000000e+00  0.00000000e+00  0.00000000e+00  0.00000000e+00
  0.00000000e+00  0.00000000e+00 -3.78265530e-07  1.43366826e-08
  0.00000000e+00  0.00000000e+00  0.00000000e+00  3.39168559e-06]","[[ 6.76849926e-05  3.50984436e-03]
 [-1.04610217e-04  1.29481757e-03]]",[],0.0,0.0
1787153567.1788166,1.873563983957743,0.7534666121388518,2.158491222531711,"[ 4.86944150e-06 -3.99437138e-07  0.00000000e+00  0.00000000e+00
  0.00000000e+00 -3.78265530e-07 -3.99437138e-07  4.56143224e-06
  0.00000000e+00  0.00000000e+00  0.00000000e+00  1.43366826e-08
  0.00000000e+00  0.00000000e+00  0.00000000e+00  0.00000000e+00
  0.00000000e+00  0.00000000e+00  0.00000000e+00  0.00000000e+00
  0.00000000e+00  0.00000000e+00  0.00000000e+00  0.00000000e+00
  0.00000000e+00  0.00000000e+00  0.00000000e+00  0.00000000e+00
  0.00000000e+00  0.00000000e+00 -3.78265530e-07  1.43366826e-08
  0.00000000e+00  0.00000000e+00  0.00000000e+00  3.39168559e-06]","[[ 6.76849926e-05  3.50984436e-03]
 [-1.04610217e-04  1.29481757e-03]]",[],0.0,0.0
1787153567.2471867,1.873563983957743,0.7534666121388518,2.158491222531711,"[ 4.86944150e-06 -3.99437138e-07  0.00000000e+00  0.00000000e+00
  0.00000000e+00 -3.78265530e-07 -3.99437138e-07  4.56143224e-06
  0.00000000e+00  0.00000000e+00  0.00000000e+00  1.43366826e-08
  0.00000000e+00  0.00000000e+00  0.00000000e+00  0.00000000e+00
  0.00000000e+00  0.00000000e+00  0.00000000e+00  0.00000000e+00
  0.00000000e+00  0.00000000e+00  0.00000000e+00  0.00000000e+00
  0.00000000e+00  0.00000000e+00  0.00000000e+00  0.00000000e+00
  0.00000000e+00  0.00000000e+00 -3.78265530e-07  1.43366826e-08
  0.00000000e+00  0.00000000e+00  0.00000000e+00  3.39168559e-06]","[[ 6.76849926e-05  3.50984436e-03]
 [-1.04610217e-04  1.29481757e-03]]",[],0.0,0.0
1787153567.28183,1.873563983957743,0.7534666121388518,2.158491222531711,"[ 4.86944150e-06 -3.99437138e-07  0.00000000e+00  0.00000000e+00
  0.00000000e+00 -3.78265530e-07 -3.99437138e-07  4.56143224e-06
  0.00000000e+00  0.00000000e+00  0.00000000e+00  1.43366826e-08
  0.00000000e+00  0.00000000e+00  0.00000000e+00  0.00000000e+00
  0.00000000e+00  0.00000000e+00  0.00000000e+00  0.00000000e+00
  0.00000000e+00  0.00000000e+00  0.00000000e+00  0.00000000e+00
  0.00000000e+00  0.00000000e+00  0.00000000e+00  0.00000000e+00
  0.00000000e+00  0.00000000e+00 -3.78265530e-07  1.43366826e-08
  0.00000000e+00  0.00000000e+00  0.00000000e+00  3.39168559e-06]","[[ 6.76849926e-05  3.50984436e-03]
 [-1.04610217e-04  1.29481757e-03]]",[],0.0,0.0
1787153567.3332372,1.8721151278563593,0.7497626471938927,2.1727350752246934,"[ 4.56473129e-06 -4.03772985e-07  0.00000000e+00  0.00000000e+00
  0.00000000e+00 -2.87853330e-07 -4.03772985e-07  4.31180566e-06
  0.00000000e+00  0.00000000e+00  0.00000000e+00  8.97812586e-08
  0.00000000e+00  0.00000000e+00  0.00000000e+00  0.00000000e+00
  0.00000000e+00  0.00000000e+00  0.00000000e+00  0.00000000e+00
  0.00000000e+00  0.00000000e+00  0.00000000e+00  0.00000000e+00
  0.00000000e+00  0.00000000e+00  0.00000000e+00  0.00000000e+00
  0.00000000e+00  0.00000000e+00 -2.87853330e-07  8.97812586e-08
  0.00000000e+00  0.00000000e+00  0.00000000e+00  3.32209422e-06]","[[ 6.39703194e-05  3.17080456e-03]
 [-9.92575413e-05  1.07747269e-03]]",[],0.0,0.0
1787153567.3803902,1.8721151278563593,0.7497626471938927,2.1727350752246934,"[ 4.56473129e-06 -4.03772985e-07  0.00000000e+00  0.00000000e+00
  0.00000000e+00 -2.87853330e-07 -4.03772985e-07  4.31180566e-06
  0.00000000e+00  0.00000000e+00  0.00000000e+00  8.97812586e-08
  0.00000000e+00  0.00000000e+00  0.00000000e+00  0.00000000e+00
  0.00000000e+00  0.00000000e+00  0.00000000e+00  0.00000000e+00
  0.00000000e+00  0.00000000e+00  0.00000000e+00  0.00000000e+00
  0.00000000e+00  0.00000000e+00  0.00000000e+00  0.00000000e+00
  0.00000000e+00  0.00000000e+00 -2.87853330e-07  8.97812586e-08
  0.00000000e+00  0.00000000e+00  0.00000000e+00  3.32209422e-06]","[[ 6.39703194e-05  3.17080456e-03]
 [-9.92575413e-05  1.07747269e-03]]",[],0.0,0.0
1787153567.452557,1.8721151278563593,0.7497626471938927,2.1727350752246934,"[ 4.56473129e-06 -4.03772985e-07  0.00000000e+00  0.00000000e+00
  0.00000000e+00 -2.87853330e-07 -4.03772985e-07  4.31180566e-06
  0.00000000e+00  0.00000000e+00  0.00000000e+00  8.97812586e-08
  0.00000000e+00  0.00000000e+00  0.00000000e+00  0.00000000e+00
  0.00000000e+00  0.00000000e+00  0.00000000e+00  0.00000000e+00
  0.00000000e+00  0.00000000e+00  0.00000000e+00  0.00000000e+00
  0.00000000e+00  0.00000000e+00  0.00000000e+00  0.00000000e+00
  0.00000000e+00  0.00000000e+00 -2.87853330e-07  8.97812586e-08
  0.00000000e+00  0.00000000e+00  0.00000000e+00  3.32209422e-06]","[[ 6.39703194e-05  3.17080456e-03]
 [-9.92575413e-05  1.07747269e-03]]",[],0.0,0.0
1787153567.4822922,1.8721151278563593,0.7497626471938927,2.1727350752246934,"[ 4.56473129e-06 -4.03772985e-07  0.00000000e+00  0.00000000e+00
  0.00000000e+00 -2.87853330e-07 -4.03772985e-07  4.31180566e-06
  0.00000000e+00  0.00000000e+00  0.00000000e+00  8.97812586e-08
  0.00000000e+00  0.00000000e+00  0.00000000e+00  0.00000000e+00
  0.00000000e+00  0.00000000e+00  0.00000000e+00  0.00000000e+00
  0.00000000e+00  0.00000000e+00  0.00000000e+00  0.00000000e+00
  0.00000000e+00  0.00000000e+00  0.00000000e+00  0.00000000e+00
  0.00000000e+00  0.00000000e+00 -2.87853330e-07  8.97812586e-08
  0.00000000e+00  0.00000000e+00  0.00000000e+00  3.32209422e-06]","[[ 6.39703194e-05  3.17080456e-03]
 [-9.92575413e-05  1.07747269e-03]]",[],0.0,0.0
1787153567.5376015,1.8721151278563593,0.7497626471938927,2.1727350752246934,"[ 4.56473129e-06 -4.03772985e-07  0.00000000e+00  0.00000000e+00
  0.00000000e+00 -2.87853330e-07 -4.03772985e-07  4.31180566e-06
  0.00000000e+00  0.00000000e+00  0.00000000e+00  8.97812586e-08
  0.00000000e+00  0.00000000e+00  0.00000000e+00  0.00000000e+00
  0.00000000e+00  0.00000000e+00  0.00000000e+00  0.00000000e+00
  0.00000000e+00  0.00000000e+00  0.00000000e+00  0.00000000e+00
  0.00000000e+00  0.00000000e+00  0.00000000e+00  0.00000000e+00
  0.00000000e+00  0.00000000e+00 -2.87853330e-07  8.97812586e-08
  0.00000000e+00  0.00000000e+00  0.00000000e+00  3.32209422e-06]","[[ 6.39703194e-05  3.17080456e-03]
 [-9.92575413e-05  1.07747269e-03]]",[],0.0,0.0
1787153567.579067,1.8721151278563593,0.7497626471938927,2.1727350752246934,"[ 4.56473129e-06 -4.03772985e-07  0.00000000e+00  0.00000000e+00
  0.00000000e+00 -2.87853330e-07 -4.03772985e-07  4.31180566e-06
  0.00000000e+00  0.00000000e+00  0.00000000e+00  8.97812586e-08
  0.00000000e+00  0.00000000e+00  0.00000000e+00  0.00000000e+00
  0.00000000e+00  0.00000000e+00  0.00000000e+00  0.00000000e+00
  0.00000000e+00  0.00000000e+00  0.00000000e+00  0.00000000e+00
  0.00000000e+00  0.00000000e+00  0.00000000e+00  0.00000000e+00
  0.00000000e+00  0.00000000e+00 -2.87853330e-07  8.97812586e-08
  0.00000000e+00  0.00000000e+00  0.00000000e+00  3.32209422e-06]","[[ 6.39703194e-05  3.17080456e-03]
 [-9.92575413e-05  1.07747269e-03]]",[],0.0,0.0
1787153567.6359556,1.8721151278563593,0.7497626471938927,2.1727350752246934,"[ 4.56473129e-06 -4.03772985e-07  0.00000000e+00  0.00000000e+00
  0.00000000e+00 -2.87853330e-07 -4.03772985e-07  4.31180566e-06
  0.00000000e+00  0.00000000e+00  0.00000000e+00  8.97812586e-08
  0.00000000e+00  0.00000000e+00  0.00000000e+00  0.00000000e+00
  0.00000000e+00  0.00000000e+00  0.00000000e+00  0.00000000e+00
  0.00000000e+00  0.00000000e+00  0.00000000e+00  0.00000000e+00
  0.00000000e+00  0.00000000e+00  0.00000000e+00  0.00000000e+00
  0.00000000e+00  0.00000000e+00 -2.87853330e-07  8.97812586e-08
  0.00000000e+00  0.00000000e+00  0.00000000e+00  3.32209422e-06]","[[ 6.39703194e-05  3.17080456e-03]
 [-9.92575413e-05  1.07747269e-03]]",[],0.0,0.0
1787153567.683559,1.8721151278563593,0.7497626471938927,2.1727350752246934,"[ 4.56473129e-06 -4.03772985e-07  0.00000000e+00  0.00000000e+00
  0.00000000e+00 -2.87853330e-07 -4.03772985e-07  4.31180566e-06
  0.00000000e+00  0.00000000e+00  0.00000000e+00  8.97812586e-08
  0.00000000e+00  0.00000000e+00  0.00000000e+00  0.00000000e+00
  0.00000000e+00  0.00000000e+00  0.00000000e+00  0.00000000e+00
  0.00000000e+00  0.00000000e+00  0.00000000e+00  0.00000000e+00
  0.00000000e+00  0.00000000e+00  0.00000000e+00  0.00000000e+00
  0.00000000e+00  0.00000000e+00 -2.87853330e-07  8.97812586e-08
  0.00000000e+00  0.00000000e+00  0.00000000e+00  3.32209422e-06]","[[ 6.39703194e-05  3.17080456e-03]
 [-9.92575413e-05  1.07747269e-03]]",[],0.0,0.0
1787153567.7296941,1.8721151278563593,0.7497626471938927,2.1727350752246934,"[ 4.56473129e-06 -4.03772985e-07  0.00000000e+00  0.00000000e+00
  0.00000000e+00 -2.87853330e-07 -4.03772985e-07  4.31180566e-06
  0.00000000e+00  0.00000000e+00  0.00000000e+00  8.97812586e-08
  0.00000000e+00  0.00000000e+00  0.00000000e+00  0.00000000e+00
  0.00000000e+00  0.00000000e+00  0.00000000e+00  0.00000000e+00
  0.00000000e+00  0.00000000e+00  0.00000000e+00  0.00000000e+00
  0.00000000e+00  0.00000000e+00  0.00000000e+00  0.00000000e+00
  0.00000000e+00  0.00000000e+00 -2.87853330e-07  8.97812586e-08
  0.00000000e+00  0.00000000e+00  0.00000000e+00  3.32209422e-06]","[[ 6.39703194e-05  3.17080456e-03]
 [-9.92575413e-05  1.07747269e-03]]",[],0.0,0.0
1787153567.789593,1.8721151278563593,0.7497626471938927,2.1727350752246934,"[ 4.56473129e-06 -4.03772985e-07  0.00000000e+00  0.00000000e+00
  0.00000000e+00 -2.87853330e-07 -4.03772985e-07  4.31180566e-06
  0.00000000e+00  0.00000000e+00  0.00000000e+00  8.97812586e-08
  0.00000000e+00  0.00000000e+00  0.00000000e+00  0.00000000e+00
  0.00000000e+00  0.00000000e+00  0.00000000e+00  0.00000000e+00
  0.00000000e+00  0.00000000e+00  0.00000000e+00  0.00000000e+00
  0.00000000e+00  0.00000000e+00  0.00000000e+00  0.00000000e+00
  0.00000000e+00  0.00000000e+00 -2.87853330e-07  8.97812586e-08
  0.00000000e+00  0.00000000e+00  0.00000000e+00  3.32209422e-06]","[[ 6.39703194e-05  3.17080456e-03]
 [-9.92575413e-05  1.07747269e-03]]",[],0.0,0.0
1787153567.85749,1.8721151278563593,0.7497626471938927,2.1727350752246934,"[ 4.56473129e-06 -4.03772985e-07  0.00000000e+00  0.00000000e+00
  0.00000000e+00 -2.87853330e-07 -4.03772985e-07  4.31180566e-06
  0.00000000e+00  0.00000000e+00  0.00000000e+00  8.97812586e-08
  0.00000000e+00  0.00000000e+00  0.00000000e+00  0.00000000e+00
  0.00000000e+00  0.00000000e+00  0.00000000e+00  0.00000000e+00
  0.00000000e+00  0.00000000e+00  0.00000000e+00  0.00000000e+00
  0.00000000e+00  0.00000000e+00  0.00000000e+00  0.00000000e+00
  0.00000000e+00  0.00000000e+00 -2.87853330e-07  8.97812586e-08
  0.00000000e+00  0.00000000e+00  0.00000000e+00  3.32209422e-06]","[[ 6.39703194e-05  3.17080456e-03]
 [-9.92575413e-05  1.07747269e-03]]",[],0.0,0.0
1787153567.8791616,1.8721151278563593,0.7497626471938927,2.1727350752246934,"[ 4.56473129e-06 -4.03772985e-07  0.00000000e+00  0.00000000e+00
  0.00000000e+00 -2.87853330e-07 -4.03772985e-07  4.31180566e-06
  0.00000000e+00  0.00000000e+00  0.00000000e+00  8.97812586e-08
  0.00000000e+00  0.00000000e+00  0.00000000e+00  0.00000000e+00
  0.00000000e+00  0.00000000e+00  0.00000000e+00  0.00000000e+00
  0.00000000e+00  0.00000000e+00  0.00000000e+00  0.00000000e+00
  0.00000000e+00  0.00000000e+00  0.00000000e+00  0.00000000e+00
  0.00000000e+00  0.00000000e+00 -2.87853330e-07  8.97812586e-08
  0.00000000e+00  0.00000000e+00  0.00000000e+00  3.32209422e-06]","[[ 6.39703194e-05  3.17080456e-03]
 [-9.92575413e-05  1.07747269e-03]]",[],0.0,0.0
1787153567.9554799,1.8721151278563593,0.7497626471938927,2.1727350752246934,"[ 4.56473129e-06 -4.03772985e-07  0.00000000e+00  0.00000000e+00
  0.00000000e+00 -2.87853330e-07 -4.03772985e-07  4.31180566e-06
  0.00000000e+00  0.00000000e+00  0.00000000e+00  8.97812586e-08
  0.00000000e+00  0.00000000e+00  0.00000000e+00  0.00000000e+00
  0.00000000e+00  0.00000000e+00  0.00000000e+00  0.00000000e+00
  0.00000000e+00  0.00000000e+00  0.00000000e+00  0.00000000e+00
  0.00000000e+00  0.00000000e+00  0.00000000e+00  0.00000000e+00
  0.00000000e+00  0.00000000e+00 -2.87853330e-07  8.97812586e-08
  0.00000000e+00  0.00000000e+00  0.00000000e+00  3.32209422e-06]","[[ 6.39703194e-05  3.17080456e-03]
 [-9.92575413e-05  1.07747269e-03]]",[],0.0,0.0
1787153567.978489,1.8721151278563593,0.7497626471938927,2.1727350752246934,"[ 4.56473129e-06 -4.03772985e-07  0.00000000e+00  0.00000000e+00
  0.00000000e+00 -2.87853330e-07 -4.03772985e-07  4.31180566e-06
  0.00000000e+00  0.00000000e+00  0.00000000e+00  8.97812586e-08
  0.00000000e+00  0.00000000e+00  0.00000000e+00  0.00000000e+00
  0.00000000e+00  0.00000000e+00  0.00000000e+00  0.00000000e+00
  0.00000000e+00  0.00000000e+00  0.00000000e+00  0.00000000e+00
  0.00000000e+00  0.00000000e+00  0.00000000e+00  0.00000000e+00
  0.00000000e+00  0.00000000e+00 -2.87853330e-07  8.97812586e-08
  0.00000000e+00  0.00000000e+00  0.00000000e+00  3.32209422e-06]","[[ 6.39703194e-05  3.17080456e-03]
 [-9.92575413e-05  1.07747269e-03]]",[],0.0,0.0
1787153568.0322065,1.8721151278563593,0.7497626471938927,2.1727350752246934,"[ 4.56473129e-06 -4.03772985e-07  0.00000000e+00  0.00000000e+00
  0.00000000e+00 -2.87853330e-07 -4.03772985e-07  4.31180566e-06
  0.00000000e+00  0.00000000e+00  0.00000000e+00  8.97812586e-08
  0.00000000e+00  0.00000000e+00  0.00000000e+00  0.00000000e+00
  0.00000000e+00  0.00000000e+00  0.00000000e+00  0.00000000e+00
  0.00000000e+00  0.00000000e+00  0.00000000e+00  0.00000000e+00
  0.00000000e+00  0.00000000e+00  0.00000000e+00  0.00000000e+00
  0.00000000e+00  0.00000000e+00 -2.87853330e-07  8.97812586e-08
  0.00000000e+00  0.00000000e+00  0.00000000e+00  3.32209422e-06]","[[ 6.39703194e-05  3.17080456e-03]
 [-9.92575413e-05  1.07747269e-03]]",[],0.0,0.0
1787153568.0785353,1.8721151278563593,0.7497626471938927,2.1727350752246934,"[ 4.56473129e-06 -4.03772985e-07  0.00000000e+00  0.00000000e+00
  0.00000000e+00 -2.87853330e-07 -4.03772985e-07  4.31180566e-06
  0.00000000e+00  0.00000000e+00  0.00000000e+00  8.97812586e-08
  0.00000000e+00  0.00000000e+00  0.00000000e+00  0.00000000e+00
  0.00000000e+00  0.00000000e+00  0.00000000e+00  0.00000000e+00
  0.00000000e+00  0.00000000e+00  0.00000000e+00  0.00000000e+00
  0.00000000e+00  0.00000000e+00  0.00000000e+00  0.00000000e+00
  0.00000000e+00  0.00000000e+00 -2.87853330e-07  8.97812586e-08
  0.00000000e+00  0.00000000e+00  0.00000000e+00  3.32209422e-06]","[[ 6.39703194e-05  3.17080456e-03]
 [-9.92575413e-05  1.07747269e-03]]",[],0.0,0.0
1787153568.1290336,1.8721151278563593,0.7497626471938927,2.1727350752246934,"[ 4.56473129e-06 -4.03772985e-07  0.00000000e+00  0.00000000e+00
  0.00000000e+00 -2.87853330e-07 -4.03772985e-07  4.31180566e-06
  0.00000000e+00  0.00000000e+00  0.00000000e+00  8.97812586e-08
  0.00000000e+00  0.00000000e+00  0.00000000e+00  0.00000000e+00
  0.00000000e+00  0.00000000e+00  0.00000000e+00  0.00000000e+00
  0.00000000e+00  0.00000000e+00  0.00000000e+00  0.00000000e+00
  0.00000000e+00  0.00000000e+00  0.00000000e+00  0.00000000e+00
  0.00000000e+00  0.00000000e+00 -2.87853330e-07  8.97812586e-08
  0.00000000e+00  0.00000000e+00  0.00000000e+00  3.32209422e-06]","[[ 6.39703194e-05  3.17080456e-03]
 [-9.92575413e-05  1.07747269e-03]]",[],0.0,0.0
1787153568.1829758,1.8721151278563593,0.7497626471938927,2.1727350752246934,"[ 4.56473129e-06 -4.03772985e-07  0.00000000e+00  0.00000000e+00
  0.00000000e+00 -2.87853330e-07 -4.03772985e-07  4.31180566e-06
  0.00000000e+00  0.00000000e+00  0.00000000e+00  8.97812586e-08
  0.00000000e+00  0.00000000e+00  0.00000000e+00  0.00000000e+00
  0.00000000e+00  0.00000000e+00  0.00000000e+00  0.00000000e+00
  0.00000000e+00  0.00000000e+00  0.00000000e+00  0.00000000e+00
  0.00000000e+00  0.00000000e+00  0.00000000e+00  0.00000000e+00
  0.00000000e+00  0.00000000e+00 -2.87853330e-07  8.97812586e-08
  0.00000000e+00  0.00000000e+00  0.00000000e+00  3.32209422e-06]","[[ 6.39703194e-05  3.17080456e-03]
 [-9.92575413e-05  1.07747269e-03]]",[],0.0,0.0
1787153568.235949,1.8721151278563593,0.7497626471938927,2.1727350752246934,"[ 4.56473129e-06 -4.03772985e-07  0.00000000e+00  0.00000000e+00
  0.00000000e+00 -2.87853330e-07 -4.03772985e-07  4.31180566e-06
  0.00000000e+00  0.00000000e+00  0.00000000e+00  8.97812586e-08
  0.00000000e+00  0.00000000e+00  0.00000000e+00  0.00000000e+00
  0.00000000e+00  0.00000000e+00  0.00000000e+00  0.00000000e+00
  0.00000000e+00  0.00000000e+00  0.00000000e+00  0.00000000e+00
  0.00000000e+00  0.00000000e+00  0.00000000e+00  0.00000000e+00
  0.00000000e+00  0.00000000e+00 -2.87853330e-07  8.97812586e-08
  0.00000000e+00  0.00000000e+00  0.00000000e+00  3.32209422e-06]","[[ 6.39703194e-05  3.17080456e-03]
 [-9.92575413e-05  1.07747269e-03]]",[],0.0,0.0
1787153568.279313,1.8721151278563593,0.7497626471938927,2.1727350752246934,"[ 4.56473129e-06 -4.03772985e-07  0.00000000e+00  0.00000000e+00
  0.00000000e+00 -2.87853330e-07 -4.03772985e-07  4.31180566e-06
  0.00000000e+00  0.00000000e+00  0.00000000e+00  8.97812586e-08
  0.00000000e+00  0.00000000e+00  0.00000000e+00  0.00000000e+00
  0.00000000e+00  0.00000000e+00  0.00000000e+00  0.00000000e+00
  0.00000000e+00  0.00000000e+00  0.00000000e+00  0.00000000e+00
  0.00000000e+00  0.00000000e+00  0.00000000e+00  0.00000000e+00
  0.00000000e+00  0.00000000e+00 -2.87853330e-07  8.97812586e-08
  0.00000000e+00  0.00000000e+00  0.00000000e+00  3.32209422e-06]","[[ 6.39703194e-05  3.17080456e-03]
 [-9.92575413e-05  1.07747269e-03]]",[],0.0,0.0
1787153568.3316565,1.8695206656867596,0.7468229687206456,2.225984796575977,"[ 4.31595040e-06 -5.00906863e-07  0.00000000e+00  0.00000000e+00
  0.00000000e+00 -2.58203385e-07 -5.00906863e-07  4.17872784e-06
  0.00000000e+00  0.00000000e+00  0.00000000e+00  8.25065838e-08
  0.00000000e+00  0.00000000e+00  0.00000000e+00  0.00000000e+00
  0.00000000e+00  0.00000000e+00  0.00000000e+00  0.00000000e+00
  0.00000000e+00  0.00000000e+00  0.00000000e+00  0.00000000e+00
  0.00000000e+00  0.00000000e+00  0.00000000e+00  0.00000000e+00
  0.00000000e+00  0.00000000e+00 -2.58203385e-07  8.25065838e-08
  0.00000000e+00  0.00000000e+00  0.00000000e+00  3.37219023e-06]","[[ 6.29759300e-05  2.93370777e-03]
 [-9.75694121e-05  9.78812612e-04]]",[],0.0,0.0
1787153568.3789454,1.8695206656867596,0.7468229687206456,2.225984796575977,"[ 4.31595040e-06 -5.00906863e-07  0.00000000e+00  0.00000000e+00
  0.00000000e+00 -2.58203385e-07 -5.00906863e-07  4.17872784e-06
  0.00000000e+00  0.00000000e+00  0.00000000e+00  8.25065838e-08
  0.00000000e+00  0.00000000e+00  0.00000000e+00  0.00000000e+00
  0.00000000e+00  0.00000000e+00  0.00000000e+00  0.00000000e+00
  0.00000000e+00  0.00000000e+00  0.00000000e+00  0.00000000e+00
  0.00000000e+00  0.00000000e+00  0.00000000e+00  0.00000000e+00
  0.00000000e+00  0.00000000e+00 -2.58203385e-07  8.25065838e-08
  0.00000000e+00  0.00000000e+00  0.00000000e+00  3.37219023e-06]","[[ 6.29759300e-05  2.93370777e-03]
 [-9.75694121e-05  9.78812612e-04]]",[],0.0,0.0
1787153568.4290512,1.8695206656867596,0.7468229687206456,2.225984796575977,"[ 4.31595040e-06 -5.00906863e-07  0.00000000e+00  0.00000000e+00
  0.00000000e+00 -2.58203385e-07 -5.00906863e-07  4.17872784e-06
  0.00000000e+00  0.00000000e+00  0.00000000e+00  8.25065838e-08
  0.00000000e+00  0.00000000e+00  0.00000000e+00  0.00000000e+00
  0.00000000e+00  0.00000000e+00  0.00000000e+00  0.00000000e+00
  0.00000000e+00  0.00000000e+00  0.00000000e+00  0.00000000e+00
  0.00000000e+00  0.00000000e+00  0.00000000e+00  0.00000000e+00
  0.00000000e+00  0.00000000e+00 -2.58203385e-07  8.25065838e-08
  0.00000000e+00  0.00000000e+00  0.00000000e+00  3.37219023e-06]","[[ 6.29759300e-05  2.93370777e-03]
 [-9.75694121e-05  9.78812612e-04]]",[],0.0,0.0
1787153568.4833567,1.8695206656867596,0.7468229687206456,2.225984796575977,"[ 4.31595040e-06 -5.00906863e-07  0.00000000e+00  0.00000000e+00
  0.00000000e+00 -2.58203385e-07 -5.00906863e-07  4.17872784e-06
  0.00000000e+00  0.00000000e+00  0.00000000e+00  8.25065838e-08
  0.00000000e+00  0.00000000e+00  0.00000000e+00  0.00000000e+00
  0.00000000e+00  0.00000000e+00  0.00000000e+00  0.00000000e+00
  0.00000000e+00  0.00000000e+00  0.00000000e+00  0.00000000e+00
  0.00000000e+00  0.00000000e+00  0.00000000e+00  0.00000000e+00
  0.00000000e+00  0.00000000e+00 -2.58203385e-07  8.25065838e-08
  0.00000000e+00  0.00000000e+00  0.00000000e+00  3.37219023e-06]","[[ 6.29759300e-05  2.93370777e-03]
 [-9.75694121e-05  9.78812612e-04]]",[],0.0,0.0
1787153568.5302167,1.8695206656867596,0.7468229687206456,2.225984796575977,"[ 4.31595040e-06 -5.00906863e-07  0.00000000e+00  0.00000000e+00
  0.00000000e+00 -2.58203385e-07 -5.00906863e-07  4.17872784e-06
  0.00000000e+00  0.00000000e+00  0.00000000e+00  8.25065838e-08
  0.00000000e+00  0.00000000e+00  0.00000000e+00  0.00000000e+00
  0.00000000e+00  0.00000000e+00  0.00000000e+00  0.00000000e+00
  0.00000000e+00  0.00000000e+00  0.00000000e+00  0.00000000e+00
  0.00000000e+00  0.00000000e+00  0.00000000e+00  0.00000000e+00
  0.00000000e+00  0.00000000e+00 -2.58203385e-07  8.25065838e-08
  0.00000000e+00  0.00000000e+00  0.00000000e+00  3.37219023e-06]","[[ 6.29759300e-05  2.93370777e-03]
 [-9.75694121e-05  9.78812612e-04]]",[],0.0,0.0
1787153568.578485,1.8695206656867596,0.7468229687206456,2.225984796575977,"[ 4.31595040e-06 -5.00906863e-07  0.00000000e+00  0.00000000e+00
  0.00000000e+00 -2.58203385e-07 -5.00906863e-07  4.17872784e-06
  0.00000000e+00  0.00000000e+00  0.00000000e+00  8.25065838e-08
  0.00000000e+00  0.00000000e+00  0.00000000e+00  0.00000000e+00
  0.00000000e+00  0.00000000e+00  0.00000000e+00  0.00000000e+00
  0.00000000e+00  0.00000000e+00  0.00000000e+00  0.00000000e+00
  0.00000000e+00  0.00000000e+00  0.00000000e+00  0.00000000e+00
  0.00000000e+00  0.00000000e+00 -2.58203385e-07  8.25065838e-08
  0.00000000e+00  0.00000000e+00  0.00000000e+00  3.37219023e-06]","[[ 6.29759300e-05  2.93370777e-03]
 [-9.75694121e-05  9.78812612e-04]]",[],0.0,0.0
1787153568.628514,1.8695206656867596,0.7468229687206456,2.225984796575977,"[ 4.31595040e-06 -5.00906863e-07  0.00000000e+00  0.00000000e+00
  0.00000000e+00 -2.58203385e-07 -5.00906863e-07  4.17872784e-06
  0.00000000e+00  0.00000000e+00  0.00000000e+00  8.25065838e-08
  0.00000000e+00  0.00000000e+00  0.00000000e+00  0.00000000e+00
  0.00000000e+00  0.00000000e+00  0.00000000e+00  0.00000000e+00
  0.00000000e+00  0.00000000e+00  0.00000000e+00  0.00000000e+00
  0.00000000e+00  0.00000000e+00  0.00000000e+00  0.00000000e+00
  0.00000000e+00  0.00000000e+00 -2.58203385e-07  8.25065838e-08
  0.00000000e+00  0.00000000e+00  0.00000000e+00  3.37219023e-06]","[[ 6.29759300e-05  2.93370777e-03]
 [-9.75694121e-05  9.78812612e-04]]",[],0.0,0.0
1787153568.6791885,1.8695206656867596,0.7468229687206456,2.225984796575977,"[ 4.31595040e-06 -5.00906863e-07  0.00000000e+00  0.00000000e+00
  0.00000000e+00 -2.58203385e-07 -5.00906863e-07  4.17872784e-06
  0.00000000e+00  0.00000000e+00  0.00000000e+00  8.25065838e-08
  0.00000000e+00  0.00000000e+00  0.00000000e+00  0.00000000e+00
  0.00000000e+00  0.00000000e+00  0.00000000e+00  0.00000000e+00
  0.00000000e+00  0.00000000e+00  0.00000000e+00  0.00000000e+00
  0.00000000e+00  0.00000000e+00  0.00000000e+00  0.00000000e+00
  0.00000000e+00  0.00000000e+00 -2.58203385e-07  8.25065838e-08
  0.00000000e+00  0.00000000e+00  0.00000000e+00  3.37219023e-06]","[[ 6.29759300e-05  2.93370777e-03]
 [-9.75694121e-05  9.78812612e-04]]",[],0.0,0.0
1787153568.7325766,1.8695206656867596,0.7468229687206456,2.225984796575977,"[ 4.31595040e-06 -5.00906863e-07  0.00000000e+00  0.00000000e+00
  0.00000000e+00 -2.58203385e-07 -5.00906863e-07  4.17872784e-06
  0.00000000e+00  0.00000000e+00  0.00000000e+00  8.25065838e-08
  0.00000000e+00  0.00000000e+00  0.00000000e+00  0.00000000e+00
  0.00000000e+00  0.00000000e+00  0.00000000e+00  0.00000000e+00
  0.00000000e+00  0.00000000e+00  0.00000000e+00  0.00000000e+00
  0.00000000e+00  0.00000000e+00  0.00000000e+00  0.00000000e+00
  0.00000000e+00  0.00000000e+00 -2.58203385e-07  8.25065838e-08
  0.00000000e+00  0.00000000e+00  0.00000000e+00  3.37219023e-06]","[[ 6.29759300e-05  2.93370777e-03]
 [-9.75694121e-05  9.78812612e-04]]",[],0.0,0.0
1787153568.780493,1.8695206656867596,0.7468229687206456,2.225984796575977,"[ 4.31595040e-06 -5.00906863e-07  0.00000000e+00  0.00000000e+00
  0.00000000e+00 -2.58203385e-07 -5.00906863e-07  4.17872784e-06
  0.00000000e+00  0.00000000e+00  0.00000000e+00  8.25065838e-08
  0.00000000e+00  0.00000000e+00  0.00000000e+00  0.00000000e+00
  0.00000000e+00  0.00000000e+00  0.00000000e+00  0.00000000e+00
  0.00000000e+00  0.00000000e+00  0.00000000e+00  0.00000000e+00
  0.00000000e+00  0.00000000e+00  0.00000000e+00  0.00000000e+00
  0.00000000e+00  0.00000000e+00 -2.58203385e-07  8.25065838e-08
  0.00000000e+00  0.00000000e+00  0.00000000e+00  3.37219023e-06]","[[ 6.29759300e-05  2.93370777e-03]
 [-9.75694121e-05  9.78812612e-04]]",[],0.0,0.0
1787153568.8323393,1.8695206656867596,0.7468229687206456,2.225984796575977,"[ 4.31595040e-06 -5.00906863e-07  0.00000000e+00  0.00000000e+00
  0.00000000e+00 -2.58203385e-07 -5.00906863e-07  4.17872784e-06
  0.00000000e+00  0.00000000e+00  0.00000000e+00  8.25065838e-08
  0.00000000e+00  0.00000000e+00  0.00000000e+00  0.00000000e+00
  0.00000000e+00  0.00000000e+00  0.00000000e+00  0.00000000e+00
  0.00000000e+00  0.00000000e+00  0.00000000e+00  0.00000000e+00
  0.00000000e+00  0.00000000e+00  0.00000000e+00  0.00000000e+00
  0.00000000e+00  0.00000000e+00 -2.58203385e-07  8.25065838e-08
  0.00000000e+00  0.00000000e+00  0.00000000e+00  3.37219023e-06]","[[ 6.29759300e-05  2.93370777e-03]
 [-9.75694121e-05  9.78812612e-04]]",[],0.0,0.0
1787153568.8788447,1.8695206656867596,0.7468229687206456,2.225984796575977,"[ 4.31595040e-06 -5.00906863e-07  0.00000000e+00  0.00000000e+00
  0.00000000e+00 -2.58203385e-07 -5.00906863e-07  4.17872784e-06
  0.00000000e+00  0.00000000e+00  0.00000000e+00  8.25065838e-08
  0.00000000e+00  0.00000000e+00  0.00000000e+00  0.00000000e+00
  0.00000000e+00  0.00000000e+00  0.00000000e+00  0.00000000e+00
  0.00000000e+00  0.00000000e+00  0.00000000e+00  0.00000000e+00
  0.00000000e+00  0.00000000e+00  0.00000000e+00  0.00000000e+00
  0.00000000e+00  0.00000000e+00 -2.58203385e-07  8.25065838e-08
  0.00000000e+00  0.00000000e+00  0.00000000e+00  3.37219023e-06]","[[ 6.29759300e-05  2.93370777e-03]
 [-9.75694121e-05  9.78812612e-04]]",[],0.0,0.0
1787153568.931403,1.8695206656867596,0.7468229687206456,2.225984796575977,"[ 4.31595040e-06 -5.00906863e-07  0.00000000e+00  0.00000000e+00
  0.00000000e+00 -2.58203385e-07 -5.00906863e-07  4.17872784e-06
  0.00000000e+00  0.00000000e+00  0.00000000e+00  8.25065838e-08
  0.00000000e+00  0.00000000e+00  0.00000000e+00  0.00000000e+00
  0.00000000e+00  0.00000000e+00  0.00000000e+00  0.00000000e+00
  0.00000000e+00  0.00000000e+00  0.00000000e+00  0.00000000e+00
  0.00000000e+00  0.00000000e+00  0.00000000e+00  0.00000000e+00
  0.00000000e+00  0.00000000e+00 -2.58203385e-07  8.25065838e-08
  0.00000000e+00  0.00000000e+00  0.00000000e+00  3.37219023e-06]","[[ 6.29759300e-05  2.93370777e-03]
 [-9.75694121e-05  9.78812612e-04]]",[],0.0,0.0
1787153568.9838336,1.8695206656867596,0.7468229687206456,2.225984796575977,"[ 4.31595040e-06 -5.00906863e-07  0.00000000e+00  0.00000000e+00
  0.00000000e+00 -2.58203385e-07 -5.00906863e-07  4.17872784e-06
  0.00000000e+00  0.00000000e+00  0.00000000e+00  8.25065838e-08
  0.00000000e+00  0.00000000e+00  0.00000000e+00  0.00000000e+00
  0.00000000e+00  0.00000000e+00  0.00000000e+00  0.00000000e+00
  0.00000000e+00  0.00000000e+00  0.00000000e+00  0.00000000e+00
  0.00000000e+00  0.00000000e+00  0.00000000e+00  0.00000000e+00
  0.00000000e+00  0.00000000e+00 -2.58203385e-07  8.25065838e-08
  0.00000000e+00  0.00000000e+00  0.00000000e+00  3.37219023e-06]","[[ 6.29759300e-05  2.93370777e-03]
 [-9.75694121e-05  9.78812612e-04]]",[],0.0,0.0
1787153569.0302293,1.8695206656867596,0.7468229687206456,2.225984796575977,"[ 4.31595040e-06 -5.00906863e-07  0.00000000e+00  0.00000000e+00
  0.00000000e+00 -2.58203385e-07 -5.00906863e-07  4.17872784e-06
  0.00000000e+00  0.00000000e+00  0.00000000e+00  8.25065838e-08
  0.00000000e+00  0.00000000e+00  0.00000000e+00  0.00000000e+00
  0.00000000e+00  0.00000000e+00  0.00000000e+00  0.00000000e+00
  0.00000000e+00  0.00000000e+00  0.00000000e+00  0.00000000e+00
  0.00000000e+00  0.00000000e+00  0.00000000e+00  0.00000000e+00
  0.00000000e+00  0.00000000e+00 -2.58203385e-07  8.25065838e-08
  0.00000000e+00  0.00000000e+00  0.00000000e+00  3.37219023e-06]","[[ 6.29759300e-05  2.93370777e-03]
 [-9.75694121e-05  9.78812612e-04]]",[],0.0,0.0
1787153569.0813916,1.8690394306929046,0.7435206272125904,2.237239451021024,"[ 4.07474379e-06 -5.08237799e-07  0.00000000e+00  0.00000000e+00
  0.00000000e+00 -2.47483133e-07 -5.08237799e-07  3.95739926e-06
  0.00000000e+00  0.00000000e+00  0.00000000e+00  5.85047380e-08
  0.00000000e+00  0.00000000e+00  0.00000000e+00  0.00000000e+00
  0.00000000e+00  0.00000000e+00  0.00000000e+00  0.00000000e+00
  0.00000000e+00  0.00000000e+00  0.00000000e+00  0.00000000e+00
  0.00000000e+00  0.00000000e+00  0.00000000e+00  0.00000000e+00
  0.00000000e+00  0.00000000e+00 -2.47483133e-07  5.85047380e-08
  0.00000000e+00  0.00000000e+00  0.00000000e+00  3.17073787e-06]","[[ 8.08094208e-05  2.15260118e-03]
 [-7.91414140e-05  1.57495425e-03]]",[],0.0,0.0
1787153569.1286073,1.8690394306929046,0.7435206272125904,2.237239451021024,"[ 4.07474379e-06 -5.08237799e-07  0.00000000e+00  0.00000000e+00
  0.00000000e+00 -2.47483133e-07 -5.08237799e-07  3.95739926e-06
  0.00000000e+00  0.00000000e+00  0.00000000e+00  5.85047380e-08
  0.00000000e+00  0.00000000e+00  0.00000000e+00  0.00000000e+00
  0.00000000e+00  0.00000000e+00  0.00000000e+00  0.00000000e+00
  0.00000000e+00  0.00000000e+00  0.00000000e+00  0.00000000e+00
  0.00000000e+00  0.00000000e+00  0.00000000e+00  0.00000000e+00
  0.00000000e+00  0.00000000e+00 -2.47483133e-07  5.85047380e-08
  0.00000000e+00  0.00000000e+00  0.00000000e+00  3.17073787e-06]","[[ 8.08094208e-05  2.15260118e-03]
 [-7.91414140e-05  1.57495425e-03]]",[],0.0,0.0
1787153569.1946428,1.8690394306929046,0.7435206272125904,2.237239451021024,"[ 4.07474379e-06 -5.08237799e-07  0.00000000e+00  0.00000000e+00
  0.00000000e+00 -2.47483133e-07 -5.08237799e-07  3.95739926e-06
  0.00000000e+00  0.00000000e+00  0.00000000e+00  5.85047380e-08
  0.00000000e+00  0.00000000e+00  0.00000000e+00  0.00000000e+00
  0.00000000e+00  0.00000000e+00  0.00000000e+00  0.00000000e+00
  0.00000000e+00  0.00000000e+00  0.00000000e+00  0.00000000e+00
  0.00000000e+00  0.00000000e+00  0.00000000e+00  0.00000000e+00
  0.00000000e+00  0.00000000e+00 -2.47483133e-07  5.85047380e-08
  0.00000000e+00  0.00000000e+00  0.00000000e+00  3.17073787e-06]","[[ 8.08094208e-05  2.15260118e-03]
 [-7.91414140e-05  1.57495425e-03]]",[],0.0,0.0
1787153569.2292619,1.8690394306929046,0.7435206272125904,2.237239451021024,"[ 4.07474379e-06 -5.08237799e-07  0.00000000e+00  0.00000000e+00
  0.00000000e+00 -2.47483133e-07 -5.08237799e-07  3.95739926e-06
  0.00000000e+00  0.00000000e+00  0.00000000e+00  5.85047380e-08
  0.00000000e+00  0.00000000e+00  0.00000000e+00  0.00000000e+00
  0.00000000e+00  0.00000000e+00  0.00000000e+00  0.00000000e+00
  0.00000000e+00  0.00000000e+00  0.00000000e+00  0.00000000e+00
  0.00000000e+00  0.00000000e+00  0.00000000e+00  0.00000000e+00
  0.00000000e+00  0.00000000e+00 -2.47483133e-07  5.85047380e-08
  0.00000000e+00  0.00000000e+00  0.00000000e+00  3.17073787e-06]","[[ 8.08094208e-05  2.15260118e-03]
 [-7.91414140e-05  1.57495425e-03]]",[],0.0,0.0
1787153569.2799923,1.8690394306929046,0.7435206272125904,2.237239451021024,"[ 4.07474379e-06 -5.08237799e-07  0.00000000e+00  0.00000000e+00
  0.00000000e+00 -2.47483133e-07 -5.08237799e-07  3.95739926e-06
  0.00000000e+00  0.00000000e+00  0.00000000e+00  5.85047380e-08
  0.00000000e+00  0.00000000e+00  0.00000000e+00  0.00000000e+00
  0.00000000e+00  0.00000000e+00  0.00000000e+00  0.00000000e+00
  0.00000000e+00  0.00000000e+00  0.00000000e+00  0.00000000e+00
  0.00000000e+00  0.00000000e+00  0.00000000e+00  0.00000000e+00
  0.00000000e+00  0.00000000e+00 -2.47483133e-07  5.85047380e-08
  0.00000000e+00  0.00000000e+00  0.00000000e+00  3.17073787e-06]","[[ 8.08094208e-05  2.15260118e-03]
 [-7.91414140e-05  1.57495425e-03]]",[],0.0,0.0
1787153569.329529,1.8690394306929046,0.7435206272125904,2.237239451021024,"[ 4.07474379e-06 -5.08237799e-07  0.00000000e+00  0.00000000e+00
  0.00000000e+00 -2.47483133e-07 -5.08237799e-07  3.95739926e-06
  0.00000000e+00  0.00000000e+00  0.00000000e+00  5.85047380e-08
  0.00000000e+00  0.00000000e+00  0.00000000e+00  0.00000000e+00
  0.00000000e+00  0.00000000e+00  0.00000000e+00  0.00000000e+00
  0.00000000e+00  0.00000000e+00  0.00000000e+00  0.00000000e+00
  0.00000000e+00  0.00000000e+00  0.00000000e+00  0.00000000e+00
  0.00000000e+00  0.00000000e+00 -2.47483133e-07  5.85047380e-08
  0.00000000e+00  0.00000000e+00  0.00000000e+00  3.17073787e-06]","[[ 8.08094208e-05  2.15260118e-03]
 [-7.91414140e-05  1.57495425e-03]]",[],0.0,0.0
1787153569.3854825,1.8690394306929046,0.7435206272125904,2.237239451021024,"[ 4.07474379e-06 -5.08237799e-07  0.00000000e+00  0.00000000e+00
  0.00000000e+00 -2.47483133e-07 -5.08237799e-07  3.95739926e-06
  0.00000000e+00  0.00000000e+00  0.00000000e+00  5.85047380e-08
  0.00000000e+00  0.00000000e+00  0.00000000e+00  0.00000000e+00
  0.00000000e+00  0.00000000e+00  0.00000000e+00  0.00000000e+00
  0.00000000e+00  0.00000000e+00  0.00000000e+00  0.00000000e+00
  0.00000000e+00  0.00000000e+00  0.00000000e+00  0.00000000e+00
  0.00000000e+00  0.00000000e+00 -2.47483133e-07  5.85047380e-08
  0.00000000e+00  0.00000000e+00  0.00000000e+00  3.17073787e-06]","[[ 8.08094208e-05  2.15260118e-03]
 [-7.91414140e-05  1.57495425e-03]]",[],0.0,0.0
1787153569.4338355,1.8690394306929046,0.7435206272125904,2.237239451021024,"[ 4.07474379e-06 -5.08237799e-07  0.00000000e+00  0.00000000e+00
  0.00000000e+00 -2.47483133e-07 -5.08237799e-07  3.95739926e-06
  0.00000000e+00  0.00000000e+00  0.00000000e+00  5.85047380e-08
  0.00000000e+00  0.00000000e+00  0.00000000e+00  0.00000000e+00
  0.00000000e+00  0.00000000e+00  0.00000000e+00  0.00000000e+00
  0.00000000e+00  0.00000000e+00  0.00000000e+00  0.00000000e+00
  0.00000000e+00  0.00000000e+00  0.00000000e+00  0.00000000e+00
  0.00000000e+00  0.00000000e+00 -2.47483133e-07  5.85047380e-08
  0.00000000e+00  0.00000000e+00  0.00000000e+00  3.17073787e-06]","[[ 8.08094208e-05  2.15260118e-03]
 [-7.91414140e-05  1.57495425e-03]]",[],0.0,0.0
1787153569.4849458,1.8690394306929046,0.7435206272125904,2.237239451021024,"[ 4.07474379e-06 -5.08237799e-07  0.00000000e+00  0.00000000e+00
  0.00000000e+00 -2.47483133e-07 -5.08237799e-07  3.95739926e-06
  0.00000000e+00  0.00000000e+00  0.00000000e+00  5.85047380e-08
  0.00000000e+00  0.00000000e+00  0.00000000e+00  0.00000000e+00
  0.00000000e+00  0.00000000e+00  0.00000000e+00  0.00000000e+00
  0.00000000e+00  0.00000000e+00  0.00000000e+00  0.00000000e+00
  0.00000000e+00  0.00000000e+00  0.00000000e+00  0.00000000e+00
  0.00000000e+00  0.00000000e+00 -2.47483133e-07  5.85047380e-08
  0.00000000e+00  0.00000000e+00  0.00000000e+00  3.17073787e-06]","[[ 8.08094208e-05  2.15260118e-03]
 [-7.91414140e-05  1.57495425e-03]]",[],0.0,0.0
1787153569.529489,1.8690394306929046,0.7435206272125904,2.237239451021024,"[ 4.07474379e-06 -5.08237799e-07  0.00000000e+00  0.00000000e+00
  0.00000000e+00 -2.47483133e-07 -5.08237799e-07  3.95739926e-06
  0.00000000e+00  0.00000000e+00  0.00000000e+00  5.85047380e-08
  0.00000000e+00  0.00000000e+00  0.00000000e+00  0.00000000e+00
  0.00000000e+00  0.00000000e+00  0.00000000e+00  0.00000000e+00
  0.00000000e+00  0.00000000e+00  0.00000000e+00  0.00000000e+00
  0.00000000e+00  0.00000000e+00  0.00000000e+00  0.00000000e+00
  0.00000000e+00  0.00000000e+00 -2.47483133e-07  5.85047380e-08
  0.00000000e+00  0.00000000e+00  0.00000000e+00  3.17073787e-06]","[[ 8.08094208e-05  2.15260118e-03]
 [-7.91414140e-05  1.57495425e-03]]",[],0.0,0.0
1787153569.7649949,1.8690394306929046,0.7435206272125904,2.237239451021024,"[ 4.07474379e-06 -5.08237799e-07  0.00000000e+00  0.00000000e+00
  0.00000000e+00 -2.47483133e-07 -5.08237799e-07  3.95739926e-06
  0.00000000e+00  0.00000000e+00  0.00000000e+00  5.85047380e-08
  0.00000000e+00  0.00000000e+00  0.00000000e+00  0.00000000e+00
  0.00000000e+00  0.00000000e+00  0.00000000e+00  0.00000000e+00
  0.00000000e+00  0.00000000e+00  0.00000000e+00  0.00000000e+00
  0.00000000e+00  0.00000000e+00  0.00000000e+00  0.00000000e+00
  0.00000000e+00  0.00000000e+00 -2.47483133e-07  5.85047380e-08
  0.00000000e+00  0.00000000e+00  0.00000000e+00  3.17073787e-06]","[[ 8.08094208e-05  2.15260118e-03]
 [-7.91414140e-05  1.57495425e-03]]",[],0.0,0.0
1787153570.3648915,1.8679495978627032,0.739354880586669,2.250406234918838,"[ 3.85967055e-06 -5.20035653e-07  0.00000000e+00  0.00000000e+00
  0.00000000e+00 -2.37896945e-07 -5.20035653e-07  3.76168900e-06
  0.00000000e+00  0.00000000e+00  0.00000000e+00  5.67090656e-08
  0.00000000e+00  0.00000000e+00  0.00000000e+00  0.00000000e+00
  0.00000000e+00  0.00000000e+00  0.00000000e+00  0.00000000e+00
  0.00000000e+00  0.00000000e+00  0.00000000e+00  0.00000000e+00
  0.00000000e+00  0.00000000e+00  0.00000000e+00  0.00000000e+00
  0.00000000e+00  0.00000000e+00 -2.37896945e-07  5.67090656e-08
  0.00000000e+00  0.00000000e+00  0.00000000e+00  3.10132359e-06]","[[ 7.71632980e-05  2.02699030e-03]
 [-7.59415438e-05  1.47358770e-03]]",[],0.0,0.0
1787153570.3793073,1.8679495978627032,0.739354880586669,2.250406234918838,"[ 3.85967055e-06 -5.20035653e-07  0.00000000e+00  0.00000000e+00
  0.00000000e+00 -2.37896945e-07 -5.20035653e-07  3.76168900e-06
  0.00000000e+00  0.00000000e+00  0.00000000e+00  5.67090656e-08
  0.00000000e+00  0.00000000e+00  0.00000000e+00  0.00000000e+00
  0.00000000e+00  0.00000000e+00  0.00000000e+00  0.00000000e+00
  0.00000000e+00  0.00000000e+00  0.00000000e+00  0.00000000e+00
  0.00000000e+00  0.00000000e+00  0.00000000e+00  0.00000000e+00
  0.00000000e+00  0.00000000e+00 -2.37896945e-07  5.67090656e-08
  0.00000000e+00  0.00000000e+00  0.00000000e+00  3.10132359e-06]","[[ 7.71632980e-05  2.02699030e-03]
 [-7.59415438e-05  1.47358770e-03]]",[],0.0,0.0
1787153570.4301558,1.8679495978627032,0.739354880586669,2.250406234918838,"[ 3.85967055e-06 -5.20035653e-07  0.00000000e+00  0.00000000e+00
  0.00000000e+00 -2.37896945e-07 -5.20035653e-07  3.76168900e-06
  0.00000000e+00  0.00000000e+00  0.00000000e+00  5.67090656e-08
  0.00000000e+00  0.00000000e+00  0.00000000e+00  0.00000000e+00
  0.00000000e+00  0.00000000e+00  0.00000000e+00  0.00000000e+00
  0.00000000e+00  0.00000000e+00  0.00000000e+00  0.00000000e+00
  0.00000000e+00  0.00000000e+00  0.00000000e+00  0.00000000e+00
  0.00000000e+00  0.00000000e+00 -2.37896945e-07  5.67090656e-08
  0.00000000e+00  0.00000000e+00  0.00000000e+00  3.10132359e-06]","[[ 7.71632980e-05  2.02699030e-03]
 [-7.59415438e-05  1.47358770e-03]]",[],0.0,0.0
1787153570.9945636,1.8672089944910717,0.7364821471025181,2.259045714985948,"[ 3.67028995e-06 -5.03143084e-07  0.00000000e+00  0.00000000e+00
  0.00000000e+00 -2.23090644e-07 -5.03143084e-07  3.56958821e-06
  0.00000000e+00  0.00000000e+00  0.00000000e+00  6.03812163e-08
  0.00000000e+00  0.00000000e+00  0.00000000e+00  0.00000000e+00
  0.00000000e+00  0.00000000e+00  0.00000000e+00  0.00000000e+00
  0.00000000e+00  0.00000000e+00  0.00000000e+00  0.00000000e+00
  0.00000000e+00  0.00000000e+00  0.00000000e+00  0.00000000e+00
  0.00000000e+00  0.00000000e+00 -2.23090644e-07  6.03812163e-08
  0.00000000e+00  0.00000000e+00  0.00000000e+00  3.02261604e-06]","[[ 7.46791989e-05  1.84957878e-03]
 [-7.11034210e-05  1.39682168e-03]]",[],0.0,0.0
1787153571.4607952,1.8668761514382954,0.7334633486630122,2.2630264589817193,"[ 3.51723832e-06 -4.94172867e-07  0.00000000e+00  0.00000000e+00
  0.00000000e+00 -1.91855461e-07 -4.94172867e-07  3.41385025e-06
  0.00000000e+00  0.00000000e+00  0.00000000e+00  5.93098539e-08
  0.00000000e+00  0.00000000e+00  0.00000000e+00  0.00000000e+00
  0.00000000e+00  0.00000000e+00  0.00000000e+00  0.00000000e+00
  0.00000000e+00  0.00000000e+00  0.00000000e+00  0.00000000e+00
  0.00000000e+00  0.00000000e+00  0.00000000e+00  0.00000000e+00
  0.00000000e+00  0.00000000e+00 -1.91855461e-07  5.93098539e-08
  0.00000000e+00  0.00000000e+00  0.00000000e+00  3.17121092e-06]","[[ 7.17188085e-05  1.73153825e-03]
 [-6.82899277e-05  1.32439798e-03]]",[],0.0,0.0
1787153571.479501,1.8668761514382954,0.7334633486630122,2.2630264589817193,"[ 3.51723832e-06 -4.94172867e-07  0.00000000e+00  0.00000000e+00
  0.00000000e+00 -1.91855461e-07 -4.94172867e-07  3.41385025e-06
  0.00000000e+00  0.00000000e+00  0.00000000e+00  5.93098539e-08
  0.00000000e+00  0.00000000e+00  0.00000000e+00  0.00000000e+00
  0.00000000e+00  0.00000000e+00  0.00000000e+00  0.00000000e+00
  0.00000000e+00  0.00000000e+00  0.00000000e+00  0.00000000e+00
  0.00000000e+00  0.00000000e+00  0.00000000e+00  0.00000000e+00
  0.00000000e+00  0.00000000e+00 -1.91855461e-07  5.93098539e-08
  0.00000000e+00  0.00000000e+00  0.00000000e+00  3.17121092e-06]","[[ 7.17188085e-05  1.73153825e-03]
 [-6.82899277e-05  1.32439798e-03]]",[],0.0,0.0
1787153571.534842,1.8668761514382954,0.7334633486630122,2.2630264589817193,"[ 3.51723832e-06 -4.94172867e-07  0.00000000e+00  0.00000000e+00
  0.00000000e+00 -1.91855461e-07 -4.94172867e-07  3.41385025e-06
  0.00000000e+00  0.00000000e+00  0.00000000e+00  5.93098539e-08
  0.00000000e+00  0.00000000e+00  0.00000000e+00  0.00000000e+00
  0.00000000e+00  0.00000000e+00  0.00000000e+00  0.00000000e+00
  0.00000000e+00  0.00000000e+00  0.00000000e+00  0.00000000e+00
  0.00000000e+00  0.00000000e+00  0.00000000e+00  0.00000000e+00
  0.00000000e+00  0.00000000e+00 -1.91855461e-07  5.93098539e-08
  0.00000000e+00  0.00000000e+00  0.00000000e+00  3.17121092e-06]","[[ 7.17188085e-05  1.73153825e-03]
 [-6.82899277e-05  1.32439798e-03]]",[],0.0,0.0
1787153572.0259063,1.865184577125075,0.7307691928623062,2.2607240537404403,"[ 3.34353657e-06 -4.65809451e-07  0.00000000e+00  0.00000000e+00
  0.00000000e+00 -1.77919101e-07 -4.65809451e-07  3.22528440e-06
  0.00000000e+00  0.00000000e+00  0.00000000e+00  5.40551776e-08
  0.00000000e+00  0.00000000e+00  0.00000000e+00  0.00000000e+00
  0.00000000e+00  0.00000000e+00  0.00000000e+00  0.00000000e+00
  0.00000000e+00  0.00000000e+00  0.00000000e+00  0.00000000e+00
  0.00000000e+00  0.00000000e+00  0.00000000e+00  0.00000000e+00
  0.00000000e+00  0.00000000e+00 -1.77919101e-07  5.40551776e-08
  0.00000000e+00  0.00000000e+00  0.00000000e+00  2.67023821e-06]","[[ 6.80592110e-05  1.64133897e-03]
 [-6.45474152e-05  1.25229192e-03]]",[],0.0,0.0
1787153572.031058,1.865184577125075,0.7307691928623062,2.2607240537404403,"[ 3.34353657e-06 -4.65809451e-07  0.00000000e+00  0.00000000e+00
  0.00000000e+00 -1.77919101e-07 -4.65809451e-07  3.22528440e-06
  0.00000000e+00  0.00000000e+00  0.00000000e+00  5.40551776e-08
  0.00000000e+00  0.00000000e+00  0.00000000e+00  0.00000000e+00
  0.00000000e+00  0.00000000e+00  0.00000000e+00  0.00000000e+00
  0.00000000e+00  0.00000000e+00  0.00000000e+00  0.00000000e+00
  0.00000000e+00  0.00000000e+00  0.00000000e+00  0.00000000e+00
  0.00000000e+00  0.00000000e+00 -1.77919101e-07  5.40551776e-08
  0.00000000e+00  0.00000000e+00  0.00000000e+00  2.67023821e-06]","[[ 6.80592110e-05  1.64133897e-03]
 [-6.45474152e-05  1.25229192e-03]]",[],0.0,0.0
1787153572.5722826,1.8650048764753397,0.7279261705220075,2.2615700854901784,"[ 3.20379424e-06 -4.62241693e-07  0.00000000e+00  0.00000000e+00
  0.00000000e+00 -2.07220670e-07 -4.62241693e-07  3.09011517e-06
  0.00000000e+00  0.00000000e+00  0.00000000e+00  1.35563859e-08
  0.00000000e+00  0.00000000e+00  0.00000000e+00  0.00000000e+00
  0.00000000e+00  0.00000000e+00  0.00000000e+00  0.00000000e+00
  0.00000000e+00  0.00000000e+00  0.00000000e+00  0.00000000e+00
  0.00000000e+00  0.00000000e+00  0.00000000e+00  0.00000000e+00
  0.00000000e+00  0.00000000e+00 -2.07220670e-07  1.35563859e-08
  0.00000000e+00  0.00000000e+00  0.00000000e+00  2.93041423e-06]","[[ 6.54313707e-05  1.62770118e-03]
 [-6.21883319e-05  1.25306777e-03]]",[],0.0,0.0
1787153572.5839813,1.8650048764753397,0.7279261705220075,2.2615700854901784,"[ 3.20379424e-06 -4.62241693e-07  0.00000000e+00  0.00000000e+00
  0.00000000e+00 -2.07220670e-07 -4.62241693e-07  3.09011517e-06
  0.00000000e+00  0.00000000e+00  0.00000000e+00  1.35563859e-08
  0.00000000e+00  0.00000000e+00  0.00000000e+00  0.00000000e+00
  0.00000000e+00  0.00000000e+00  0.00000000e+00  0.00000000e+00
  0.00000000e+00  0.00000000e+00  0.00000000e+00  0.00000000e+00
  0.00000000e+00  0.00000000e+00  0.00000000e+00  0.00000000e+00
  0.00000000e+00  0.00000000e+00 -2.07220670e-07  1.35563859e-08
  0.00000000e+00  0.00000000e+00  0.00000000e+00  2.93041423e-06]","[[ 6.54313707e-05  1.62770118e-03]
 [-6.21883319e-05  1.25306777e-03]]",[],0.0,0.0
1787153573.213275,1.8648117122077368,0.7259025852064476,2.259629398817834,"[ 3.08918394e-06 -4.59666670e-07  0.00000000e+00  0.00000000e+00
  0.00000000e+00 -1.78537718e-07 -4.59666670e-07  2.96923367e-06
  0.00000000e+00  0.00000000e+00  0.00000000e+00  1.08838001e-08
  0.00000000e+00  0.00000000e+00  0.00000000e+00  0.00000000e+00
  0.00000000e+00  0.00000000e+00  0.00000000e+00  0.00000000e+00
  0.00000000e+00  0.00000000e+00  0.00000000e+00  0.00000000e+00
  0.00000000e+00  0.00000000e+00  0.00000000e+00  0.00000000e+00
  0.00000000e+00  0.00000000e+00 -1.78537718e-07  1.08838001e-08
  0.00000000e+00  0.00000000e+00  0.00000000e+00  2.99752945e-06]","[[ 6.32939857e-05  1.52811879e-03]
 [-6.00730266e-05  1.19794358e-03]]",[],0.0,0.0
1787153573.234712,1.8648117122077368,0.7259025852064476,2.259629398817834,"[ 3.08918394e-06 -4.59666670e-07  0.00000000e+00  0.00000000e+00
  0.00000000e+00 -1.78537718e-07 -4.59666670e-07  2.96923367e-06
  0.00000000e+00  0.00000000e+00  0.00000000e+00  1.08838001e-08
  0.00000000e+00  0.00000000e+00  0.00000000e+00  0.00000000e+00
  0.00000000e+00  0.00000000e+00  0.00000000e+00  0.00000000e+00
  0.00000000e+00  0.00000000e+00  0.00000000e+00  0.00000000e+00
  0.00000000e+00  0.00000000e+00  0.00000000e+00  0.00000000e+00
  0.00000000e+00  0.00000000e+00 -1.78537718e-07  1.08838001e-08
  0.00000000e+00  0.00000000e+00  0.00000000e+00  2.99752945e-06]","[[ 6.32939857e-05  1.52811879e-03]
 [-6.00730266e-05  1.19794358e-03]]",[],0.0,0.0
1787153573.2825985,1.8649052190524482,0.7227229816987664,2.2710722235366747,"[ 2.98626338e-06 -4.81894506e-07  0.00000000e+00  0.00000000e+00
  0.00000000e+00 -1.83733980e-07 -4.81894506e-07  2.88109827e-06
  0.00000000e+00  0.00000000e+00  0.00000000e+00  3.82046097e-08
  0.00000000e+00  0.00000000e+00  0.00000000e+00  0.00000000e+00
  0.00000000e+00  0.00000000e+00  0.00000000e+00  0.00000000e+00
  0.00000000e+00  0.00000000e+00  0.00000000e+00  0.00000000e+00
  0.00000000e+00  0.00000000e+00  0.00000000e+00  0.00000000e+00
  0.00000000e+00  0.00000000e+00 -1.83733980e-07  3.82046097e-08
  0.00000000e+00  0.00000000e+00  0.00000000e+00  3.00933749e-06]","[[ 6.32939857e-05  1.52811879e-03]
 [-6.00730266e-05  1.19794358e-03]]",[],0.0,0.0
1787153573.3304,1.8649052190524482,0.7227229816987664,2.2710722235366747,"[ 2.98626338e-06 -4.81894506e-07  0.00000000e+00  0.00000000e+00
  0.00000000e+00 -1.83733980e-07 -4.81894506e-07  2.88109827e-06
  0.00000000e+00  0.00000000e+00  0.00000000e+00  3.82046097e-08
  0.00000000e+00  0.00000000e+00  0.00000000e+00  0.00000000e+00
  0.00000000e+00  0.00000000e+00  0.00000000e+00  0.00000000e+00
  0.00000000e+00  0.00000000e+00  0.00000000e+00  0.00000000e+00
  0.00000000e+00  0.00000000e+00  0.00000000e+00  0.00000000e+00
  0.00000000e+00  0.00000000e+00 -1.83733980e-07  3.82046097e-08
  0.00000000e+00  0.00000000e+00  0.00000000e+00  3.00933749e-06]","[[ 6.18127465e-05  1.47799408e-03]
 [-5.89594576e-05  1.09814315e-03]]",[],0.0,0.0
1787153573.9488976,1.8649052190524482,0.7227229816987664,2.2710722235366747,"[ 2.98626338e-06 -4.81894506e-07  0.00000000e+00  0.00000000e+00
  0.00000000e+00 -1.83733980e-07 -4.81894506e-07  2.88109827e-06
  0.00000000e+00  0.00000000e+00  0.00000000e+00  3.82046097e-08
  0.00000000e+00  0.00000000e+00  0.00000000e+00  0.00000000e+00
  0.00000000e+00  0.00000000e+00  0.00000000e+00  0.00000000e+00
  0.00000000e+00  0.00000000e+00  0.00000000e+00  0.00000000e+00
  0.00000000e+00  0.00000000e+00  0.00000000e+00  0.00000000e+00
  0.00000000e+00  0.00000000e+00 -1.83733980e-07  3.82046097e-08
  0.00000000e+00  0.00000000e+00  0.00000000e+00  3.00933749e-06]","[[ 6.18127465e-05  1.47799408e-03]
 [-5.89594576e-05  1.09814315e-03]]",[],0.0,0.0
1787153573.982739,1.8649052190524482,0.7227229816987664,2.2710722235366747,"[ 2.98626338e-06 -4.81894506e-07  0.00000000e+00  0.00000000e+00
  0.00000000e+00 -1.83733980e-07 -4.81894506e-07  2.88109827e-06
  0.00000000e+00  0.00000000e+00  0.00000000e+00  3.82046097e-08
  0.00000000e+00  0.00000000e+00  0.00000000e+00  0.00000000e+00
  0.00000000e+00  0.00000000e+00  0.00000000e+00  0.00000000e+00
  0.00000000e+00  0.00000000e+00  0.00000000e+00  0.00000000e+00
  0.00000000e+00  0.00000000e+00  0.00000000e+00  0.00000000e+00
  0.00000000e+00  0.00000000e+00 -1.83733980e-07  3.82046097e-08
  0.00000000e+00  0.00000000e+00  0.00000000e+00  3.00933749e-06]","[[ 6.18127465e-05  1.47799408e-03]
 [-5.89594576e-05  1.09814315e-03]]",[],0.0,0.0
1787153574.0292785,1.8642424942796239,0.7200355129289642,2.2783921508697738,"[ 2.90921803e-06 -5.16645834e-07  0.00000000e+00  0.00000000e+00
  0.00000000e+00 -1.70233057e-07 -5.16645834e-07  2.81721056e-06
  0.00000000e+00  0.00000000e+00  0.00000000e+00  5.38688815e-08
  0.00000000e+00  0.00000000e+00  0.00000000e+00  0.00000000e+00
  0.00000000e+00  0.00000000e+00  0.00000000e+00  0.00000000e+00
  0.00000000e+00  0.00000000e+00  0.00000000e+00  0.00000000e+00
  0.00000000e+00  0.00000000e+00  0.00000000e+00  0.00000000e+00
  0.00000000e+00  0.00000000e+00 -1.70233057e-07  5.38688815e-08
  0.00000000e+00  0.00000000e+00  0.00000000e+00  3.10647594e-06]","[[ 6.10050515e-05  1.40306812e-03]
 [-5.85015666e-05  1.02263098e-03]]",[],0.0,0.0
1787153574.6147344,1.8642424942796239,0.7200355129289642,2.2783921508697738,"[ 2.90921803e-06 -5.16645834e-07  0.00000000e+00  0.00000000e+00
  0.00000000e+00 -1.70233057e-07 -5.16645834e-07  2.81721056e-06
  0.00000000e+00  0.00000000e+00  0.00000000e+00  5.38688815e-08
  0.00000000e+00  0.00000000e+00  0.00000000e+00  0.00000000e+00
  0.00000000e+00  0.00000000e+00  0.00000000e+00  0.00000000e+00
  0.00000000e+00  0.00000000e+00  0.00000000e+00  0.00000000e+00
  0.00000000e+00  0.00000000e+00  0.00000000e+00  0.00000000e+00
  0.00000000e+00  0.00000000e+00 -1.70233057e-07  5.38688815e-08
  0.00000000e+00  0.00000000e+00  0.00000000e+00  3.10647594e-06]","[[ 6.10050515e-05  1.40306812e-03]
 [-5.85015666e-05  1.02263098e-03]]",[],0.0,0.0
1787153574.6619694,1.8642424942796239,0.7200355129289642,2.2783921508697738,"[ 2.90921803e-06 -5.16645834e-07  0.00000000e+00  0.00000000e+00
  0.00000000e+00 -1.70233057e-07 -5.16645834e-07  2.81721056e-06
  0.00000000e+00  0.00000000e+00  0.00000000e+00  5.38688815e-08
  0.00000000e+00  0.00000000e+00  0.00000000e+00  0.00000000e+00
  0.00000000e+00  0.00000000e+00  0.00000000e+00  0.00000000e+00
  0.00000000e+00  0.00000000e+00  0.00000000e+00  0.00000000e+00
  0.00000000e+00  0.00000000e+00  0.00000000e+00  0.00000000e+00
  0.00000000e+00  0.00000000e+00 -1.70233057e-07  5.38688815e-08
  0.00000000e+00  0.00000000e+00  0.00000000e+00  3.10647594e-06]","[[ 6.10050515e-05  1.40306812e-03]
 [-5.85015666e-05  1.02263098e-03]]",[],0.0,0.0
1787153574.6796021,1.8645109096680499,0.717530696851087,2.274183134174355,"[ 2.83477982e-06 -5.38126510e-07  0.00000000e+00  0.00000000e+00
  0.00000000e+00 -1.67042169e-07 -5.38126510e-07  2.75231149e-06
  0.00000000e+00  0.00000000e+00  0.00000000e+00  5.09984861e-08
  0.00000000e+00  0.00000000e+00  0.00000000e+00  0.00000000e+00
  0.00000000e+00  0.00000000e+00  0.00000000e+00  0.00000000e+00
  0.00000000e+00  0.00000000e+00  0.00000000e+00  0.00000000e+00
  0.00000000e+00  0.00000000e+00  0.00000000e+00  0.00000000e+00
  0.00000000e+00  0.00000000e+00 -1.67042169e-07  5.09984861e-08
  0.00000000e+00  0.00000000e+00  0.00000000e+00  3.15615144e-06]","[[ 6.00122295e-05  1.35335460e-03]
 [-5.77887378e-05  9.83927376e-04]]",[],0.0,0.0
1787153574.7456698,1.8645109096680499,0.717530696851087,2.274183134174355,"[ 2.83477982e-06 -5.38126510e-07  0.00000000e+00  0.00000000e+00
  0.00000000e+00 -1.67042169e-07 -5.38126510e-07  2.75231149e-06
  0.00000000e+00  0.00000000e+00  0.00000000e+00  5.09984861e-08
  0.00000000e+00  0.00000000e+00  0.00000000e+00  0.00000000e+00
  0.00000000e+00  0.00000000e+00  0.00000000e+00  0.00000000e+00
  0.00000000e+00  0.00000000e+00  0.00000000e+00  0.00000000e+00
  0.00000000e+00  0.00000000e+00  0.00000000e+00  0.00000000e+00
  0.00000000e+00  0.00000000e+00 -1.67042169e-07  5.09984861e-08
  0.00000000e+00  0.00000000e+00  0.00000000e+00  3.15615144e-06]","[[ 6.00122295e-05  1.35335460e-03]
 [-5.77887378e-05  9.83927376e-04]]",[],0.0,0.0
1787153574.7823284,1.8645109096680499,0.717530696851087,2.274183134174355,"[ 2.83477982e-06 -5.38126510e-07  0.00000000e+00  0.00000000e+00
  0.00000000e+00 -1.67042169e-07 -5.38126510e-07  2.75231149e-06
  0.00000000e+00  0.00000000e+00  0.00000000e+00  5.09984861e-08
  0.00000000e+00  0.00000000e+00  0.00000000e+00  0.00000000e+00
  0.00000000e+00  0.00000000e+00  0.00000000e+00  0.00000000e+00
  0.00000000e+00  0.00000000e+00  0.00000000e+00  0.00000000e+00
  0.00000000e+00  0.00000000e+00  0.00000000e+00  0.00000000e+00
  0.00000000e+00  0.00000000e+00 -1.67042169e-07  5.09984861e-08
  0.00000000e+00  0.00000000e+00  0.00000000e+00  3.15615144e-06]","[[ 6.00122295e-05  1.35335460e-03]
 [-5.77887378e-05  9.83927376e-04]]",[],0.0,0.0
1787153574.8293495,1.8645109096680499,0.717530696851087,2.274183134174355,"[ 2.83477982e-06 -5.38126510e-07  0.00000000e+00  0.00000000e+00
  0.00000000e+00 -1.67042169e-07 -5.38126510e-07  2.75231149e-06
  0.00000000e+00  0.00000000e+00  0.00000000e+00  5.09984861e-08
  0.00000000e+00  0.00000000e+00  0.00000000e+00  0.00000000e+00
  0.00000000e+00  0.00000000e+00  0.00000000e+00  0.00000000e+00
  0.00000000e+00  0.00000000e+00  0.00000000e+00  0.00000000e+00
  0.00000000e+00  0.00000000e+00  0.00000000e+00  0.00000000e+00
  0.00000000e+00  0.00000000e+00 -1.67042169e-07  5.09984861e-08
  0.00000000e+00  0.00000000e+00  0.00000000e+00  3.15615144e-06]","[[ 6.00122295e-05  1.35335460e-03]
 [-5.77887378e-05  9.83927376e-04]]",[],0.0,0.0
1787153574.8864388,1.8645109096680499,0.717530696851087,2.274183134174355,"[ 2.83477982e-06 -5.38126510e-07  0.00000000e+00  0.00000000e+00
  0.00000000e+00 -1.67042169e-07 -5.38126510e-07  2.75231149e-06
  0.00000000e+00  0.00000000e+00  0.00000000e+00  5.09984861e-08
  0.00000000e+00  0.00000000e+00  0.00000000e+00  0.00000000e+00
  0.00000000e+00  0.00000000e+00  0.00000000e+00  0.00000000e+00
  0.00000000e+00  0.00000000e+00  0.00000000e+00  0.00000000e+00
  0.00000000e+00  0.00000000e+00  0.00000000e+00  0.00000000e+00
  0.00000000e+00  0.00000000e+00 -1.67042169e-07  5.09984861e-08
  0.00000000e+00  0.00000000e+00  0.00000000e+00  3.15615144e-06]","[[ 6.00122295e-05  1.35335460e-03]
 [-5.77887378e-05  9.83927376e-04]]",[],0.0,0.0
1787153574.9554837,1.8645109096680499,0.717530696851087,2.274183134174355,"[ 2.83477982e-06 -5.38126510e-07  0.00000000e+00  0.00000000e+00
  0.00000000e+00 -1.67042169e-07 -5.38126510e-07  2.75231149e-06
  0.00000000e+00  0.00000000e+00  0.00000000e+00  5.09984861e-08
  0.00000000e+00  0.00000000e+00  0.00000000e+00  0.00000000e+00
  0.00000000e+00  0.00000000e+00  0.00000000e+00  0.00000000e+00
  0.00000000e+00  0.00000000e+00  0.00000000e+00  0.00000000e+00
  0.00000000e+00  0.00000000e+00  0.00000000e+00  0.00000000e+00
  0.00000000e+00  0.00000000e+00 -1.67042169e-07  5.09984861e-08
  0.00000000e+00  0.00000000e+00  0.00000000e+00  3.15615144e-06]","[[ 6.00122295e-05  1.35335460e-03]
 [-5.77887378e-05  9.83927376e-04]]",[],0.0,0.0
1787153574.984421,1.8645109096680499,0.717530696851087,2.274183134174355,"[ 2.83477982e-06 -5.38126510e-07  0.00000000e+00  0.00000000e+00
  0.00000000e+00 -1.67042169e-07 -5.38126510e-07  2.75231149e-06
  0.00000000e+00  0.00000000e+00  0.00000000e+00  5.09984861e-08
  0.00000000e+00  0.00000000e+00  0.00000000e+00  0.00000000e+00
  0.00000000e+00  0.00000000e+00  0.00000000e+00  0.00000000e+00
  0.00000000e+00  0.00000000e+00  0.00000000e+00  0.00000000e+00
  0.00000000e+00  0.00000000e+00  0.00000000e+00  0.00000000e+00
  0.00000000e+00  0.00000000e+00 -1.67042169e-07  5.09984861e-08
  0.00000000e+00  0.00000000e+00  0.00000000e+00  3.15615144e-06]","[[ 6.00122295e-05  1.35335460e-03]
 [-5.77887378e-05  9.83927376e-04]]",[],0.0,0.0
1787153575.031356,1.8645109096680499,0.717530696851087,2.274183134174355,"[ 2.83477982e-06 -5.38126510e-07  0.00000000e+00  0.00000000e+00
  0.00000000e+00 -1.67042169e-07 -5.38126510e-07  2.75231149e-06
  0.00000000e+00  0.00000000e+00  0.00000000e+00  5.09984861e-08
  0.00000000e+00  0.00000000e+00  0.00000000e+00  0.00000000e+00
  0.00000000e+00  0.00000000e+00  0.00000000e+00  0.00000000e+00
  0.00000000e+00  0.00000000e+00  0.00000000e+00  0.00000000e+00
  0.00000000e+00  0.00000000e+00  0.00000000e+00  0.00000000e+00
  0.00000000e+00  0.00000000e+00 -1.67042169e-07  5.09984861e-08
  0.00000000e+00  0.00000000e+00  0.00000000e+00  3.15615144e-06]","[[ 6.00122295e-05  1.35335460e-03]
 [-5.77887378e-05  9.83927376e-04]]",[],0.0,0.0
1787153575.0785866,1.8645109096680499,0.717530696851087,2.274183134174355,"[ 2.83477982e-06 -5.38126510e-07  0.00000000e+00  0.00000000e+00
  0.00000000e+00 -1.67042169e-07 -5.38126510e-07  2.75231149e-06
  0.00000000e+00  0.00000000e+00  0.00000000e+00  5.09984861e-08
  0.00000000e+00  0.00000000e+00  0.00000000e+00  0.00000000e+00
  0.00000000e+00  0.00000000e+00  0.00000000e+00  0.00000000e+00
  0.00000000e+00  0.00000000e+00  0.00000000e+00  0.00000000e+00
  0.00000000e+00  0.00000000e+00  0.00000000e+00  0.00000000e+00
  0.00000000e+00  0.00000000e+00 -1.67042169e-07  5.09984861e-08
  0.00000000e+00  0.00000000e+00  0.00000000e+00  3.15615144e-06]","[[ 6.00122295e-05  1.35335460e-03]
 [-5.77887378e-05  9.83927376e-04]]",[],0.0,0.0
1787153575.2163863,1.8645109096680499,0.717530696851087,2.274183134174355,"[ 2.83477982e-06 -5.38126510e-07  0.00000000e+00  0.00000000e+00
  0.00000000e+00 -1.67042169e-07 -5.38126510e-07  2.75231149e-06
  0.00000000e+00  0.00000000e+00  0.00000000e+00  5.09984861e-08
  0.00000000e+00  0.00000000e+00  0.00000000e+00  0.00000000e+00
  0.00000000e+00  0.00000000e+00  0.00000000e+00  0.00000000e+00
  0.00000000e+00  0.00000000e+00  0.00000000e+00  0.00000000e+00
  0.00000000e+00  0.00000000e+00  0.00000000e+00  0.00000000e+00
  0.00000000e+00  0.00000000e+00 -1.67042169e-07  5.09984861e-08
  0.00000000e+00  0.00000000e+00  0.00000000e+00  3.15615144e-06]","[[ 6.00122295e-05  1.35335460e-03]
 [-5.77887378e-05  9.83927376e-04]]",[],0.0,0.0
1787153575.2341378,1.8645109096680499,0.717530696851087,2.274183134174355,"[ 2.83477982e-06 -5.38126510e-07  0.00000000e+00  0.00000000e+00
  0.00000000e+00 -1.67042169e-07 -5.38126510e-07  2.75231149e-06
  0.00000000e+00  0.00000000e+00  0.00000000e+00  5.09984861e-08
  0.00000000e+00  0.00000000e+00  0.00000000e+00  0.00000000e+00
  0.00000000e+00  0.00000000e+00  0.00000000e+00  0.00000000e+00
  0.00000000e+00  0.00000000e+00  0.00000000e+00  0.00000000e+00
  0.00000000e+00  0.00000000e+00  0.00000000e+00  0.00000000e+00
  0.00000000e+00  0.00000000e+00 -1.67042169e-07  5.09984861e-08
  0.00000000e+00  0.00000000e+00  0.00000000e+00  3.15615144e-06]","[[ 6.00122295e-05  1.35335460e-03]
 [-5.77887378e-05  9.83927376e-04]]",[],0.0,0.0
1787153575.2793381,1.8645109096680499,0.717530696851087,2.274183134174355,"[ 2.83477982e-06 -5.38126510e-07  0.00000000e+00  0.00000000e+00
  0.00000000e+00 -1.67042169e-07 -5.38126510e-07  2.75231149e-06
  0.00000000e+00  0.00000000e+00  0.00000000e+00  5.09984861e-08
  0.00000000e+00  0.00000000e+00  0.00000000e+00  0.00000000e+00
  0.00000000e+00  0.00000000e+00  0.00000000e+00  0.00000000e+00
  0.00000000e+00  0.00000000e+00  0.00000000e+00  0.00000000e+00
  0.00000000e+00  0.00000000e+00  0.00000000e+00  0.00000000e+00
  0.00000000e+00  0.00000000e+00 -1.67042169e-07  5.09984861e-08
  0.00000000e+00  0.00000000e+00  0.00000000e+00  3.15615144e-06]","[[ 6.00122295e-05  1.35335460e-03]
 [-5.77887378e-05  9.83927376e-04]]",[],0.0,0.0
1787153575.3297243,1.8645109096680499,0.717530696851087,2.274183134174355,"[ 2.83477982e-06 -5.38126510e-07  0.00000000e+00  0.00000000e+00
  0.00000000e+00 -1.67042169e-07 -5.38126510e-07  2.75231149e-06
  0.00000000e+00  0.00000000e+00  0.00000000e+00  5.09984861e-08
  0.00000000e+00  0.00000000e+00  0.00000000e+00  0.00000000e+00
  0.00000000e+00  0.00000000e+00  0.00000000e+00  0.00000000e+00
  0.00000000e+00  0.00000000e+00  0.00000000e+00  0.00000000e+00
  0.00000000e+00  0.00000000e+00  0.00000000e+00  0.00000000e+00
  0.00000000e+00  0.00000000e+00 -1.67042169e-07  5.09984861e-08
  0.00000000e+00  0.00000000e+00  0.00000000e+00  3.15615144e-06]","[[ 6.00122295e-05  1.35335460e-03]
 [-5.77887378e-05  9.83927376e-04]]",[],0.0,0.0
1787153575.3786972,1.8645109096680499,0.717530696851087,2.274183134174355,"[ 2.83477982e-06 -5.38126510e-07  0.00000000e+00  0.00000000e+00
  0.00000000e+00 -1.67042169e-07 -5.38126510e-07  2.75231149e-06
  0.00000000e+00  0.00000000e+00  0.00000000e+00  5.09984861e-08
  0.00000000e+00  0.00000000e+00  0.00000000e+00  0.00000000e+00
  0.00000000e+00  0.00000000e+00  0.00000000e+00  0.00000000e+00
  0.00000000e+00  0.00000000e+00  0.00000000e+00  0.00000000e+00
  0.00000000e+00  0.00000000e+00  0.00000000e+00  0.00000000e+00
  0.00000000e+00  0.00000000e+00 -1.67042169e-07  5.09984861e-08
