time,x,y,yaw,cov_prop,K_gain,innovation,v_ekf,omega_ekf
1787304632.7454398,1.4157648391112356,-0.5215318255456256,0.25039180690357155,"[ 4.76770763e-05 -5.46865041e-06  0.00000000e+00  0.00000000e+00
  0.00000000e+00 -5.13719531e-06 -5.46865041e-06  3.94846974e-05
  0.00000000e+00  0.00000000e+00  0.00000000e+00  1.83965845e-06
  0.00000000e+00  0.00000000e+00  0.00000000e+00  0.00000000e+00
  0.00000000e+00  0.00000000e+00  0.00000000e+00  0.00000000e+00
  0.00000000e+00  0.00000000e+00  0.00000000e+00  0.00000000e+00
  0.00000000e+00  0.00000000e+00  0.00000000e+00  0.00000000e+00
  0.00000000e+00  0.00000000e+00 -5.13719531e-06  1.83965845e-06
  0.00000000e+00  0.00000000e+00  0.00000000e+00  4.19129498e-06]","[[-0.00119056  0.01154043]
 [ 0.00012723 -0.02334751]]",[],0.0,0.0
1787304632.7925394,1.4157648391112356,-0.5215318255456256,0.25039180690357155,"[ 4.76770763e-05 -5.46865041e-06  0.00000000e+00  0.00000000e+00
  0.00000000e+00 -5.13719531e-06 -5.46865041e-06  3.94846974e-05
  0.00000000e+00  0.00000000e+00  0.00000000e+00  1.83965845e-06
  0.00000000e+00  0.00000000e+00  0.00000000e+00  0.00000000e+00
  0.00000000e+00  0.00000000e+00  0.00000000e+00  0.00000000e+00
  0.00000000e+00  0.00000000e+00  0.00000000e+00  0.00000000e+00
  0.00000000e+00  0.00000000e+00  0.00000000e+00  0.00000000e+00
  0.00000000e+00  0.00000000e+00 -5.13719531e-06  1.83965845e-06
  0.00000000e+00  0.00000000e+00  0.00000000e+00  4.19129498e-06]","[[-0.00119056  0.01154043]
 [ 0.00012723 -0.02334751]]",[],0.0,0.0
1787304632.8487253,1.4157648391112356,-0.5215318255456256,0.25039180690357155,"[ 4.76770763e-05 -5.46865041e-06  0.00000000e+00  0.00000000e+00
  0.00000000e+00 -5.13719531e-06 -5.46865041e-06  3.94846974e-05
  0.00000000e+00  0.00000000e+00  0.00000000e+00  1.83965845e-06
  0.00000000e+00  0.00000000e+00  0.00000000e+00  0.00000000e+00
  0.00000000e+00  0.00000000e+00  0.00000000e+00  0.00000000e+00
  0.00000000e+00  0.00000000e+00  0.00000000e+00  0.00000000e+00
  0.00000000e+00  0.00000000e+00  0.00000000e+00  0.00000000e+00
  0.00000000e+00  0.00000000e+00 -5.13719531e-06  1.83965845e-06
  0.00000000e+00  0.00000000e+00  0.00000000e+00  4.19129498e-06]","[[-0.00119056  0.01154043]
 [ 0.00012723 -0.02334751]]",[],0.0,0.0
1787304632.8932388,1.4157648391112356,-0.5215318255456256,0.25039180690357155,"[ 4.76770763e-05 -5.46865041e-06  0.00000000e+00  0.00000000e+00
  0.00000000e+00 -5.13719531e-06 -5.46865041e-06  3.94846974e-05
  0.00000000e+00  0.00000000e+00  0.00000000e+00  1.83965845e-06
  0.00000000e+00  0.00000000e+00  0.00000000e+00  0.00000000e+00
  0.00000000e+00  0.00000000e+00  0.00000000e+00  0.00000000e+00
  0.00000000e+00  0.00000000e+00  0.00000000e+00  0.00000000e+00
  0.00000000e+00  0.00000000e+00  0.00000000e+00  0.00000000e+00
  0.00000000e+00  0.00000000e+00 -5.13719531e-06  1.83965845e-06
  0.00000000e+00  0.00000000e+00  0.00000000e+00  4.19129498e-06]","[[-0.00119056  0.01154043]
 [ 0.00012723 -0.02334751]]",[],0.0,0.0
1787304632.948224,1.4157648391112356,-0.5215318255456256,0.25039180690357155,"[ 4.76770763e-05 -5.46865041e-06  0.00000000e+00  0.00000000e+00
  0.00000000e+00 -5.13719531e-06 -5.46865041e-06  3.94846974e-05
  0.00000000e+00  0.00000000e+00  0.00000000e+00  1.83965845e-06
  0.00000000e+00  0.00000000e+00  0.00000000e+00  0.00000000e+00
  0.00000000e+00  0.00000000e+00  0.00000000e+00  0.00000000e+00
  0.00000000e+00  0.00000000e+00  0.00000000e+00  0.00000000e+00
  0.00000000e+00  0.00000000e+00  0.00000000e+00  0.00000000e+00
  0.00000000e+00  0.00000000e+00 -5.13719531e-06  1.83965845e-06
  0.00000000e+00  0.00000000e+00  0.00000000e+00  4.19129498e-06]","[[-0.00119056  0.01154043]
 [ 0.00012723 -0.02334751]]",[],0.0,0.0
1787304632.9930358,1.4157648391112356,-0.5215318255456256,0.25039180690357155,"[ 4.76770763e-05 -5.46865041e-06  0.00000000e+00  0.00000000e+00
  0.00000000e+00 -5.13719531e-06 -5.46865041e-06  3.94846974e-05
  0.00000000e+00  0.00000000e+00  0.00000000e+00  1.83965845e-06
  0.00000000e+00  0.00000000e+00  0.00000000e+00  0.00000000e+00
  0.00000000e+00  0.00000000e+00  0.00000000e+00  0.00000000e+00
  0.00000000e+00  0.00000000e+00  0.00000000e+00  0.00000000e+00
  0.00000000e+00  0.00000000e+00  0.00000000e+00  0.00000000e+00
  0.00000000e+00  0.00000000e+00 -5.13719531e-06  1.83965845e-06
  0.00000000e+00  0.00000000e+00  0.00000000e+00  4.19129498e-06]","[[-0.00119056  0.01154043]
 [ 0.00012723 -0.02334751]]",[],0.0,0.0
1787304633.0431578,1.4157648391112356,-0.5215318255456256,0.25039180690357155,"[ 4.76770763e-05 -5.46865041e-06  0.00000000e+00  0.00000000e+00
  0.00000000e+00 -5.13719531e-06 -5.46865041e-06  3.94846974e-05
  0.00000000e+00  0.00000000e+00  0.00000000e+00  1.83965845e-06
  0.00000000e+00  0.00000000e+00  0.00000000e+00  0.00000000e+00
  0.00000000e+00  0.00000000e+00  0.00000000e+00  0.00000000e+00
  0.00000000e+00  0.00000000e+00  0.00000000e+00  0.00000000e+00
  0.00000000e+00  0.00000000e+00  0.00000000e+00  0.00000000e+00
  0.00000000e+00  0.00000000e+00 -5.13719531e-06  1.83965845e-06
  0.00000000e+00  0.00000000e+00  0.00000000e+00  4.19129498e-06]","[[-0.00119056  0.01154043]
 [ 0.00012723 -0.02334751]]",[],0.0,0.0
1787304633.0923643,1.4157648391112356,-0.5215318255456256,0.25039180690357155,"[ 4.76770763e-05 -5.46865041e-06  0.00000000e+00  0.00000000e+00
  0.00000000e+00 -5.13719531e-06 -5.46865041e-06  3.94846974e-05
  0.00000000e+00  0.00000000e+00  0.00000000e+00  1.83965845e-06
  0.00000000e+00  0.00000000e+00  0.00000000e+00  0.00000000e+00
  0.00000000e+00  0.00000000e+00  0.00000000e+00  0.00000000e+00
  0.00000000e+00  0.00000000e+00  0.00000000e+00  0.00000000e+00
  0.00000000e+00  0.00000000e+00  0.00000000e+00  0.00000000e+00
  0.00000000e+00  0.00000000e+00 -5.13719531e-06  1.83965845e-06
  0.00000000e+00  0.00000000e+00  0.00000000e+00  4.19129498e-06]","[[-0.00119056  0.01154043]
 [ 0.00012723 -0.02334751]]",[],0.0,0.0
1787304633.1488512,1.4157648391112356,-0.5215318255456256,0.25039180690357155,"[ 4.76770763e-05 -5.46865041e-06  0.00000000e+00  0.00000000e+00
  0.00000000e+00 -5.13719531e-06 -5.46865041e-06  3.94846974e-05
  0.00000000e+00  0.00000000e+00  0.00000000e+00  1.83965845e-06
  0.00000000e+00  0.00000000e+00  0.00000000e+00  0.00000000e+00
  0.00000000e+00  0.00000000e+00  0.00000000e+00  0.00000000e+00
  0.00000000e+00  0.00000000e+00  0.00000000e+00  0.00000000e+00
  0.00000000e+00  0.00000000e+00  0.00000000e+00  0.00000000e+00
  0.00000000e+00  0.00000000e+00 -5.13719531e-06  1.83965845e-06
  0.00000000e+00  0.00000000e+00  0.00000000e+00  4.19129498e-06]","[[-0.00119056  0.01154043]
 [ 0.00012723 -0.02334751]]",[],0.0,0.0
1787304633.1944492,1.4157648391112356,-0.5215318255456256,0.25039180690357155,"[ 4.76770763e-05 -5.46865041e-06  0.00000000e+00  0.00000000e+00
  0.00000000e+00 -5.13719531e-06 -5.46865041e-06  3.94846974e-05
  0.00000000e+00  0.00000000e+00  0.00000000e+00  1.83965845e-06
  0.00000000e+00  0.00000000e+00  0.00000000e+00  0.00000000e+00
  0.00000000e+00  0.00000000e+00  0.00000000e+00  0.00000000e+00
  0.00000000e+00  0.00000000e+00  0.00000000e+00  0.00000000e+00
  0.00000000e+00  0.00000000e+00  0.00000000e+00  0.00000000e+00
  0.00000000e+00  0.00000000e+00 -5.13719531e-06  1.83965845e-06
  0.00000000e+00  0.00000000e+00  0.00000000e+00  4.19129498e-06]","[[-0.00119056  0.01154043]
 [ 0.00012723 -0.02334751]]",[],0.0,0.0
1787304633.243072,1.4157648391112356,-0.5215318255456256,0.25039180690357155,"[ 4.76770763e-05 -5.46865041e-06  0.00000000e+00  0.00000000e+00
  0.00000000e+00 -5.13719531e-06 -5.46865041e-06  3.94846974e-05
  0.00000000e+00  0.00000000e+00  0.00000000e+00  1.83965845e-06
  0.00000000e+00  0.00000000e+00  0.00000000e+00  0.00000000e+00
  0.00000000e+00  0.00000000e+00  0.00000000e+00  0.00000000e+00
  0.00000000e+00  0.00000000e+00  0.00000000e+00  0.00000000e+00
  0.00000000e+00  0.00000000e+00  0.00000000e+00  0.00000000e+00
  0.00000000e+00  0.00000000e+00 -5.13719531e-06  1.83965845e-06
  0.00000000e+00  0.00000000e+00  0.00000000e+00  4.19129498e-06]","[[-0.00119056  0.01154043]
 [ 0.00012723 -0.02334751]]",[],0.0,0.0
1787304633.2936907,1.4157648391112356,-0.5215318255456256,0.25039180690357155,"[ 4.76770763e-05 -5.46865041e-06  0.00000000e+00  0.00000000e+00
  0.00000000e+00 -5.13719531e-06 -5.46865041e-06  3.94846974e-05
  0.00000000e+00  0.00000000e+00  0.00000000e+00  1.83965845e-06
  0.00000000e+00  0.00000000e+00  0.00000000e+00  0.00000000e+00
  0.00000000e+00  0.00000000e+00  0.00000000e+00  0.00000000e+00
  0.00000000e+00  0.00000000e+00  0.00000000e+00  0.00000000e+00
  0.00000000e+00  0.00000000e+00  0.00000000e+00  0.00000000e+00
  0.00000000e+00  0.00000000e+00 -5.13719531e-06  1.83965845e-06
  0.00000000e+00  0.00000000e+00  0.00000000e+00  4.19129498e-06]","[[-0.00119056  0.01154043]
 [ 0.00012723 -0.02334751]]",[],0.0,0.0
1787304633.3524396,1.4157648391112356,-0.5215318255456256,0.25039180690357155,"[ 4.76770763e-05 -5.46865041e-06  0.00000000e+00  0.00000000e+00
  0.00000000e+00 -5.13719531e-06 -5.46865041e-06  3.94846974e-05
  0.00000000e+00  0.00000000e+00  0.00000000e+00  1.83965845e-06
  0.00000000e+00  0.00000000e+00  0.00000000e+00  0.00000000e+00
  0.00000000e+00  0.00000000e+00  0.00000000e+00  0.00000000e+00
  0.00000000e+00  0.00000000e+00  0.00000000e+00  0.00000000e+00
  0.00000000e+00  0.00000000e+00  0.00000000e+00  0.00000000e+00
  0.00000000e+00  0.00000000e+00 -5.13719531e-06  1.83965845e-06
  0.00000000e+00  0.00000000e+00  0.00000000e+00  4.19129498e-06]","[[-0.00119056  0.01154043]
 [ 0.00012723 -0.02334751]]",[],0.0,0.0
1787304633.3970406,1.4157648391112356,-0.5215318255456256,0.25039180690357155,"[ 4.76770763e-05 -5.46865041e-06  0.00000000e+00  0.00000000e+00
  0.00000000e+00 -5.13719531e-06 -5.46865041e-06  3.94846974e-05
  0.00000000e+00  0.00000000e+00  0.00000000e+00  1.83965845e-06
  0.00000000e+00  0.00000000e+00  0.00000000e+00  0.00000000e+00
  0.00000000e+00  0.00000000e+00  0.00000000e+00  0.00000000e+00
  0.00000000e+00  0.00000000e+00  0.00000000e+00  0.00000000e+00
  0.00000000e+00  0.00000000e+00  0.00000000e+00  0.00000000e+00
  0.00000000e+00  0.00000000e+00 -5.13719531e-06  1.83965845e-06
  0.00000000e+00  0.00000000e+00  0.00000000e+00  4.19129498e-06]","[[-0.00119056  0.01154043]
 [ 0.00012723 -0.02334751]]",[],0.0,0.0
1787304633.445716,1.4157648391112356,-0.5215318255456256,0.25039180690357155,"[ 4.76770763e-05 -5.46865041e-06  0.00000000e+00  0.00000000e+00
  0.00000000e+00 -5.13719531e-06 -5.46865041e-06  3.94846974e-05
  0.00000000e+00  0.00000000e+00  0.00000000e+00  1.83965845e-06
  0.00000000e+00  0.00000000e+00  0.00000000e+00  0.00000000e+00
  0.00000000e+00  0.00000000e+00  0.00000000e+00  0.00000000e+00
  0.00000000e+00  0.00000000e+00  0.00000000e+00  0.00000000e+00
  0.00000000e+00  0.00000000e+00  0.00000000e+00  0.00000000e+00
  0.00000000e+00  0.00000000e+00 -5.13719531e-06  1.83965845e-06
  0.00000000e+00  0.00000000e+00  0.00000000e+00  4.19129498e-06]","[[-0.00119056  0.01154043]
 [ 0.00012723 -0.02334751]]",[],0.0,0.0
1787304633.492817,1.4157648391112356,-0.5215318255456256,0.25039180690357155,"[ 4.76770763e-05 -5.46865041e-06  0.00000000e+00  0.00000000e+00
  0.00000000e+00 -5.13719531e-06 -5.46865041e-06  3.94846974e-05
  0.00000000e+00  0.00000000e+00  0.00000000e+00  1.83965845e-06
  0.00000000e+00  0.00000000e+00  0.00000000e+00  0.00000000e+00
  0.00000000e+00  0.00000000e+00  0.00000000e+00  0.00000000e+00
  0.00000000e+00  0.00000000e+00  0.00000000e+00  0.00000000e+00
  0.00000000e+00  0.00000000e+00  0.00000000e+00  0.00000000e+00
  0.00000000e+00  0.00000000e+00 -5.13719531e-06  1.83965845e-06
  0.00000000e+00  0.00000000e+00  0.00000000e+00  4.19129498e-06]","[[-0.00119056  0.01154043]
 [ 0.00012723 -0.02334751]]",[],0.0,0.0
1787304633.5464349,1.4157648391112356,-0.5215318255456256,0.25039180690357155,"[ 4.76770763e-05 -5.46865041e-06  0.00000000e+00  0.00000000e+00
  0.00000000e+00 -5.13719531e-06 -5.46865041e-06  3.94846974e-05
  0.00000000e+00  0.00000000e+00  0.00000000e+00  1.83965845e-06
  0.00000000e+00  0.00000000e+00  0.00000000e+00  0.00000000e+00
  0.00000000e+00  0.00000000e+00  0.00000000e+00  0.00000000e+00
  0.00000000e+00  0.00000000e+00  0.00000000e+00  0.00000000e+00
  0.00000000e+00  0.00000000e+00  0.00000000e+00  0.00000000e+00
  0.00000000e+00  0.00000000e+00 -5.13719531e-06  1.83965845e-06
  0.00000000e+00  0.00000000e+00  0.00000000e+00  4.19129498e-06]","[[-0.00119056  0.01154043]
 [ 0.00012723 -0.02334751]]",[],0.0,0.0
1787304633.5958457,1.4157648391112356,-0.5215318255456256,0.25039180690357155,"[ 4.76770763e-05 -5.46865041e-06  0.00000000e+00  0.00000000e+00
  0.00000000e+00 -5.13719531e-06 -5.46865041e-06  3.94846974e-05
  0.00000000e+00  0.00000000e+00  0.00000000e+00  1.83965845e-06
  0.00000000e+00  0.00000000e+00  0.00000000e+00  0.00000000e+00
  0.00000000e+00  0.00000000e+00  0.00000000e+00  0.00000000e+00
  0.00000000e+00  0.00000000e+00  0.00000000e+00  0.00000000e+00
  0.00000000e+00  0.00000000e+00  0.00000000e+00  0.00000000e+00
  0.00000000e+00  0.00000000e+00 -5.13719531e-06  1.83965845e-06
  0.00000000e+00  0.00000000e+00  0.00000000e+00  4.19129498e-06]","[[-0.00119056  0.01154043]
 [ 0.00012723 -0.02334751]]",[],0.0,0.0
1787304633.6505127,1.4157648391112356,-0.5215318255456256,0.25039180690357155,"[ 4.76770763e-05 -5.46865041e-06  0.00000000e+00  0.00000000e+00
  0.00000000e+00 -5.13719531e-06 -5.46865041e-06  3.94846974e-05
  0.00000000e+00  0.00000000e+00  0.00000000e+00  1.83965845e-06
  0.00000000e+00  0.00000000e+00  0.00000000e+00  0.00000000e+00
  0.00000000e+00  0.00000000e+00  0.00000000e+00  0.00000000e+00
  0.00000000e+00  0.00000000e+00  0.00000000e+00  0.00000000e+00
  0.00000000e+00  0.00000000e+00  0.00000000e+00  0.00000000e+00
  0.00000000e+00  0.00000000e+00 -5.13719531e-06  1.83965845e-06
  0.00000000e+00  0.00000000e+00  0.00000000e+00  4.19129498e-06]","[[-0.00119056  0.01154043]
 [ 0.00012723 -0.02334751]]",[],0.0,0.0
1787304633.7117498,1.4157648391112356,-0.5215318255456256,0.25039180690357155,"[ 4.76770763e-05 -5.46865041e-06  0.00000000e+00  0.00000000e+00
  0.00000000e+00 -5.13719531e-06 -5.46865041e-06  3.94846974e-05
  0.00000000e+00  0.00000000e+00  0.00000000e+00  1.83965845e-06
  0.00000000e+00  0.00000000e+00  0.00000000e+00  0.00000000e+00
  0.00000000e+00  0.00000000e+00  0.00000000e+00  0.00000000e+00
  0.00000000e+00  0.00000000e+00  0.00000000e+00  0.00000000e+00
  0.00000000e+00  0.00000000e+00  0.00000000e+00  0.00000000e+00
  0.00000000e+00  0.00000000e+00 -5.13719531e-06  1.83965845e-06
  0.00000000e+00  0.00000000e+00  0.00000000e+00  4.19129498e-06]","[[-0.00119056  0.01154043]
 [ 0.00012723 -0.02334751]]",[],0.0,0.0
1787304633.7654982,1.4157648391112356,-0.5215318255456256,0.25039180690357155,"[ 4.76770763e-05 -5.46865041e-06  0.00000000e+00  0.00000000e+00
  0.00000000e+00 -5.13719531e-06 -5.46865041e-06  3.94846974e-05
  0.00000000e+00  0.00000000e+00  0.00000000e+00  1.83965845e-06
  0.00000000e+00  0.00000000e+00  0.00000000e+00  0.00000000e+00
  0.00000000e+00  0.00000000e+00  0.00000000e+00  0.00000000e+00
  0.00000000e+00  0.00000000e+00  0.00000000e+00  0.00000000e+00
  0.00000000e+00  0.00000000e+00  0.00000000e+00  0.00000000e+00
  0.00000000e+00  0.00000000e+00 -5.13719531e-06  1.83965845e-06
  0.00000000e+00  0.00000000e+00  0.00000000e+00  4.19129498e-06]","[[-0.00119056  0.01154043]
 [ 0.00012723 -0.02334751]]",[],0.0,0.0
1787304633.7926817,1.4157648391112356,-0.5215318255456256,0.25039180690357155,"[ 4.76770763e-05 -5.46865041e-06  0.00000000e+00  0.00000000e+00
  0.00000000e+00 -5.13719531e-06 -5.46865041e-06  3.94846974e-05
  0.00000000e+00  0.00000000e+00  0.00000000e+00  1.83965845e-06
  0.00000000e+00  0.00000000e+00  0.00000000e+00  0.00000000e+00
  0.00000000e+00  0.00000000e+00  0.00000000e+00  0.00000000e+00
  0.00000000e+00  0.00000000e+00  0.00000000e+00  0.00000000e+00
  0.00000000e+00  0.00000000e+00  0.00000000e+00  0.00000000e+00
  0.00000000e+00  0.00000000e+00 -5.13719531e-06  1.83965845e-06
  0.00000000e+00  0.00000000e+00  0.00000000e+00  4.19129498e-06]","[[-0.00119056  0.01154043]
 [ 0.00012723 -0.02334751]]",[],0.0,0.0
1787304633.8507214,1.4157648391112356,-0.5215318255456256,0.25039180690357155,"[ 4.76770763e-05 -5.46865041e-06  0.00000000e+00  0.00000000e+00
  0.00000000e+00 -5.13719531e-06 -5.46865041e-06  3.94846974e-05
  0.00000000e+00  0.00000000e+00  0.00000000e+00  1.83965845e-06
  0.00000000e+00  0.00000000e+00  0.00000000e+00  0.00000000e+00
  0.00000000e+00  0.00000000e+00  0.00000000e+00  0.00000000e+00
  0.00000000e+00  0.00000000e+00  0.00000000e+00  0.00000000e+00
  0.00000000e+00  0.00000000e+00  0.00000000e+00  0.00000000e+00
  0.00000000e+00  0.00000000e+00 -5.13719531e-06  1.83965845e-06
  0.00000000e+00  0.00000000e+00  0.00000000e+00  4.19129498e-06]","[[-0.00119056  0.01154043]
 [ 0.00012723 -0.02334751]]",[],0.0,0.0
1787304633.9049191,1.4157648391112356,-0.5215318255456256,0.25039180690357155,"[ 4.76770763e-05 -5.46865041e-06  0.00000000e+00  0.00000000e+00
  0.00000000e+00 -5.13719531e-06 -5.46865041e-06  3.94846974e-05
  0.00000000e+00  0.00000000e+00  0.00000000e+00  1.83965845e-06
  0.00000000e+00  0.00000000e+00  0.00000000e+00  0.00000000e+00
  0.00000000e+00  0.00000000e+00  0.00000000e+00  0.00000000e+00
  0.00000000e+00  0.00000000e+00  0.00000000e+00  0.00000000e+00
  0.00000000e+00  0.00000000e+00  0.00000000e+00  0.00000000e+00
  0.00000000e+00  0.00000000e+00 -5.13719531e-06  1.83965845e-06
  0.00000000e+00  0.00000000e+00  0.00000000e+00  4.19129498e-06]","[[-0.00119056  0.01154043]
 [ 0.00012723 -0.02334751]]",[],0.0,0.0
1787304633.9445431,1.4157648391112356,-0.5215318255456256,0.25039180690357155,"[ 4.76770763e-05 -5.46865041e-06  0.00000000e+00  0.00000000e+00
  0.00000000e+00 -5.13719531e-06 -5.46865041e-06  3.94846974e-05
  0.00000000e+00  0.00000000e+00  0.00000000e+00  1.83965845e-06
  0.00000000e+00  0.00000000e+00  0.00000000e+00  0.00000000e+00
  0.00000000e+00  0.00000000e+00  0.00000000e+00  0.00000000e+00
  0.00000000e+00  0.00000000e+00  0.00000000e+00  0.00000000e+00
  0.00000000e+00  0.00000000e+00  0.00000000e+00  0.00000000e+00
  0.00000000e+00  0.00000000e+00 -5.13719531e-06  1.83965845e-06
  0.00000000e+00  0.00000000e+00  0.00000000e+00  4.19129498e-06]","[[-0.00119056  0.01154043]
 [ 0.00012723 -0.02334751]]",[],0.0,0.0
1787304633.9930003,1.4157648391112356,-0.5215318255456256,0.25039180690357155,"[ 4.76770763e-05 -5.46865041e-06  0.00000000e+00  0.00000000e+00
  0.00000000e+00 -5.13719531e-06 -5.46865041e-06  3.94846974e-05
  0.00000000e+00  0.00000000e+00  0.00000000e+00  1.83965845e-06
  0.00000000e+00  0.00000000e+00  0.00000000e+00  0.00000000e+00
  0.00000000e+00  0.00000000e+00  0.00000000e+00  0.00000000e+00
  0.00000000e+00  0.00000000e+00  0.00000000e+00  0.00000000e+00
  0.00000000e+00  0.00000000e+00  0.00000000e+00  0.00000000e+00
  0.00000000e+00  0.00000000e+00 -5.13719531e-06  1.83965845e-06
  0.00000000e+00  0.00000000e+00  0.00000000e+00  4.19129498e-06]","[[-0.00119056  0.01154043]
 [ 0.00012723 -0.02334751]]",[],0.0,0.0
1787304634.0463858,1.4157648391112356,-0.5215318255456256,0.25039180690357155,"[ 4.76770763e-05 -5.46865041e-06  0.00000000e+00  0.00000000e+00
  0.00000000e+00 -5.13719531e-06 -5.46865041e-06  3.94846974e-05
  0.00000000e+00  0.00000000e+00  0.00000000e+00  1.83965845e-06
  0.00000000e+00  0.00000000e+00  0.00000000e+00  0.00000000e+00
  0.00000000e+00  0.00000000e+00  0.00000000e+00  0.00000000e+00
  0.00000000e+00  0.00000000e+00  0.00000000e+00  0.00000000e+00
  0.00000000e+00  0.00000000e+00  0.00000000e+00  0.00000000e+00
  0.00000000e+00  0.00000000e+00 -5.13719531e-06  1.83965845e-06
  0.00000000e+00  0.00000000e+00  0.00000000e+00  4.19129498e-06]","[[-0.00119056  0.01154043]
 [ 0.00012723 -0.02334751]]",[],0.0,0.0
1787304634.092702,1.4157648391112356,-0.5215318255456256,0.25039180690357155,"[ 4.76770763e-05 -5.46865041e-06  0.00000000e+00  0.00000000e+00
  0.00000000e+00 -5.13719531e-06 -5.46865041e-06  3.94846974e-05
  0.00000000e+00  0.00000000e+00  0.00000000e+00  1.83965845e-06
  0.00000000e+00  0.00000000e+00  0.00000000e+00  0.00000000e+00
  0.00000000e+00  0.00000000e+00  0.00000000e+00  0.00000000e+00
  0.00000000e+00  0.00000000e+00  0.00000000e+00  0.00000000e+00
  0.00000000e+00  0.00000000e+00  0.00000000e+00  0.00000000e+00
  0.00000000e+00  0.00000000e+00 -5.13719531e-06  1.83965845e-06
  0.00000000e+00  0.00000000e+00  0.00000000e+00  4.19129498e-06]","[[-0.00119056  0.01154043]
 [ 0.00012723 -0.02334751]]",[],0.0,0.0
1787304634.1442358,1.4157648391112356,-0.5215318255456256,0.25039180690357155,"[ 4.76770763e-05 -5.46865041e-06  0.00000000e+00  0.00000000e+00
  0.00000000e+00 -5.13719531e-06 -5.46865041e-06  3.94846974e-05
  0.00000000e+00  0.00000000e+00  0.00000000e+00  1.83965845e-06
  0.00000000e+00  0.00000000e+00  0.00000000e+00  0.00000000e+00
  0.00000000e+00  0.00000000e+00  0.00000000e+00  0.00000000e+00
  0.00000000e+00  0.00000000e+00  0.00000000e+00  0.00000000e+00
  0.00000000e+00  0.00000000e+00  0.00000000e+00  0.00000000e+00
  0.00000000e+00  0.00000000e+00 -5.13719531e-06  1.83965845e-06
  0.00000000e+00  0.00000000e+00  0.00000000e+00  4.19129498e-06]","[[-0.00119056  0.01154043]
 [ 0.00012723 -0.02334751]]",[],0.0,0.0
1787304634.1929147,1.4157648391112356,-0.5215318255456256,0.25039180690357155,"[ 4.76770763e-05 -5.46865041e-06  0.00000000e+00  0.00000000e+00
  0.00000000e+00 -5.13719531e-06 -5.46865041e-06  3.94846974e-05
  0.00000000e+00  0.00000000e+00  0.00000000e+00  1.83965845e-06
  0.00000000e+00  0.00000000e+00  0.00000000e+00  0.00000000e+00
  0.00000000e+00  0.00000000e+00  0.00000000e+00  0.00000000e+00
  0.00000000e+00  0.00000000e+00  0.00000000e+00  0.00000000e+00
  0.00000000e+00  0.00000000e+00  0.00000000e+00  0.00000000e+00
  0.00000000e+00  0.00000000e+00 -5.13719531e-06  1.83965845e-06
  0.00000000e+00  0.00000000e+00  0.00000000e+00  4.19129498e-06]","[[-0.00119056  0.01154043]
 [ 0.00012723 -0.02334751]]",[],0.0,0.0
1787304634.2464492,1.4157648391112356,-0.5215318255456256,0.25039180690357155,"[ 4.76770763e-05 -5.46865041e-06  0.00000000e+00  0.00000000e+00
  0.00000000e+00 -5.13719531e-06 -5.46865041e-06  3.94846974e-05
  0.00000000e+00  0.00000000e+00  0.00000000e+00  1.83965845e-06
  0.00000000e+00  0.00000000e+00  0.00000000e+00  0.00000000e+00
  0.00000000e+00  0.00000000e+00  0.00000000e+00  0.00000000e+00
  0.00000000e+00  0.00000000e+00  0.00000000e+00  0.00000000e+00
  0.00000000e+00  0.00000000e+00  0.00000000e+00  0.00000000e+00
  0.00000000e+00  0.00000000e+00 -5.13719531e-06  1.83965845e-06
  0.00000000e+00  0.00000000e+00  0.00000000e+00  4.19129498e-06]","[[-0.00119056  0.01154043]
 [ 0.00012723 -0.02334751]]",[],0.0,0.0
1787304634.292486,1.4157648391112356,-0.5215318255456256,0.25039180690357155,"[ 4.76770763e-05 -5.46865041e-06  0.00000000e+00  0.00000000e+00
  0.00000000e+00 -5.13719531e-06 -5.46865041e-06  3.94846974e-05
  0.00000000e+00  0.00000000e+00  0.00000000e+00  1.83965845e-06
  0.00000000e+00  0.00000000e+00  0.00000000e+00  0.00000000e+00
  0.00000000e+00  0.00000000e+00  0.00000000e+00  0.00000000e+00
  0.00000000e+00  0.00000000e+00  0.00000000e+00  0.00000000e+00
  0.00000000e+00  0.00000000e+00  0.00000000e+00  0.00000000e+00
  0.00000000e+00  0.00000000e+00 -5.13719531e-06  1.83965845e-06
  0.00000000e+00  0.00000000e+00  0.00000000e+00  4.19129498e-06]","[[-0.00119056  0.01154043]
 [ 0.00012723 -0.02334751]]",[],0.0,0.0
1787304634.3473413,1.4157648391112356,-0.5215318255456256,0.25039180690357155,"[ 4.76770763e-05 -5.46865041e-06  0.00000000e+00  0.00000000e+00
  0.00000000e+00 -5.13719531e-06 -5.46865041e-06  3.94846974e-05
  0.00000000e+00  0.00000000e+00  0.00000000e+00  1.83965845e-06
  0.00000000e+00  0.00000000e+00  0.00000000e+00  0.00000000e+00
  0.00000000e+00  0.00000000e+00  0.00000000e+00  0.00000000e+00
  0.00000000e+00  0.00000000e+00  0.00000000e+00  0.00000000e+00
  0.00000000e+00  0.00000000e+00  0.00000000e+00  0.00000000e+00
  0.00000000e+00  0.00000000e+00 -5.13719531e-06  1.83965845e-06
  0.00000000e+00  0.00000000e+00  0.00000000e+00  4.19129498e-06]","[[-0.00119056  0.01154043]
 [ 0.00012723 -0.02334751]]",[],0.0,0.0
1787304634.3922257,1.4157648391112356,-0.5215318255456256,0.25039180690357155,"[ 4.76770763e-05 -5.46865041e-06  0.00000000e+00  0.00000000e+00
  0.00000000e+00 -5.13719531e-06 -5.46865041e-06  3.94846974e-05
  0.00000000e+00  0.00000000e+00  0.00000000e+00  1.83965845e-06
  0.00000000e+00  0.00000000e+00  0.00000000e+00  0.00000000e+00
  0.00000000e+00  0.00000000e+00  0.00000000e+00  0.00000000e+00
  0.00000000e+00  0.00000000e+00  0.00000000e+00  0.00000000e+00
  0.00000000e+00  0.00000000e+00  0.00000000e+00  0.00000000e+00
  0.00000000e+00  0.00000000e+00 -5.13719531e-06  1.83965845e-06
  0.00000000e+00  0.00000000e+00  0.00000000e+00  4.19129498e-06]","[[-0.00119056  0.01154043]
 [ 0.00012723 -0.02334751]]",[],0.0,0.0
1787304634.4461656,1.480375411009219,-0.49249702819500213,0.28622967551463496,"[ 2.31517470e-05 -2.09112445e-06  0.00000000e+00  0.00000000e+00
  0.00000000e+00 -1.40557994e-06 -2.09112445e-06  1.99352889e-05
  0.00000000e+00  0.00000000e+00  0.00000000e+00  4.23223130e-07
  0.00000000e+00  0.00000000e+00  0.00000000e+00  0.00000000e+00
  0.00000000e+00  0.00000000e+00  0.00000000e+00  0.00000000e+00
  0.00000000e+00  0.00000000e+00  0.00000000e+00  0.00000000e+00
  0.00000000e+00  0.00000000e+00  0.00000000e+00  0.00000000e+00
  0.00000000e+00  0.00000000e+00 -1.40557994e-06  4.23223130e-07
  0.00000000e+00  0.00000000e+00  0.00000000e+00  3.13436055e-06]","[[-5.58933245e-04  5.59898602e-03]
 [-4.14481577e-05 -1.09740945e-02]]",[],0.0,0.0
1787304634.4974039,1.480375411009219,-0.49249702819500213,0.28622967551463496,"[ 2.31517470e-05 -2.09112445e-06  0.00000000e+00  0.00000000e+00
  0.00000000e+00 -1.40557994e-06 -2.09112445e-06  1.99352889e-05
  0.00000000e+00  0.00000000e+00  0.00000000e+00  4.23223130e-07
  0.00000000e+00  0.00000000e+00  0.00000000e+00  0.00000000e+00
  0.00000000e+00  0.00000000e+00  0.00000000e+00  0.00000000e+00
  0.00000000e+00  0.00000000e+00  0.00000000e+00  0.00000000e+00
  0.00000000e+00  0.00000000e+00  0.00000000e+00  0.00000000e+00
  0.00000000e+00  0.00000000e+00 -1.40557994e-06  4.23223130e-07
  0.00000000e+00  0.00000000e+00  0.00000000e+00  3.13436055e-06]","[[-5.58933245e-04  5.59898602e-03]
 [-4.14481577e-05 -1.09740945e-02]]",[],0.0,0.0
1787304634.5465777,1.480375411009219,-0.49249702819500213,0.28622967551463496,"[ 2.31517470e-05 -2.09112445e-06  0.00000000e+00  0.00000000e+00
  0.00000000e+00 -1.40557994e-06 -2.09112445e-06  1.99352889e-05
  0.00000000e+00  0.00000000e+00  0.00000000e+00  4.23223130e-07
  0.00000000e+00  0.00000000e+00  0.00000000e+00  0.00000000e+00
  0.00000000e+00  0.00000000e+00  0.00000000e+00  0.00000000e+00
  0.00000000e+00  0.00000000e+00  0.00000000e+00  0.00000000e+00
  0.00000000e+00  0.00000000e+00  0.00000000e+00  0.00000000e+00
  0.00000000e+00  0.00000000e+00 -1.40557994e-06  4.23223130e-07
  0.00000000e+00  0.00000000e+00  0.00000000e+00  3.13436055e-06]","[[-5.58933245e-04  5.59898602e-03]
 [-4.14481577e-05 -1.09740945e-02]]",[],0.0,0.0
1787304634.592601,1.480375411009219,-0.49249702819500213,0.28622967551463496,"[ 2.31517470e-05 -2.09112445e-06  0.00000000e+00  0.00000000e+00
  0.00000000e+00 -1.40557994e-06 -2.09112445e-06  1.99352889e-05
  0.00000000e+00  0.00000000e+00  0.00000000e+00  4.23223130e-07
  0.00000000e+00  0.00000000e+00  0.00000000e+00  0.00000000e+00
  0.00000000e+00  0.00000000e+00  0.00000000e+00  0.00000000e+00
  0.00000000e+00  0.00000000e+00  0.00000000e+00  0.00000000e+00
  0.00000000e+00  0.00000000e+00  0.00000000e+00  0.00000000e+00
  0.00000000e+00  0.00000000e+00 -1.40557994e-06  4.23223130e-07
  0.00000000e+00  0.00000000e+00  0.00000000e+00  3.13436055e-06]","[[-5.58933245e-04  5.59898602e-03]
 [-4.14481577e-05 -1.09740945e-02]]",[],0.0,0.0
1787304634.642202,1.480375411009219,-0.49249702819500213,0.28622967551463496,"[ 2.31517470e-05 -2.09112445e-06  0.00000000e+00  0.00000000e+00
  0.00000000e+00 -1.40557994e-06 -2.09112445e-06  1.99352889e-05
  0.00000000e+00  0.00000000e+00  0.00000000e+00  4.23223130e-07
  0.00000000e+00  0.00000000e+00  0.00000000e+00  0.00000000e+00
  0.00000000e+00  0.00000000e+00  0.00000000e+00  0.00000000e+00
  0.00000000e+00  0.00000000e+00  0.00000000e+00  0.00000000e+00
  0.00000000e+00  0.00000000e+00  0.00000000e+00  0.00000000e+00
  0.00000000e+00  0.00000000e+00 -1.40557994e-06  4.23223130e-07
  0.00000000e+00  0.00000000e+00  0.00000000e+00  3.13436055e-06]","[[-5.58933245e-04  5.59898602e-03]
 [-4.14481577e-05 -1.09740945e-02]]",[],0.0,0.0
1787304634.6982582,1.480375411009219,-0.49249702819500213,0.28622967551463496,"[ 2.31517470e-05 -2.09112445e-06  0.00000000e+00  0.00000000e+00
  0.00000000e+00 -1.40557994e-06 -2.09112445e-06  1.99352889e-05
  0.00000000e+00  0.00000000e+00  0.00000000e+00  4.23223130e-07
  0.00000000e+00  0.00000000e+00  0.00000000e+00  0.00000000e+00
  0.00000000e+00  0.00000000e+00  0.00000000e+00  0.00000000e+00
  0.00000000e+00  0.00000000e+00  0.00000000e+00  0.00000000e+00
  0.00000000e+00  0.00000000e+00  0.00000000e+00  0.00000000e+00
  0.00000000e+00  0.00000000e+00 -1.40557994e-06  4.23223130e-07
  0.00000000e+00  0.00000000e+00  0.00000000e+00  3.13436055e-06]","[[-5.58933245e-04  5.59898602e-03]
 [-4.14481577e-05 -1.09740945e-02]]",[],0.0,0.0
1787304634.7491188,1.480375411009219,-0.49249702819500213,0.28622967551463496,"[ 2.31517470e-05 -2.09112445e-06  0.00000000e+00  0.00000000e+00
  0.00000000e+00 -1.40557994e-06 -2.09112445e-06  1.99352889e-05
  0.00000000e+00  0.00000000e+00  0.00000000e+00  4.23223130e-07
  0.00000000e+00  0.00000000e+00  0.00000000e+00  0.00000000e+00
  0.00000000e+00  0.00000000e+00  0.00000000e+00  0.00000000e+00
  0.00000000e+00  0.00000000e+00  0.00000000e+00  0.00000000e+00
  0.00000000e+00  0.00000000e+00  0.00000000e+00  0.00000000e+00
  0.00000000e+00  0.00000000e+00 -1.40557994e-06  4.23223130e-07
  0.00000000e+00  0.00000000e+00  0.00000000e+00  3.13436055e-06]","[[-5.58933245e-04  5.59898602e-03]
 [-4.14481577e-05 -1.09740945e-02]]",[],0.0,0.0
1787304634.7933989,1.480375411009219,-0.49249702819500213,0.28622967551463496,"[ 2.31517470e-05 -2.09112445e-06  0.00000000e+00  0.00000000e+00
  0.00000000e+00 -1.40557994e-06 -2.09112445e-06  1.99352889e-05
  0.00000000e+00  0.00000000e+00  0.00000000e+00  4.23223130e-07
  0.00000000e+00  0.00000000e+00  0.00000000e+00  0.00000000e+00
  0.00000000e+00  0.00000000e+00  0.00000000e+00  0.00000000e+00
  0.00000000e+00  0.00000000e+00  0.00000000e+00  0.00000000e+00
  0.00000000e+00  0.00000000e+00  0.00000000e+00  0.00000000e+00
  0.00000000e+00  0.00000000e+00 -1.40557994e-06  4.23223130e-07
  0.00000000e+00  0.00000000e+00  0.00000000e+00  3.13436055e-06]","[[-5.58933245e-04  5.59898602e-03]
 [-4.14481577e-05 -1.09740945e-02]]",[],0.0,0.0
1787304634.8421924,1.480375411009219,-0.49249702819500213,0.28622967551463496,"[ 2.31517470e-05 -2.09112445e-06  0.00000000e+00  0.00000000e+00
  0.00000000e+00 -1.40557994e-06 -2.09112445e-06  1.99352889e-05
  0.00000000e+00  0.00000000e+00  0.00000000e+00  4.23223130e-07
  0.00000000e+00  0.00000000e+00  0.00000000e+00  0.00000000e+00
  0.00000000e+00  0.00000000e+00  0.00000000e+00  0.00000000e+00
  0.00000000e+00  0.00000000e+00  0.00000000e+00  0.00000000e+00
  0.00000000e+00  0.00000000e+00  0.00000000e+00  0.00000000e+00
  0.00000000e+00  0.00000000e+00 -1.40557994e-06  4.23223130e-07
  0.00000000e+00  0.00000000e+00  0.00000000e+00  3.13436055e-06]","[[-5.58933245e-04  5.59898602e-03]
 [-4.14481577e-05 -1.09740945e-02]]",[],0.0,0.0
1787304634.8925464,1.480375411009219,-0.49249702819500213,0.28622967551463496,"[ 2.31517470e-05 -2.09112445e-06  0.00000000e+00  0.00000000e+00
  0.00000000e+00 -1.40557994e-06 -2.09112445e-06  1.99352889e-05
  0.00000000e+00  0.00000000e+00  0.00000000e+00  4.23223130e-07
  0.00000000e+00  0.00000000e+00  0.00000000e+00  0.00000000e+00
  0.00000000e+00  0.00000000e+00  0.00000000e+00  0.00000000e+00
  0.00000000e+00  0.00000000e+00  0.00000000e+00  0.00000000e+00
  0.00000000e+00  0.00000000e+00  0.00000000e+00  0.00000000e+00
  0.00000000e+00  0.00000000e+00 -1.40557994e-06  4.23223130e-07
  0.00000000e+00  0.00000000e+00  0.00000000e+00  3.13436055e-06]","[[-5.58933245e-04  5.59898602e-03]
 [-4.14481577e-05 -1.09740945e-02]]",[],0.0,0.0
1787304634.9422863,1.480375411009219,-0.49249702819500213,0.28622967551463496,"[ 2.31517470e-05 -2.09112445e-06  0.00000000e+00  0.00000000e+00
  0.00000000e+00 -1.40557994e-06 -2.09112445e-06  1.99352889e-05
  0.00000000e+00  0.00000000e+00  0.00000000e+00  4.23223130e-07
  0.00000000e+00  0.00000000e+00  0.00000000e+00  0.00000000e+00
  0.00000000e+00  0.00000000e+00  0.00000000e+00  0.00000000e+00
  0.00000000e+00  0.00000000e+00  0.00000000e+00  0.00000000e+00
  0.00000000e+00  0.00000000e+00  0.00000000e+00  0.00000000e+00
  0.00000000e+00  0.00000000e+00 -1.40557994e-06  4.23223130e-07
  0.00000000e+00  0.00000000e+00  0.00000000e+00  3.13436055e-06]","[[-5.58933245e-04  5.59898602e-03]
 [-4.14481577e-05 -1.09740945e-02]]",[],0.0,0.0
1787304635.002935,1.480375411009219,-0.49249702819500213,0.28622967551463496,"[ 2.31517470e-05 -2.09112445e-06  0.00000000e+00  0.00000000e+00
  0.00000000e+00 -1.40557994e-06 -2.09112445e-06  1.99352889e-05
  0.00000000e+00  0.00000000e+00  0.00000000e+00  4.23223130e-07
  0.00000000e+00  0.00000000e+00  0.00000000e+00  0.00000000e+00
  0.00000000e+00  0.00000000e+00  0.00000000e+00  0.00000000e+00
  0.00000000e+00  0.00000000e+00  0.00000000e+00  0.00000000e+00
  0.00000000e+00  0.00000000e+00  0.00000000e+00  0.00000000e+00
  0.00000000e+00  0.00000000e+00 -1.40557994e-06  4.23223130e-07
  0.00000000e+00  0.00000000e+00  0.00000000e+00  3.13436055e-06]","[[-5.58933245e-04  5.59898602e-03]
 [-4.14481577e-05 -1.09740945e-02]]",[],0.0,0.0
1787304635.0574849,1.480375411009219,-0.49249702819500213,0.28622967551463496,"[ 2.31517470e-05 -2.09112445e-06  0.00000000e+00  0.00000000e+00
  0.00000000e+00 -1.40557994e-06 -2.09112445e-06  1.99352889e-05
  0.00000000e+00  0.00000000e+00  0.00000000e+00  4.23223130e-07
  0.00000000e+00  0.00000000e+00  0.00000000e+00  0.00000000e+00
  0.00000000e+00  0.00000000e+00  0.00000000e+00  0.00000000e+00
  0.00000000e+00  0.00000000e+00  0.00000000e+00  0.00000000e+00
  0.00000000e+00  0.00000000e+00  0.00000000e+00  0.00000000e+00
  0.00000000e+00  0.00000000e+00 -1.40557994e-06  4.23223130e-07
  0.00000000e+00  0.00000000e+00  0.00000000e+00  3.13436055e-06]","[[-5.58933245e-04  5.59898602e-03]
 [-4.14481577e-05 -1.09740945e-02]]",[],0.0,0.0
1787304635.1132476,1.480375411009219,-0.49249702819500213,0.28622967551463496,"[ 2.31517470e-05 -2.09112445e-06  0.00000000e+00  0.00000000e+00
  0.00000000e+00 -1.40557994e-06 -2.09112445e-06  1.99352889e-05
  0.00000000e+00  0.00000000e+00  0.00000000e+00  4.23223130e-07
  0.00000000e+00  0.00000000e+00  0.00000000e+00  0.00000000e+00
  0.00000000e+00  0.00000000e+00  0.00000000e+00  0.00000000e+00
  0.00000000e+00  0.00000000e+00  0.00000000e+00  0.00000000e+00
  0.00000000e+00  0.00000000e+00  0.00000000e+00  0.00000000e+00
  0.00000000e+00  0.00000000e+00 -1.40557994e-06  4.23223130e-07
  0.00000000e+00  0.00000000e+00  0.00000000e+00  3.13436055e-06]","[[-5.58933245e-04  5.59898602e-03]
 [-4.14481577e-05 -1.09740945e-02]]",[],0.0,0.0
1787304635.1522348,1.480375411009219,-0.49249702819500213,0.28622967551463496,"[ 2.31517470e-05 -2.09112445e-06  0.00000000e+00  0.00000000e+00
  0.00000000e+00 -1.40557994e-06 -2.09112445e-06  1.99352889e-05
  0.00000000e+00  0.00000000e+00  0.00000000e+00  4.23223130e-07
  0.00000000e+00  0.00000000e+00  0.00000000e+00  0.00000000e+00
  0.00000000e+00  0.00000000e+00  0.00000000e+00  0.00000000e+00
  0.00000000e+00  0.00000000e+00  0.00000000e+00  0.00000000e+00
  0.00000000e+00  0.00000000e+00  0.00000000e+00  0.00000000e+00
  0.00000000e+00  0.00000000e+00 -1.40557994e-06  4.23223130e-07
  0.00000000e+00  0.00000000e+00  0.00000000e+00  3.13436055e-06]","[[-5.58933245e-04  5.59898602e-03]
 [-4.14481577e-05 -1.09740945e-02]]",[],0.0,0.0
1787304635.1974988,1.480375411009219,-0.49249702819500213,0.28622967551463496,"[ 2.31517470e-05 -2.09112445e-06  0.00000000e+00  0.00000000e+00
  0.00000000e+00 -1.40557994e-06 -2.09112445e-06  1.99352889e-05
  0.00000000e+00  0.00000000e+00  0.00000000e+00  4.23223130e-07
  0.00000000e+00  0.00000000e+00  0.00000000e+00  0.00000000e+00
  0.00000000e+00  0.00000000e+00  0.00000000e+00  0.00000000e+00
  0.00000000e+00  0.00000000e+00  0.00000000e+00  0.00000000e+00
  0.00000000e+00  0.00000000e+00  0.00000000e+00  0.00000000e+00
  0.00000000e+00  0.00000000e+00 -1.40557994e-06  4.23223130e-07
  0.00000000e+00  0.00000000e+00  0.00000000e+00  3.13436055e-06]","[[-5.58933245e-04  5.59898602e-03]
 [-4.14481577e-05 -1.09740945e-02]]",[],0.0,0.0
1787304635.2425706,1.480375411009219,-0.49249702819500213,0.28622967551463496,"[ 2.31517470e-05 -2.09112445e-06  0.00000000e+00  0.00000000e+00
  0.00000000e+00 -1.40557994e-06 -2.09112445e-06  1.99352889e-05
  0.00000000e+00  0.00000000e+00  0.00000000e+00  4.23223130e-07
  0.00000000e+00  0.00000000e+00  0.00000000e+00  0.00000000e+00
  0.00000000e+00  0.00000000e+00  0.00000000e+00  0.00000000e+00
  0.00000000e+00  0.00000000e+00  0.00000000e+00  0.00000000e+00
  0.00000000e+00  0.00000000e+00  0.00000000e+00  0.00000000e+00
  0.00000000e+00  0.00000000e+00 -1.40557994e-06  4.23223130e-07
  0.00000000e+00  0.00000000e+00  0.00000000e+00  3.13436055e-06]","[[-5.58933245e-04  5.59898602e-03]
 [-4.14481577e-05 -1.09740945e-02]]",[],0.0,0.0
1787304635.3099635,1.480375411009219,-0.49249702819500213,0.28622967551463496,"[ 2.31517470e-05 -2.09112445e-06  0.00000000e+00  0.00000000e+00
  0.00000000e+00 -1.40557994e-06 -2.09112445e-06  1.99352889e-05
  0.00000000e+00  0.00000000e+00  0.00000000e+00  4.23223130e-07
  0.00000000e+00  0.00000000e+00  0.00000000e+00  0.00000000e+00
  0.00000000e+00  0.00000000e+00  0.00000000e+00  0.00000000e+00
  0.00000000e+00  0.00000000e+00  0.00000000e+00  0.00000000e+00
  0.00000000e+00  0.00000000e+00  0.00000000e+00  0.00000000e+00
  0.00000000e+00  0.00000000e+00 -1.40557994e-06  4.23223130e-07
  0.00000000e+00  0.00000000e+00  0.00000000e+00  3.13436055e-06]","[[-5.58933245e-04  5.59898602e-03]
 [-4.14481577e-05 -1.09740945e-02]]",[],0.0,0.0
1787304635.3449383,1.480375411009219,-0.49249702819500213,0.28622967551463496,"[ 2.31517470e-05 -2.09112445e-06  0.00000000e+00  0.00000000e+00
  0.00000000e+00 -1.40557994e-06 -2.09112445e-06  1.99352889e-05
  0.00000000e+00  0.00000000e+00  0.00000000e+00  4.23223130e-07
  0.00000000e+00  0.00000000e+00  0.00000000e+00  0.00000000e+00
  0.00000000e+00  0.00000000e+00  0.00000000e+00  0.00000000e+00
  0.00000000e+00  0.00000000e+00  0.00000000e+00  0.00000000e+00
  0.00000000e+00  0.00000000e+00  0.00000000e+00  0.00000000e+00
  0.00000000e+00  0.00000000e+00 -1.40557994e-06  4.23223130e-07
  0.00000000e+00  0.00000000e+00  0.00000000e+00  3.13436055e-06]","[[-5.58933245e-04  5.59898602e-03]
 [-4.14481577e-05 -1.09740945e-02]]",[],0.0,0.0
1787304635.394246,1.480375411009219,-0.49249702819500213,0.28622967551463496,"[ 2.31517470e-05 -2.09112445e-06  0.00000000e+00  0.00000000e+00
  0.00000000e+00 -1.40557994e-06 -2.09112445e-06  1.99352889e-05
  0.00000000e+00  0.00000000e+00  0.00000000e+00  4.23223130e-07
  0.00000000e+00  0.00000000e+00  0.00000000e+00  0.00000000e+00
  0.00000000e+00  0.00000000e+00  0.00000000e+00  0.00000000e+00
  0.00000000e+00  0.00000000e+00  0.00000000e+00  0.00000000e+00
  0.00000000e+00  0.00000000e+00  0.00000000e+00  0.00000000e+00
  0.00000000e+00  0.00000000e+00 -1.40557994e-06  4.23223130e-07
  0.00000000e+00  0.00000000e+00  0.00000000e+00  3.13436055e-06]","[[-5.58933245e-04  5.59898602e-03]
 [-4.14481577e-05 -1.09740945e-02]]",[],0.0,0.0
1787304635.4430268,1.480375411009219,-0.49249702819500213,0.28622967551463496,"[ 2.31517470e-05 -2.09112445e-06  0.00000000e+00  0.00000000e+00
  0.00000000e+00 -1.40557994e-06 -2.09112445e-06  1.99352889e-05
  0.00000000e+00  0.00000000e+00  0.00000000e+00  4.23223130e-07
  0.00000000e+00  0.00000000e+00  0.00000000e+00  0.00000000e+00
  0.00000000e+00  0.00000000e+00  0.00000000e+00  0.00000000e+00
  0.00000000e+00  0.00000000e+00  0.00000000e+00  0.00000000e+00
  0.00000000e+00  0.00000000e+00  0.00000000e+00  0.00000000e+00
  0.00000000e+00  0.00000000e+00 -1.40557994e-06  4.23223130e-07
  0.00000000e+00  0.00000000e+00  0.00000000e+00  3.13436055e-06]","[[-5.58933245e-04  5.59898602e-03]
 [-4.14481577e-05 -1.09740945e-02]]",[],0.0,0.0
1787304635.4962516,1.480375411009219,-0.49249702819500213,0.28622967551463496,"[ 2.31517470e-05 -2.09112445e-06  0.00000000e+00  0.00000000e+00
  0.00000000e+00 -1.40557994e-06 -2.09112445e-06  1.99352889e-05
  0.00000000e+00  0.00000000e+00  0.00000000e+00  4.23223130e-07
  0.00000000e+00  0.00000000e+00  0.00000000e+00  0.00000000e+00
  0.00000000e+00  0.00000000e+00  0.00000000e+00  0.00000000e+00
  0.00000000e+00  0.00000000e+00  0.00000000e+00  0.00000000e+00
  0.00000000e+00  0.00000000e+00  0.00000000e+00  0.00000000e+00
  0.00000000e+00  0.00000000e+00 -1.40557994e-06  4.23223130e-07
  0.00000000e+00  0.00000000e+00  0.00000000e+00  3.13436055e-06]","[[-5.58933245e-04  5.59898602e-03]
 [-4.14481577e-05 -1.09740945e-02]]",[],0.0,0.0
1787304635.5440304,1.480375411009219,-0.49249702819500213,0.28622967551463496,"[ 2.31517470e-05 -2.09112445e-06  0.00000000e+00  0.00000000e+00
  0.00000000e+00 -1.40557994e-06 -2.09112445e-06  1.99352889e-05
  0.00000000e+00  0.00000000e+00  0.00000000e+00  4.23223130e-07
  0.00000000e+00  0.00000000e+00  0.00000000e+00  0.00000000e+00
  0.00000000e+00  0.00000000e+00  0.00000000e+00  0.00000000e+00
  0.00000000e+00  0.00000000e+00  0.00000000e+00  0.00000000e+00
  0.00000000e+00  0.00000000e+00  0.00000000e+00  0.00000000e+00
  0.00000000e+00  0.00000000e+00 -1.40557994e-06  4.23223130e-07
  0.00000000e+00  0.00000000e+00  0.00000000e+00  3.13436055e-06]","[[-5.58933245e-04  5.59898602e-03]
 [-4.14481577e-05 -1.09740945e-02]]",[],0.0,0.0
1787304635.5934186,1.480375411009219,-0.49249702819500213,0.28622967551463496,"[ 2.31517470e-05 -2.09112445e-06  0.00000000e+00  0.00000000e+00
  0.00000000e+00 -1.40557994e-06 -2.09112445e-06  1.99352889e-05
  0.00000000e+00  0.00000000e+00  0.00000000e+00  4.23223130e-07
  0.00000000e+00  0.00000000e+00  0.00000000e+00  0.00000000e+00
  0.00000000e+00  0.00000000e+00  0.00000000e+00  0.00000000e+00
  0.00000000e+00  0.00000000e+00  0.00000000e+00  0.00000000e+00
  0.00000000e+00  0.00000000e+00  0.00000000e+00  0.00000000e+00
  0.00000000e+00  0.00000000e+00 -1.40557994e-06  4.23223130e-07
  0.00000000e+00  0.00000000e+00  0.00000000e+00  3.13436055e-06]","[[-5.58933245e-04  5.59898602e-03]
 [-4.14481577e-05 -1.09740945e-02]]",[],0.0,0.0
1787304635.6573868,1.480375411009219,-0.49249702819500213,0.28622967551463496,"[ 2.31517470e-05 -2.09112445e-06  0.00000000e+00  0.00000000e+00
  0.00000000e+00 -1.40557994e-06 -2.09112445e-06  1.99352889e-05
  0.00000000e+00  0.00000000e+00  0.00000000e+00  4.23223130e-07
  0.00000000e+00  0.00000000e+00  0.00000000e+00  0.00000000e+00
  0.00000000e+00  0.00000000e+00  0.00000000e+00  0.00000000e+00
  0.00000000e+00  0.00000000e+00  0.00000000e+00  0.00000000e+00
  0.00000000e+00  0.00000000e+00  0.00000000e+00  0.00000000e+00
  0.00000000e+00  0.00000000e+00 -1.40557994e-06  4.23223130e-07
  0.00000000e+00  0.00000000e+00  0.00000000e+00  3.13436055e-06]","[[-5.58933245e-04  5.59898602e-03]
 [-4.14481577e-05 -1.09740945e-02]]",[],0.0,0.0
1787304635.692401,1.480375411009219,-0.49249702819500213,0.28622967551463496,"[ 2.31517470e-05 -2.09112445e-06  0.00000000e+00  0.00000000e+00
  0.00000000e+00 -1.40557994e-06 -2.09112445e-06  1.99352889e-05
  0.00000000e+00  0.00000000e+00  0.00000000e+00  4.23223130e-07
  0.00000000e+00  0.00000000e+00  0.00000000e+00  0.00000000e+00
  0.00000000e+00  0.00000000e+00  0.00000000e+00  0.00000000e+00
  0.00000000e+00  0.00000000e+00  0.00000000e+00  0.00000000e+00
  0.00000000e+00  0.00000000e+00  0.00000000e+00  0.00000000e+00
  0.00000000e+00  0.00000000e+00 -1.40557994e-06  4.23223130e-07
  0.00000000e+00  0.00000000e+00  0.00000000e+00  3.13436055e-06]","[[-5.58933245e-04  5.59898602e-03]
 [-4.14481577e-05 -1.09740945e-02]]",[],0.0,0.0
1787304635.7423499,1.480375411009219,-0.49249702819500213,0.28622967551463496,"[ 2.31517470e-05 -2.09112445e-06  0.00000000e+00  0.00000000e+00
  0.00000000e+00 -1.40557994e-06 -2.09112445e-06  1.99352889e-05
  0.00000000e+00  0.00000000e+00  0.00000000e+00  4.23223130e-07
  0.00000000e+00  0.00000000e+00  0.00000000e+00  0.00000000e+00
  0.00000000e+00  0.00000000e+00  0.00000000e+00  0.00000000e+00
  0.00000000e+00  0.00000000e+00  0.00000000e+00  0.00000000e+00
  0.00000000e+00  0.00000000e+00  0.00000000e+00  0.00000000e+00
  0.00000000e+00  0.00000000e+00 -1.40557994e-06  4.23223130e-07
  0.00000000e+00  0.00000000e+00  0.00000000e+00  3.13436055e-06]","[[-5.58933245e-04  5.59898602e-03]
 [-4.14481577e-05 -1.09740945e-02]]",[],0.0,0.0
1787304635.7918653,1.480375411009219,-0.49249702819500213,0.28622967551463496,"[ 2.31517470e-05 -2.09112445e-06  0.00000000e+00  0.00000000e+00
  0.00000000e+00 -1.40557994e-06 -2.09112445e-06  1.99352889e-05
  0.00000000e+00  0.00000000e+00  0.00000000e+00  4.23223130e-07
  0.00000000e+00  0.00000000e+00  0.00000000e+00  0.00000000e+00
  0.00000000e+00  0.00000000e+00  0.00000000e+00  0.00000000e+00
  0.00000000e+00  0.00000000e+00  0.00000000e+00  0.00000000e+00
  0.00000000e+00  0.00000000e+00  0.00000000e+00  0.00000000e+00
  0.00000000e+00  0.00000000e+00 -1.40557994e-06  4.23223130e-07
  0.00000000e+00  0.00000000e+00  0.00000000e+00  3.13436055e-06]","[[-5.58933245e-04  5.59898602e-03]
 [-4.14481577e-05 -1.09740945e-02]]",[],0.0,0.0
1787304635.84542,1.532674155742881,-0.46689836414838737,0.3390053581189614,"[ 1.51728714e-05 -1.51287620e-06  0.00000000e+00  0.00000000e+00
  0.00000000e+00 -1.12488379e-06 -1.51287620e-06  1.35895777e-05
  0.00000000e+00  0.00000000e+00  0.00000000e+00  6.42973967e-08
  0.00000000e+00  0.00000000e+00  0.00000000e+00  0.00000000e+00
  0.00000000e+00  0.00000000e+00  0.00000000e+00  0.00000000e+00
  0.00000000e+00  0.00000000e+00  0.00000000e+00  0.00000000e+00
  0.00000000e+00  0.00000000e+00  0.00000000e+00  0.00000000e+00
  0.00000000e+00  0.00000000e+00 -1.12488379e-06  6.42973967e-08
  0.00000000e+00  0.00000000e+00  0.00000000e+00  3.34369425e-06]","[[-3.59805169e-04  4.49439022e-03]
 [-4.30914069e-05 -7.19950490e-03]]",[],0.0,0.0
1787304635.8961415,1.532674155742881,-0.46689836414838737,0.3390053581189614,"[ 1.51728714e-05 -1.51287620e-06  0.00000000e+00  0.00000000e+00
  0.00000000e+00 -1.12488379e-06 -1.51287620e-06  1.35895777e-05
  0.00000000e+00  0.00000000e+00  0.00000000e+00  6.42973967e-08
  0.00000000e+00  0.00000000e+00  0.00000000e+00  0.00000000e+00
  0.00000000e+00  0.00000000e+00  0.00000000e+00  0.00000000e+00
  0.00000000e+00  0.00000000e+00  0.00000000e+00  0.00000000e+00
  0.00000000e+00  0.00000000e+00  0.00000000e+00  0.00000000e+00
  0.00000000e+00  0.00000000e+00 -1.12488379e-06  6.42973967e-08
  0.00000000e+00  0.00000000e+00  0.00000000e+00  3.34369425e-06]","[[-3.59805169e-04  4.49439022e-03]
 [-4.30914069e-05 -7.19950490e-03]]",[],0.0,0.0
1787304635.9432003,1.532674155742881,-0.46689836414838737,0.3390053581189614,"[ 1.51728714e-05 -1.51287620e-06  0.00000000e+00  0.00000000e+00
  0.00000000e+00 -1.12488379e-06 -1.51287620e-06  1.35895777e-05
  0.00000000e+00  0.00000000e+00  0.00000000e+00  6.42973967e-08
  0.00000000e+00  0.00000000e+00  0.00000000e+00  0.00000000e+00
  0.00000000e+00  0.00000000e+00  0.00000000e+00  0.00000000e+00
  0.00000000e+00  0.00000000e+00  0.00000000e+00  0.00000000e+00
  0.00000000e+00  0.00000000e+00  0.00000000e+00  0.00000000e+00
  0.00000000e+00  0.00000000e+00 -1.12488379e-06  6.42973967e-08
  0.00000000e+00  0.00000000e+00  0.00000000e+00  3.34369425e-06]","[[-3.59805169e-04  4.49439022e-03]
 [-4.30914069e-05 -7.19950490e-03]]",[],0.0,0.0
1787304635.9971151,1.532674155742881,-0.46689836414838737,0.3390053581189614,"[ 1.51728714e-05 -1.51287620e-06  0.00000000e+00  0.00000000e+00
  0.00000000e+00 -1.12488379e-06 -1.51287620e-06  1.35895777e-05
  0.00000000e+00  0.00000000e+00  0.00000000e+00  6.42973967e-08
  0.00000000e+00  0.00000000e+00  0.00000000e+00  0.00000000e+00
  0.00000000e+00  0.00000000e+00  0.00000000e+00  0.00000000e+00
  0.00000000e+00  0.00000000e+00  0.00000000e+00  0.00000000e+00
  0.00000000e+00  0.00000000e+00  0.00000000e+00  0.00000000e+00
  0.00000000e+00  0.00000000e+00 -1.12488379e-06  6.42973967e-08
  0.00000000e+00  0.00000000e+00  0.00000000e+00  3.34369425e-06]","[[-3.59805169e-04  4.49439022e-03]
 [-4.30914069e-05 -7.19950490e-03]]",[],0.0,0.0
1787304636.044883,1.532674155742881,-0.46689836414838737,0.3390053581189614,"[ 1.51728714e-05 -1.51287620e-06  0.00000000e+00  0.00000000e+00
  0.00000000e+00 -1.12488379e-06 -1.51287620e-06  1.35895777e-05
  0.00000000e+00  0.00000000e+00  0.00000000e+00  6.42973967e-08
  0.00000000e+00  0.00000000e+00  0.00000000e+00  0.00000000e+00
  0.00000000e+00  0.00000000e+00  0.00000000e+00  0.00000000e+00
  0.00000000e+00  0.00000000e+00  0.00000000e+00  0.00000000e+00
  0.00000000e+00  0.00000000e+00  0.00000000e+00  0.00000000e+00
  0.00000000e+00  0.00000000e+00 -1.12488379e-06  6.42973967e-08
  0.00000000e+00  0.00000000e+00  0.00000000e+00  3.34369425e-06]","[[-3.59805169e-04  4.49439022e-03]
 [-4.30914069e-05 -7.19950490e-03]]",[],0.0,0.0
1787304636.0933616,1.532674155742881,-0.46689836414838737,0.3390053581189614,"[ 1.51728714e-05 -1.51287620e-06  0.00000000e+00  0.00000000e+00
  0.00000000e+00 -1.12488379e-06 -1.51287620e-06  1.35895777e-05
  0.00000000e+00  0.00000000e+00  0.00000000e+00  6.42973967e-08
  0.00000000e+00  0.00000000e+00  0.00000000e+00  0.00000000e+00
  0.00000000e+00  0.00000000e+00  0.00000000e+00  0.00000000e+00
  0.00000000e+00  0.00000000e+00  0.00000000e+00  0.00000000e+00
  0.00000000e+00  0.00000000e+00  0.00000000e+00  0.00000000e+00
  0.00000000e+00  0.00000000e+00 -1.12488379e-06  6.42973967e-08
  0.00000000e+00  0.00000000e+00  0.00000000e+00  3.34369425e-06]","[[-3.59805169e-04  4.49439022e-03]
 [-4.30914069e-05 -7.19950490e-03]]",[],0.0,0.0
1787304636.1431823,1.532674155742881,-0.46689836414838737,0.3390053581189614,"[ 1.51728714e-05 -1.51287620e-06  0.00000000e+00  0.00000000e+00
  0.00000000e+00 -1.12488379e-06 -1.51287620e-06  1.35895777e-05
  0.00000000e+00  0.00000000e+00  0.00000000e+00  6.42973967e-08
  0.00000000e+00  0.00000000e+00  0.00000000e+00  0.00000000e+00
  0.00000000e+00  0.00000000e+00  0.00000000e+00  0.00000000e+00
  0.00000000e+00  0.00000000e+00  0.00000000e+00  0.00000000e+00
  0.00000000e+00  0.00000000e+00  0.00000000e+00  0.00000000e+00
  0.00000000e+00  0.00000000e+00 -1.12488379e-06  6.42973967e-08
  0.00000000e+00  0.00000000e+00  0.00000000e+00  3.34369425e-06]","[[-3.59805169e-04  4.49439022e-03]
 [-4.30914069e-05 -7.19950490e-03]]",[],0.0,0.0
1787304636.192089,1.532674155742881,-0.46689836414838737,0.3390053581189614,"[ 1.51728714e-05 -1.51287620e-06  0.00000000e+00  0.00000000e+00
  0.00000000e+00 -1.12488379e-06 -1.51287620e-06  1.35895777e-05
  0.00000000e+00  0.00000000e+00  0.00000000e+00  6.42973967e-08
  0.00000000e+00  0.00000000e+00  0.00000000e+00  0.00000000e+00
  0.00000000e+00  0.00000000e+00  0.00000000e+00  0.00000000e+00
  0.00000000e+00  0.00000000e+00  0.00000000e+00  0.00000000e+00
  0.00000000e+00  0.00000000e+00  0.00000000e+00  0.00000000e+00
  0.00000000e+00  0.00000000e+00 -1.12488379e-06  6.42973967e-08
  0.00000000e+00  0.00000000e+00  0.00000000e+00  3.34369425e-06]","[[-3.59805169e-04  4.49439022e-03]
 [-4.30914069e-05 -7.19950490e-03]]",[],0.0,0.0
1787304636.2451506,1.532674155742881,-0.46689836414838737,0.3390053581189614,"[ 1.51728714e-05 -1.51287620e-06  0.00000000e+00  0.00000000e+00
  0.00000000e+00 -1.12488379e-06 -1.51287620e-06  1.35895777e-05
  0.00000000e+00  0.00000000e+00  0.00000000e+00  6.42973967e-08
  0.00000000e+00  0.00000000e+00  0.00000000e+00  0.00000000e+00
  0.00000000e+00  0.00000000e+00  0.00000000e+00  0.00000000e+00
  0.00000000e+00  0.00000000e+00  0.00000000e+00  0.00000000e+00
  0.00000000e+00  0.00000000e+00  0.00000000e+00  0.00000000e+00
  0.00000000e+00  0.00000000e+00 -1.12488379e-06  6.42973967e-08
  0.00000000e+00  0.00000000e+00  0.00000000e+00  3.34369425e-06]","[[-3.59805169e-04  4.49439022e-03]
 [-4.30914069e-05 -7.19950490e-03]]",[],0.0,0.0
1787304636.2934833,1.532674155742881,-0.46689836414838737,0.3390053581189614,"[ 1.51728714e-05 -1.51287620e-06  0.00000000e+00  0.00000000e+00
  0.00000000e+00 -1.12488379e-06 -1.51287620e-06  1.35895777e-05
  0.00000000e+00  0.00000000e+00  0.00000000e+00  6.42973967e-08
  0.00000000e+00  0.00000000e+00  0.00000000e+00  0.00000000e+00
  0.00000000e+00  0.00000000e+00  0.00000000e+00  0.00000000e+00
  0.00000000e+00  0.00000000e+00  0.00000000e+00  0.00000000e+00
  0.00000000e+00  0.00000000e+00  0.00000000e+00  0.00000000e+00
  0.00000000e+00  0.00000000e+00 -1.12488379e-06  6.42973967e-08
  0.00000000e+00  0.00000000e+00  0.00000000e+00  3.34369425e-06]","[[-3.59805169e-04  4.49439022e-03]
 [-4.30914069e-05 -7.19950490e-03]]",[],0.0,0.0
1787304636.3453717,1.532674155742881,-0.46689836414838737,0.3390053581189614,"[ 1.51728714e-05 -1.51287620e-06  0.00000000e+00  0.00000000e+00
  0.00000000e+00 -1.12488379e-06 -1.51287620e-06  1.35895777e-05
  0.00000000e+00  0.00000000e+00  0.00000000e+00  6.42973967e-08
  0.00000000e+00  0.00000000e+00  0.00000000e+00  0.00000000e+00
  0.00000000e+00  0.00000000e+00  0.00000000e+00  0.00000000e+00
  0.00000000e+00  0.00000000e+00  0.00000000e+00  0.00000000e+00
  0.00000000e+00  0.00000000e+00  0.00000000e+00  0.00000000e+00
  0.00000000e+00  0.00000000e+00 -1.12488379e-06  6.42973967e-08
  0.00000000e+00  0.00000000e+00  0.00000000e+00  3.34369425e-06]","[[-3.59805169e-04  4.49439022e-03]
 [-4.30914069e-05 -7.19950490e-03]]",[],0.0,0.0
1787304636.3942766,1.532674155742881,-0.46689836414838737,0.3390053581189614,"[ 1.51728714e-05 -1.51287620e-06  0.00000000e+00  0.00000000e+00
  0.00000000e+00 -1.12488379e-06 -1.51287620e-06  1.35895777e-05
  0.00000000e+00  0.00000000e+00  0.00000000e+00  6.42973967e-08
  0.00000000e+00  0.00000000e+00  0.00000000e+00  0.00000000e+00
  0.00000000e+00  0.00000000e+00  0.00000000e+00  0.00000000e+00
  0.00000000e+00  0.00000000e+00  0.00000000e+00  0.00000000e+00
  0.00000000e+00  0.00000000e+00  0.00000000e+00  0.00000000e+00
  0.00000000e+00  0.00000000e+00 -1.12488379e-06  6.42973967e-08
  0.00000000e+00  0.00000000e+00  0.00000000e+00  3.34369425e-06]","[[-3.59805169e-04  4.49439022e-03]
 [-4.30914069e-05 -7.19950490e-03]]",[],0.0,0.0
1787304636.4432156,1.532674155742881,-0.46689836414838737,0.3390053581189614,"[ 1.51728714e-05 -1.51287620e-06  0.00000000e+00  0.00000000e+00
  0.00000000e+00 -1.12488379e-06 -1.51287620e-06  1.35895777e-05
  0.00000000e+00  0.00000000e+00  0.00000000e+00  6.42973967e-08
  0.00000000e+00  0.00000000e+00  0.00000000e+00  0.00000000e+00
  0.00000000e+00  0.00000000e+00  0.00000000e+00  0.00000000e+00
  0.00000000e+00  0.00000000e+00  0.00000000e+00  0.00000000e+00
  0.00000000e+00  0.00000000e+00  0.00000000e+00  0.00000000e+00
  0.00000000e+00  0.00000000e+00 -1.12488379e-06  6.42973967e-08
  0.00000000e+00  0.00000000e+00  0.00000000e+00  3.34369425e-06]","[[-3.59805169e-04  4.49439022e-03]
 [-4.30914069e-05 -7.19950490e-03]]",[],0.0,0.0
1787304636.4921496,1.532674155742881,-0.46689836414838737,0.3390053581189614,"[ 1.51728714e-05 -1.51287620e-06  0.00000000e+00  0.00000000e+00
  0.00000000e+00 -1.12488379e-06 -1.51287620e-06  1.35895777e-05
  0.00000000e+00  0.00000000e+00  0.00000000e+00  6.42973967e-08
  0.00000000e+00  0.00000000e+00  0.00000000e+00  0.00000000e+00
  0.00000000e+00  0.00000000e+00  0.00000000e+00  0.00000000e+00
  0.00000000e+00  0.00000000e+00  0.00000000e+00  0.00000000e+00
  0.00000000e+00  0.00000000e+00  0.00000000e+00  0.00000000e+00
  0.00000000e+00  0.00000000e+00 -1.12488379e-06  6.42973967e-08
  0.00000000e+00  0.00000000e+00  0.00000000e+00  3.34369425e-06]","[[-3.59805169e-04  4.49439022e-03]
 [-4.30914069e-05 -7.19950490e-03]]",[],0.0,0.0
1787304636.5521965,1.532674155742881,-0.46689836414838737,0.3390053581189614,"[ 1.51728714e-05 -1.51287620e-06  0.00000000e+00  0.00000000e+00
  0.00000000e+00 -1.12488379e-06 -1.51287620e-06  1.35895777e-05
  0.00000000e+00  0.00000000e+00  0.00000000e+00  6.42973967e-08
  0.00000000e+00  0.00000000e+00  0.00000000e+00  0.00000000e+00
  0.00000000e+00  0.00000000e+00  0.00000000e+00  0.00000000e+00
  0.00000000e+00  0.00000000e+00  0.00000000e+00  0.00000000e+00
  0.00000000e+00  0.00000000e+00  0.00000000e+00  0.00000000e+00
  0.00000000e+00  0.00000000e+00 -1.12488379e-06  6.42973967e-08
  0.00000000e+00  0.00000000e+00  0.00000000e+00  3.34369425e-06]","[[-3.59805169e-04  4.49439022e-03]
 [-4.30914069e-05 -7.19950490e-03]]",[],0.0,0.0
1787304636.592994,1.532674155742881,-0.46689836414838737,0.3390053581189614,"[ 1.51728714e-05 -1.51287620e-06  0.00000000e+00  0.00000000e+00
  0.00000000e+00 -1.12488379e-06 -1.51287620e-06  1.35895777e-05
  0.00000000e+00  0.00000000e+00  0.00000000e+00  6.42973967e-08
  0.00000000e+00  0.00000000e+00  0.00000000e+00  0.00000000e+00
  0.00000000e+00  0.00000000e+00  0.00000000e+00  0.00000000e+00
  0.00000000e+00  0.00000000e+00  0.00000000e+00  0.00000000e+00
  0.00000000e+00  0.00000000e+00  0.00000000e+00  0.00000000e+00
  0.00000000e+00  0.00000000e+00 -1.12488379e-06  6.42973967e-08
  0.00000000e+00  0.00000000e+00  0.00000000e+00  3.34369425e-06]","[[-3.59805169e-04  4.49439022e-03]
 [-4.30914069e-05 -7.19950490e-03]]",[],0.0,0.0
1787304636.6682663,1.532674155742881,-0.46689836414838737,0.3390053581189614,"[ 1.51728714e-05 -1.51287620e-06  0.00000000e+00  0.00000000e+00
  0.00000000e+00 -1.12488379e-06 -1.51287620e-06  1.35895777e-05
  0.00000000e+00  0.00000000e+00  0.00000000e+00  6.42973967e-08
  0.00000000e+00  0.00000000e+00  0.00000000e+00  0.00000000e+00
  0.00000000e+00  0.00000000e+00  0.00000000e+00  0.00000000e+00
  0.00000000e+00  0.00000000e+00  0.00000000e+00  0.00000000e+00
  0.00000000e+00  0.00000000e+00  0.00000000e+00  0.00000000e+00
  0.00000000e+00  0.00000000e+00 -1.12488379e-06  6.42973967e-08
  0.00000000e+00  0.00000000e+00  0.00000000e+00  3.34369425e-06]","[[-3.59805169e-04  4.49439022e-03]
 [-4.30914069e-05 -7.19950490e-03]]",[],0.0,0.0
1787304636.697366,1.532674155742881,-0.46689836414838737,0.3390053581189614,"[ 1.51728714e-05 -1.51287620e-06  0.00000000e+00  0.00000000e+00
  0.00000000e+00 -1.12488379e-06 -1.51287620e-06  1.35895777e-05
  0.00000000e+00  0.00000000e+00  0.00000000e+00  6.42973967e-08
  0.00000000e+00  0.00000000e+00  0.00000000e+00  0.00000000e+00
  0.00000000e+00  0.00000000e+00  0.00000000e+00  0.00000000e+00
  0.00000000e+00  0.00000000e+00  0.00000000e+00  0.00000000e+00
  0.00000000e+00  0.00000000e+00  0.00000000e+00  0.00000000e+00
  0.00000000e+00  0.00000000e+00 -1.12488379e-06  6.42973967e-08
  0.00000000e+00  0.00000000e+00  0.00000000e+00  3.34369425e-06]","[[-3.59805169e-04  4.49439022e-03]
 [-4.30914069e-05 -7.19950490e-03]]",[],0.0,0.0
1787304636.7567716,1.532674155742881,-0.46689836414838737,0.3390053581189614,"[ 1.51728714e-05 -1.51287620e-06  0.00000000e+00  0.00000000e+00
  0.00000000e+00 -1.12488379e-06 -1.51287620e-06  1.35895777e-05
  0.00000000e+00  0.00000000e+00  0.00000000e+00  6.42973967e-08
  0.00000000e+00  0.00000000e+00  0.00000000e+00  0.00000000e+00
  0.00000000e+00  0.00000000e+00  0.00000000e+00  0.00000000e+00
  0.00000000e+00  0.00000000e+00  0.00000000e+00  0.00000000e+00
  0.00000000e+00  0.00000000e+00  0.00000000e+00  0.00000000e+00
  0.00000000e+00  0.00000000e+00 -1.12488379e-06  6.42973967e-08
  0.00000000e+00  0.00000000e+00  0.00000000e+00  3.34369425e-06]","[[-3.59805169e-04  4.49439022e-03]
 [-4.30914069e-05 -7.19950490e-03]]",[],0.0,0.0
1787304636.8150716,1.532674155742881,-0.46689836414838737,0.3390053581189614,"[ 1.51728714e-05 -1.51287620e-06  0.00000000e+00  0.00000000e+00
  0.00000000e+00 -1.12488379e-06 -1.51287620e-06  1.35895777e-05
  0.00000000e+00  0.00000000e+00  0.00000000e+00  6.42973967e-08
  0.00000000e+00  0.00000000e+00  0.00000000e+00  0.00000000e+00
  0.00000000e+00  0.00000000e+00  0.00000000e+00  0.00000000e+00
  0.00000000e+00  0.00000000e+00  0.00000000e+00  0.00000000e+00
  0.00000000e+00  0.00000000e+00  0.00000000e+00  0.00000000e+00
  0.00000000e+00  0.00000000e+00 -1.12488379e-06  6.42973967e-08
  0.00000000e+00  0.00000000e+00  0.00000000e+00  3.34369425e-06]","[[-3.59805169e-04  4.49439022e-03]
 [-4.30914069e-05 -7.19950490e-03]]",[],0.0,0.0
1787304636.8450558,1.532674155742881,-0.46689836414838737,0.3390053581189614,"[ 1.51728714e-05 -1.51287620e-06  0.00000000e+00  0.00000000e+00
  0.00000000e+00 -1.12488379e-06 -1.51287620e-06  1.35895777e-05
  0.00000000e+00  0.00000000e+00  0.00000000e+00  6.42973967e-08
  0.00000000e+00  0.00000000e+00  0.00000000e+00  0.00000000e+00
  0.00000000e+00  0.00000000e+00  0.00000000e+00  0.00000000e+00
  0.00000000e+00  0.00000000e+00  0.00000000e+00  0.00000000e+00
  0.00000000e+00  0.00000000e+00  0.00000000e+00  0.00000000e+00
  0.00000000e+00  0.00000000e+00 -1.12488379e-06  6.42973967e-08
  0.00000000e+00  0.00000000e+00  0.00000000e+00  3.34369425e-06]","[[-3.59805169e-04  4.49439022e-03]
 [-4.30914069e-05 -7.19950490e-03]]",[],0.0,0.0
1787304636.8980615,1.532674155742881,-0.46689836414838737,0.3390053581189614,"[ 1.51728714e-05 -1.51287620e-06  0.00000000e+00  0.00000000e+00
  0.00000000e+00 -1.12488379e-06 -1.51287620e-06  1.35895777e-05
  0.00000000e+00  0.00000000e+00  0.00000000e+00  6.42973967e-08
  0.00000000e+00  0.00000000e+00  0.00000000e+00  0.00000000e+00
  0.00000000e+00  0.00000000e+00  0.00000000e+00  0.00000000e+00
  0.00000000e+00  0.00000000e+00  0.00000000e+00  0.00000000e+00
  0.00000000e+00  0.00000000e+00  0.00000000e+00  0.00000000e+00
  0.00000000e+00  0.00000000e+00 -1.12488379e-06  6.42973967e-08
  0.00000000e+00  0.00000000e+00  0.00000000e+00  3.34369425e-06]","[[-3.59805169e-04  4.49439022e-03]
 [-4.30914069e-05 -7.19950490e-03]]",[],0.0,0.0
1787304636.9423094,1.532674155742881,-0.46689836414838737,0.3390053581189614,"[ 1.51728714e-05 -1.51287620e-06  0.00000000e+00  0.00000000e+00
  0.00000000e+00 -1.12488379e-06 -1.51287620e-06  1.35895777e-05
  0.00000000e+00  0.00000000e+00  0.00000000e+00  6.42973967e-08
  0.00000000e+00  0.00000000e+00  0.00000000e+00  0.00000000e+00
  0.00000000e+00  0.00000000e+00  0.00000000e+00  0.00000000e+00
  0.00000000e+00  0.00000000e+00  0.00000000e+00  0.00000000e+00
  0.00000000e+00  0.00000000e+00  0.00000000e+00  0.00000000e+00
  0.00000000e+00  0.00000000e+00 -1.12488379e-06  6.42973967e-08
  0.00000000e+00  0.00000000e+00  0.00000000e+00  3.34369425e-06]","[[-3.59805169e-04  4.49439022e-03]
 [-4.30914069e-05 -7.19950490e-03]]",[],0.0,0.0
1787304636.993034,1.532674155742881,-0.46689836414838737,0.3390053581189614,"[ 1.51728714e-05 -1.51287620e-06  0.00000000e+00  0.00000000e+00
  0.00000000e+00 -1.12488379e-06 -1.51287620e-06  1.35895777e-05
  0.00000000e+00  0.00000000e+00  0.00000000e+00  6.42973967e-08
  0.00000000e+00  0.00000000e+00  0.00000000e+00  0.00000000e+00
  0.00000000e+00  0.00000000e+00  0.00000000e+00  0.00000000e+00
  0.00000000e+00  0.00000000e+00  0.00000000e+00  0.00000000e+00
  0.00000000e+00  0.00000000e+00  0.00000000e+00  0.00000000e+00
  0.00000000e+00  0.00000000e+00 -1.12488379e-06  6.42973967e-08
  0.00000000e+00  0.00000000e+00  0.00000000e+00  3.34369425e-06]","[[-3.59805169e-04  4.49439022e-03]
 [-4.30914069e-05 -7.19950490e-03]]",[],0.0,0.0
1787304637.0444875,1.532674155742881,-0.46689836414838737,0.3390053581189614,"[ 1.51728714e-05 -1.51287620e-06  0.00000000e+00  0.00000000e+00
  0.00000000e+00 -1.12488379e-06 -1.51287620e-06  1.35895777e-05
  0.00000000e+00  0.00000000e+00  0.00000000e+00  6.42973967e-08
  0.00000000e+00  0.00000000e+00  0.00000000e+00  0.00000000e+00
  0.00000000e+00  0.00000000e+00  0.00000000e+00  0.00000000e+00
  0.00000000e+00  0.00000000e+00  0.00000000e+00  0.00000000e+00
  0.00000000e+00  0.00000000e+00  0.00000000e+00  0.00000000e+00
  0.00000000e+00  0.00000000e+00 -1.12488379e-06  6.42973967e-08
  0.00000000e+00  0.00000000e+00  0.00000000e+00  3.34369425e-06]","[[-3.59805169e-04  4.49439022e-03]
 [-4.30914069e-05 -7.19950490e-03]]",[],0.0,0.0
1787304637.0948906,1.532674155742881,-0.46689836414838737,0.3390053581189614,"[ 1.51728714e-05 -1.51287620e-06  0.00000000e+00  0.00000000e+00
  0.00000000e+00 -1.12488379e-06 -1.51287620e-06  1.35895777e-05
  0.00000000e+00  0.00000000e+00  0.00000000e+00  6.42973967e-08
  0.00000000e+00  0.00000000e+00  0.00000000e+00  0.00000000e+00
  0.00000000e+00  0.00000000e+00  0.00000000e+00  0.00000000e+00
  0.00000000e+00  0.00000000e+00  0.00000000e+00  0.00000000e+00
  0.00000000e+00  0.00000000e+00  0.00000000e+00  0.00000000e+00
  0.00000000e+00  0.00000000e+00 -1.12488379e-06  6.42973967e-08
  0.00000000e+00  0.00000000e+00  0.00000000e+00  3.34369425e-06]","[[-3.59805169e-04  4.49439022e-03]
 [-4.30914069e-05 -7.19950490e-03]]",[],0.0,0.0
1787304637.1453574,1.532674155742881,-0.46689836414838737,0.3390053581189614,"[ 1.51728714e-05 -1.51287620e-06  0.00000000e+00  0.00000000e+00
  0.00000000e+00 -1.12488379e-06 -1.51287620e-06  1.35895777e-05
  0.00000000e+00  0.00000000e+00  0.00000000e+00  6.42973967e-08
  0.00000000e+00  0.00000000e+00  0.00000000e+00  0.00000000e+00
  0.00000000e+00  0.00000000e+00  0.00000000e+00  0.00000000e+00
  0.00000000e+00  0.00000000e+00  0.00000000e+00  0.00000000e+00
  0.00000000e+00  0.00000000e+00  0.00000000e+00  0.00000000e+00
  0.00000000e+00  0.00000000e+00 -1.12488379e-06  6.42973967e-08
  0.00000000e+00  0.00000000e+00  0.00000000e+00  3.34369425e-06]","[[-3.59805169e-04  4.49439022e-03]
 [-4.30914069e-05 -7.19950490e-03]]",[],0.0,0.0
1787304637.1959612,1.532674155742881,-0.46689836414838737,0.3390053581189614,"[ 1.51728714e-05 -1.51287620e-06  0.00000000e+00  0.00000000e+00
  0.00000000e+00 -1.12488379e-06 -1.51287620e-06  1.35895777e-05
  0.00000000e+00  0.00000000e+00  0.00000000e+00  6.42973967e-08
  0.00000000e+00  0.00000000e+00  0.00000000e+00  0.00000000e+00
  0.00000000e+00  0.00000000e+00  0.00000000e+00  0.00000000e+00
  0.00000000e+00  0.00000000e+00  0.00000000e+00  0.00000000e+00
  0.00000000e+00  0.00000000e+00  0.00000000e+00  0.00000000e+00
  0.00000000e+00  0.00000000e+00 -1.12488379e-06  6.42973967e-08
  0.00000000e+00  0.00000000e+00  0.00000000e+00  3.34369425e-06]","[[-3.59805169e-04  4.49439022e-03]
 [-4.30914069e-05 -7.19950490e-03]]",[],0.0,0.0
1787304637.2499433,1.532674155742881,-0.46689836414838737,0.3390053581189614,"[ 1.51728714e-05 -1.51287620e-06  0.00000000e+00  0.00000000e+00
  0.00000000e+00 -1.12488379e-06 -1.51287620e-06  1.35895777e-05
  0.00000000e+00  0.00000000e+00  0.00000000e+00  6.42973967e-08
  0.00000000e+00  0.00000000e+00  0.00000000e+00  0.00000000e+00
  0.00000000e+00  0.00000000e+00  0.00000000e+00  0.00000000e+00
  0.00000000e+00  0.00000000e+00  0.00000000e+00  0.00000000e+00
  0.00000000e+00  0.00000000e+00  0.00000000e+00  0.00000000e+00
  0.00000000e+00  0.00000000e+00 -1.12488379e-06  6.42973967e-08
  0.00000000e+00  0.00000000e+00  0.00000000e+00  3.34369425e-06]","[[-3.59805169e-04  4.49439022e-03]
 [-4.30914069e-05 -7.19950490e-03]]",[],0.0,0.0
1787304637.2931602,1.532674155742881,-0.46689836414838737,0.3390053581189614,"[ 1.51728714e-05 -1.51287620e-06  0.00000000e+00  0.00000000e+00
  0.00000000e+00 -1.12488379e-06 -1.51287620e-06  1.35895777e-05
  0.00000000e+00  0.00000000e+00  0.00000000e+00  6.42973967e-08
  0.00000000e+00  0.00000000e+00  0.00000000e+00  0.00000000e+00
  0.00000000e+00  0.00000000e+00  0.00000000e+00  0.00000000e+00
  0.00000000e+00  0.00000000e+00  0.00000000e+00  0.00000000e+00
  0.00000000e+00  0.00000000e+00  0.00000000e+00  0.00000000e+00
  0.00000000e+00  0.00000000e+00 -1.12488379e-06  6.42973967e-08
  0.00000000e+00  0.00000000e+00  0.00000000e+00  3.34369425e-06]","[[-3.59805169e-04  4.49439022e-03]
 [-4.30914069e-05 -7.19950490e-03]]",[],0.0,0.0
1787304637.3459058,1.532674155742881,-0.46689836414838737,0.3390053581189614,"[ 1.51728714e-05 -1.51287620e-06  0.00000000e+00  0.00000000e+00
  0.00000000e+00 -1.12488379e-06 -1.51287620e-06  1.35895777e-05
  0.00000000e+00  0.00000000e+00  0.00000000e+00  6.42973967e-08
  0.00000000e+00  0.00000000e+00  0.00000000e+00  0.00000000e+00
  0.00000000e+00  0.00000000e+00  0.00000000e+00  0.00000000e+00
  0.00000000e+00  0.00000000e+00  0.00000000e+00  0.00000000e+00
  0.00000000e+00  0.00000000e+00  0.00000000e+00  0.00000000e+00
  0.00000000e+00  0.00000000e+00 -1.12488379e-06  6.42973967e-08
  0.00000000e+00  0.00000000e+00  0.00000000e+00  3.34369425e-06]","[[-3.59805169e-04  4.49439022e-03]
 [-4.30914069e-05 -7.19950490e-03]]",[],0.0,0.0
1787304637.3950038,1.5660899722098314,-0.4481367113086219,0.3722183432924066,"[ 1.17895996e-05 -9.50017460e-07  0.00000000e+00  0.00000000e+00
  0.00000000e+00 -8.17158335e-07 -9.50017460e-07  1.02926766e-05
  0.00000000e+00  0.00000000e+00  0.00000000e+00  1.01220840e-07
  0.00000000e+00  0.00000000e+00  0.00000000e+00  0.00000000e+00
  0.00000000e+00  0.00000000e+00  0.00000000e+00  0.00000000e+00
  0.00000000e+00  0.00000000e+00  0.00000000e+00  0.00000000e+00
  0.00000000e+00  0.00000000e+00  0.00000000e+00  0.00000000e+00
  0.00000000e+00  0.00000000e+00 -8.17158335e-07  1.01220840e-07
  0.00000000e+00  0.00000000e+00  0.00000000e+00  3.31625837e-06]","[[-2.71373448e-04  3.71934594e-03]
 [-6.04153993e-05 -5.23298983e-03]]",[],0.0,0.0
1787304637.4435914,1.5660899722098314,-0.4481367113086219,0.3722183432924066,"[ 1.17895996e-05 -9.50017460e-07  0.00000000e+00  0.00000000e+00
  0.00000000e+00 -8.17158335e-07 -9.50017460e-07  1.02926766e-05
  0.00000000e+00  0.00000000e+00  0.00000000e+00  1.01220840e-07
  0.00000000e+00  0.00000000e+00  0.00000000e+00  0.00000000e+00
  0.00000000e+00  0.00000000e+00  0.00000000e+00  0.00000000e+00
  0.00000000e+00  0.00000000e+00  0.00000000e+00  0.00000000e+00
  0.00000000e+00  0.00000000e+00  0.00000000e+00  0.00000000e+00
  0.00000000e+00  0.00000000e+00 -8.17158335e-07  1.01220840e-07
  0.00000000e+00  0.00000000e+00  0.00000000e+00  3.31625837e-06]","[[-2.71373448e-04  3.71934594e-03]
 [-6.04153993e-05 -5.23298983e-03]]",[],0.0,0.0
1787304637.5013812,1.5660899722098314,-0.4481367113086219,0.3722183432924066,"[ 1.17895996e-05 -9.50017460e-07  0.00000000e+00  0.00000000e+00
  0.00000000e+00 -8.17158335e-07 -9.50017460e-07  1.02926766e-05
  0.00000000e+00  0.00000000e+00  0.00000000e+00  1.01220840e-07
  0.00000000e+00  0.00000000e+00  0.00000000e+00  0.00000000e+00
  0.00000000e+00  0.00000000e+00  0.00000000e+00  0.00000000e+00
  0.00000000e+00  0.00000000e+00  0.00000000e+00  0.00000000e+00
  0.00000000e+00  0.00000000e+00  0.00000000e+00  0.00000000e+00
  0.00000000e+00  0.00000000e+00 -8.17158335e-07  1.01220840e-07
  0.00000000e+00  0.00000000e+00  0.00000000e+00  3.31625837e-06]","[[-2.71373448e-04  3.71934594e-03]
 [-6.04153993e-05 -5.23298983e-03]]",[],0.0,0.0
1787304637.550931,1.5660899722098314,-0.4481367113086219,0.3722183432924066,"[ 1.17895996e-05 -9.50017460e-07  0.00000000e+00  0.00000000e+00
  0.00000000e+00 -8.17158335e-07 -9.50017460e-07  1.02926766e-05
  0.00000000e+00  0.00000000e+00  0.00000000e+00  1.01220840e-07
  0.00000000e+00  0.00000000e+00  0.00000000e+00  0.00000000e+00
  0.00000000e+00  0.00000000e+00  0.00000000e+00  0.00000000e+00
  0.00000000e+00  0.00000000e+00  0.00000000e+00  0.00000000e+00
  0.00000000e+00  0.00000000e+00  0.00000000e+00  0.00000000e+00
  0.00000000e+00  0.00000000e+00 -8.17158335e-07  1.01220840e-07
  0.00000000e+00  0.00000000e+00  0.00000000e+00  3.31625837e-06]","[[-2.71373448e-04  3.71934594e-03]
 [-6.04153993e-05 -5.23298983e-03]]",[],0.0,0.0
1787304637.5962284,1.5660899722098314,-0.4481367113086219,0.3722183432924066,"[ 1.17895996e-05 -9.50017460e-07  0.00000000e+00  0.00000000e+00
  0.00000000e+00 -8.17158335e-07 -9.50017460e-07  1.02926766e-05
  0.00000000e+00  0.00000000e+00  0.00000000e+00  1.01220840e-07
  0.00000000e+00  0.00000000e+00  0.00000000e+00  0.00000000e+00
  0.00000000e+00  0.00000000e+00  0.00000000e+00  0.00000000e+00
  0.00000000e+00  0.00000000e+00  0.00000000e+00  0.00000000e+00
  0.00000000e+00  0.00000000e+00  0.00000000e+00  0.00000000e+00
  0.00000000e+00  0.00000000e+00 -8.17158335e-07  1.01220840e-07
  0.00000000e+00  0.00000000e+00  0.00000000e+00  3.31625837e-06]","[[-2.71373448e-04  3.71934594e-03]
 [-6.04153993e-05 -5.23298983e-03]]",[],0.0,0.0
1787304637.642386,1.5660899722098314,-0.4481367113086219,0.3722183432924066,"[ 1.17895996e-05 -9.50017460e-07  0.00000000e+00  0.00000000e+00
  0.00000000e+00 -8.17158335e-07 -9.50017460e-07  1.02926766e-05
  0.00000000e+00  0.00000000e+00  0.00000000e+00  1.01220840e-07
  0.00000000e+00  0.00000000e+00  0.00000000e+00  0.00000000e+00
  0.00000000e+00  0.00000000e+00  0.00000000e+00  0.00000000e+00
  0.00000000e+00  0.00000000e+00  0.00000000e+00  0.00000000e+00
  0.00000000e+00  0.00000000e+00  0.00000000e+00  0.00000000e+00
  0.00000000e+00  0.00000000e+00 -8.17158335e-07  1.01220840e-07
  0.00000000e+00  0.00000000e+00  0.00000000e+00  3.31625837e-06]","[[-2.71373448e-04  3.71934594e-03]
 [-6.04153993e-05 -5.23298983e-03]]",[],0.0,0.0
1787304637.7003026,1.5660899722098314,-0.4481367113086219,0.3722183432924066,"[ 1.17895996e-05 -9.50017460e-07  0.00000000e+00  0.00000000e+00
  0.00000000e+00 -8.17158335e-07 -9.50017460e-07  1.02926766e-05
  0.00000000e+00  0.00000000e+00  0.00000000e+00  1.01220840e-07
  0.00000000e+00  0.00000000e+00  0.00000000e+00  0.00000000e+00
  0.00000000e+00  0.00000000e+00  0.00000000e+00  0.00000000e+00
  0.00000000e+00  0.00000000e+00  0.00000000e+00  0.00000000e+00
  0.00000000e+00  0.00000000e+00  0.00000000e+00  0.00000000e+00
  0.00000000e+00  0.00000000e+00 -8.17158335e-07  1.01220840e-07
  0.00000000e+00  0.00000000e+00  0.00000000e+00  3.31625837e-06]","[[-2.71373448e-04  3.71934594e-03]
 [-6.04153993e-05 -5.23298983e-03]]",[],0.0,0.0
1787304637.7427542,1.5660899722098314,-0.4481367113086219,0.3722183432924066,"[ 1.17895996e-05 -9.50017460e-07  0.00000000e+00  0.00000000e+00
  0.00000000e+00 -8.17158335e-07 -9.50017460e-07  1.02926766e-05
  0.00000000e+00  0.00000000e+00  0.00000000e+00  1.01220840e-07
  0.00000000e+00  0.00000000e+00  0.00000000e+00  0.00000000e+00
  0.00000000e+00  0.00000000e+00  0.00000000e+00  0.00000000e+00
  0.00000000e+00  0.00000000e+00  0.00000000e+00  0.00000000e+00
  0.00000000e+00  0.00000000e+00  0.00000000e+00  0.00000000e+00
  0.00000000e+00  0.00000000e+00 -8.17158335e-07  1.01220840e-07
  0.00000000e+00  0.00000000e+00  0.00000000e+00  3.31625837e-06]","[[-2.71373448e-04  3.71934594e-03]
 [-6.04153993e-05 -5.23298983e-03]]",[],0.0,0.0
1787304637.7934027,1.5660899722098314,-0.4481367113086219,0.3722183432924066,"[ 1.17895996e-05 -9.50017460e-07  0.00000000e+00  0.00000000e+00
  0.00000000e+00 -8.17158335e-07 -9.50017460e-07  1.02926766e-05
  0.00000000e+00  0.00000000e+00  0.00000000e+00  1.01220840e-07
  0.00000000e+00  0.00000000e+00  0.00000000e+00  0.00000000e+00
  0.00000000e+00  0.00000000e+00  0.00000000e+00  0.00000000e+00
  0.00000000e+00  0.00000000e+00  0.00000000e+00  0.00000000e+00
  0.00000000e+00  0.00000000e+00  0.00000000e+00  0.00000000e+00
  0.00000000e+00  0.00000000e+00 -8.17158335e-07  1.01220840e-07
  0.00000000e+00  0.00000000e+00  0.00000000e+00  3.31625837e-06]","[[-2.71373448e-04  3.71934594e-03]
 [-6.04153993e-05 -5.23298983e-03]]",[],0.0,0.0
1787304637.8452954,1.5660899722098314,-0.4481367113086219,0.3722183432924066,"[ 1.17895996e-05 -9.50017460e-07  0.00000000e+00  0.00000000e+00
  0.00000000e+00 -8.17158335e-07 -9.50017460e-07  1.02926766e-05
  0.00000000e+00  0.00000000e+00  0.00000000e+00  1.01220840e-07
  0.00000000e+00  0.00000000e+00  0.00000000e+00  0.00000000e+00
  0.00000000e+00  0.00000000e+00  0.00000000e+00  0.00000000e+00
  0.00000000e+00  0.00000000e+00  0.00000000e+00  0.00000000e+00
  0.00000000e+00  0.00000000e+00  0.00000000e+00  0.00000000e+00
  0.00000000e+00  0.00000000e+00 -8.17158335e-07  1.01220840e-07
  0.00000000e+00  0.00000000e+00  0.00000000e+00  3.31625837e-06]","[[-2.71373448e-04  3.71934594e-03]
 [-6.04153993e-05 -5.23298983e-03]]",[],0.0,0.0
1787304637.8969934,1.5660899722098314,-0.4481367113086219,0.3722183432924066,"[ 1.17895996e-05 -9.50017460e-07  0.00000000e+00  0.00000000e+00
  0.00000000e+00 -8.17158335e-07 -9.50017460e-07  1.02926766e-05
  0.00000000e+00  0.00000000e+00  0.00000000e+00  1.01220840e-07
  0.00000000e+00  0.00000000e+00  0.00000000e+00  0.00000000e+00
  0.00000000e+00  0.00000000e+00  0.00000000e+00  0.00000000e+00
  0.00000000e+00  0.00000000e+00  0.00000000e+00  0.00000000e+00
  0.00000000e+00  0.00000000e+00  0.00000000e+00  0.00000000e+00
  0.00000000e+00  0.00000000e+00 -8.17158335e-07  1.01220840e-07
  0.00000000e+00  0.00000000e+00  0.00000000e+00  3.31625837e-06]","[[-2.71373448e-04  3.71934594e-03]
 [-6.04153993e-05 -5.23298983e-03]]",[],0.0,0.0
1787304637.9426649,1.5660899722098314,-0.4481367113086219,0.3722183432924066,"[ 1.17895996e-05 -9.50017460e-07  0.00000000e+00  0.00000000e+00
  0.00000000e+00 -8.17158335e-07 -9.50017460e-07  1.02926766e-05
  0.00000000e+00  0.00000000e+00  0.00000000e+00  1.01220840e-07
  0.00000000e+00  0.00000000e+00  0.00000000e+00  0.00000000e+00
  0.00000000e+00  0.00000000e+00  0.00000000e+00  0.00000000e+00
  0.00000000e+00  0.00000000e+00  0.00000000e+00  0.00000000e+00
  0.00000000e+00  0.00000000e+00  0.00000000e+00  0.00000000e+00
  0.00000000e+00  0.00000000e+00 -8.17158335e-07  1.01220840e-07
  0.00000000e+00  0.00000000e+00  0.00000000e+00  3.31625837e-06]","[[-2.71373448e-04  3.71934594e-03]
 [-6.04153993e-05 -5.23298983e-03]]",[],0.0,0.0
1787304638.0010097,1.5660899722098314,-0.4481367113086219,0.3722183432924066,"[ 1.17895996e-05 -9.50017460e-07  0.00000000e+00  0.00000000e+00
  0.00000000e+00 -8.17158335e-07 -9.50017460e-07  1.02926766e-05
  0.00000000e+00  0.00000000e+00  0.00000000e+00  1.01220840e-07
  0.00000000e+00  0.00000000e+00  0.00000000e+00  0.00000000e+00
  0.00000000e+00  0.00000000e+00  0.00000000e+00  0.00000000e+00
  0.00000000e+00  0.00000000e+00  0.00000000e+00  0.00000000e+00
  0.00000000e+00  0.00000000e+00  0.00000000e+00  0.00000000e+00
  0.00000000e+00  0.00000000e+00 -8.17158335e-07  1.01220840e-07
  0.00000000e+00  0.00000000e+00  0.00000000e+00  3.31625837e-06]","[[-2.71373448e-04  3.71934594e-03]
 [-6.04153993e-05 -5.23298983e-03]]",[],0.0,0.0
1787304638.0424047,1.5660899722098314,-0.4481367113086219,0.3722183432924066,"[ 1.17895996e-05 -9.50017460e-07  0.00000000e+00  0.00000000e+00
  0.00000000e+00 -8.17158335e-07 -9.50017460e-07  1.02926766e-05
  0.00000000e+00  0.00000000e+00  0.00000000e+00  1.01220840e-07
  0.00000000e+00  0.00000000e+00  0.00000000e+00  0.00000000e+00
  0.00000000e+00  0.00000000e+00  0.00000000e+00  0.00000000e+00
  0.00000000e+00  0.00000000e+00  0.00000000e+00  0.00000000e+00
  0.00000000e+00  0.00000000e+00  0.00000000e+00  0.00000000e+00
  0.00000000e+00  0.00000000e+00 -8.17158335e-07  1.01220840e-07
  0.00000000e+00  0.00000000e+00  0.00000000e+00  3.31625837e-06]","[[-2.71373448e-04  3.71934594e-03]
 [-6.04153993e-05 -5.23298983e-03]]",[],0.0,0.0
1787304638.0966914,1.5660899722098314,-0.4481367113086219,0.3722183432924066,"[ 1.17895996e-05 -9.50017460e-07  0.00000000e+00  0.00000000e+00
  0.00000000e+00 -8.17158335e-07 -9.50017460e-07  1.02926766e-05
  0.00000000e+00  0.00000000e+00  0.00000000e+00  1.01220840e-07
  0.00000000e+00  0.00000000e+00  0.00000000e+00  0.00000000e+00
  0.00000000e+00  0.00000000e+00  0.00000000e+00  0.00000000e+00
  0.00000000e+00  0.00000000e+00  0.00000000e+00  0.00000000e+00
  0.00000000e+00  0.00000000e+00  0.00000000e+00  0.00000000e+00
  0.00000000e+00  0.00000000e+00 -8.17158335e-07  1.01220840e-07
  0.00000000e+00  0.00000000e+00  0.00000000e+00  3.31625837e-06]","[[-2.71373448e-04  3.71934594e-03]
 [-6.04153993e-05 -5.23298983e-03]]",[],0.0,0.0
1787304638.14727,1.5660899722098314,-0.4481367113086219,0.3722183432924066,"[ 1.17895996e-05 -9.50017460e-07  0.00000000e+00  0.00000000e+00
  0.00000000e+00 -8.17158335e-07 -9.50017460e-07  1.02926766e-05
  0.00000000e+00  0.00000000e+00  0.00000000e+00  1.01220840e-07
  0.00000000e+00  0.00000000e+00  0.00000000e+00  0.00000000e+00
  0.00000000e+00  0.00000000e+00  0.00000000e+00  0.00000000e+00
  0.00000000e+00  0.00000000e+00  0.00000000e+00  0.00000000e+00
  0.00000000e+00  0.00000000e+00  0.00000000e+00  0.00000000e+00
  0.00000000e+00  0.00000000e+00 -8.17158335e-07  1.01220840e-07
  0.00000000e+00  0.00000000e+00  0.00000000e+00  3.31625837e-06]","[[-2.71373448e-04  3.71934594e-03]
 [-6.04153993e-05 -5.23298983e-03]]",[],0.0,0.0
1787304638.1923735,1.5660899722098314,-0.4481367113086219,0.3722183432924066,"[ 1.17895996e-05 -9.50017460e-07  0.00000000e+00  0.00000000e+00
  0.00000000e+00 -8.17158335e-07 -9.50017460e-07  1.02926766e-05
  0.00000000e+00  0.00000000e+00  0.00000000e+00  1.01220840e-07
  0.00000000e+00  0.00000000e+00  0.00000000e+00  0.00000000e+00
  0.00000000e+00  0.00000000e+00  0.00000000e+00  0.00000000e+00
  0.00000000e+00  0.00000000e+00  0.00000000e+00  0.00000000e+00
  0.00000000e+00  0.00000000e+00  0.00000000e+00  0.00000000e+00
  0.00000000e+00  0.00000000e+00 -8.17158335e-07  1.01220840e-07
  0.00000000e+00  0.00000000e+00  0.00000000e+00  3.31625837e-06]","[[-2.71373448e-04  3.71934594e-03]
 [-6.04153993e-05 -5.23298983e-03]]",[],0.0,0.0
1787304638.2469552,1.5660899722098314,-0.4481367113086219,0.3722183432924066,"[ 1.17895996e-05 -9.50017460e-07  0.00000000e+00  0.00000000e+00
  0.00000000e+00 -8.17158335e-07 -9.50017460e-07  1.02926766e-05
  0.00000000e+00  0.00000000e+00  0.00000000e+00  1.01220840e-07
  0.00000000e+00  0.00000000e+00  0.00000000e+00  0.00000000e+00
  0.00000000e+00  0.00000000e+00  0.00000000e+00  0.00000000e+00
  0.00000000e+00  0.00000000e+00  0.00000000e+00  0.00000000e+00
  0.00000000e+00  0.00000000e+00  0.00000000e+00  0.00000000e+00
  0.00000000e+00  0.00000000e+00 -8.17158335e-07  1.01220840e-07
  0.00000000e+00  0.00000000e+00  0.00000000e+00  3.31625837e-06]","[[-2.71373448e-04  3.71934594e-03]
 [-6.04153993e-05 -5.23298983e-03]]",[],0.0,0.0
1787304638.293263,1.5660899722098314,-0.4481367113086219,0.3722183432924066,"[ 1.17895996e-05 -9.50017460e-07  0.00000000e+00  0.00000000e+00
  0.00000000e+00 -8.17158335e-07 -9.50017460e-07  1.02926766e-05
  0.00000000e+00  0.00000000e+00  0.00000000e+00  1.01220840e-07
  0.00000000e+00  0.00000000e+00  0.00000000e+00  0.00000000e+00
  0.00000000e+00  0.00000000e+00  0.00000000e+00  0.00000000e+00
  0.00000000e+00  0.00000000e+00  0.00000000e+00  0.00000000e+00
  0.00000000e+00  0.00000000e+00  0.00000000e+00  0.00000000e+00
  0.00000000e+00  0.00000000e+00 -8.17158335e-07  1.01220840e-07
  0.00000000e+00  0.00000000e+00  0.00000000e+00  3.31625837e-06]","[[-2.71373448e-04  3.71934594e-03]
 [-6.04153993e-05 -5.23298983e-03]]",[],0.0,0.0
1787304638.3443913,1.5660899722098314,-0.4481367113086219,0.3722183432924066,"[ 1.17895996e-05 -9.50017460e-07  0.00000000e+00  0.00000000e+00
  0.00000000e+00 -8.17158335e-07 -9.50017460e-07  1.02926766e-05
  0.00000000e+00  0.00000000e+00  0.00000000e+00  1.01220840e-07
  0.00000000e+00  0.00000000e+00  0.00000000e+00  0.00000000e+00
  0.00000000e+00  0.00000000e+00  0.00000000e+00  0.00000000e+00
  0.00000000e+00  0.00000000e+00  0.00000000e+00  0.00000000e+00
  0.00000000e+00  0.00000000e+00  0.00000000e+00  0.00000000e+00
  0.00000000e+00  0.00000000e+00 -8.17158335e-07  1.01220840e-07
  0.00000000e+00  0.00000000e+00  0.00000000e+00  3.31625837e-06]","[[-2.71373448e-04  3.71934594e-03]
 [-6.04153993e-05 -5.23298983e-03]]",[],0.0,0.0
1787304638.3952858,1.5660899722098314,-0.4481367113086219,0.3722183432924066,"[ 1.17895996e-05 -9.50017460e-07  0.00000000e+00  0.00000000e+00
  0.00000000e+00 -8.17158335e-07 -9.50017460e-07  1.02926766e-05
  0.00000000e+00  0.00000000e+00  0.00000000e+00  1.01220840e-07
  0.00000000e+00  0.00000000e+00  0.00000000e+00  0.00000000e+00
  0.00000000e+00  0.00000000e+00  0.00000000e+00  0.00000000e+00
  0.00000000e+00  0.00000000e+00  0.00000000e+00  0.00000000e+00
  0.00000000e+00  0.00000000e+00  0.00000000e+00  0.00000000e+00
  0.00000000e+00  0.00000000e+00 -8.17158335e-07  1.01220840e-07
  0.00000000e+00  0.00000000e+00  0.00000000e+00  3.31625837e-06]","[[-2.71373448e-04  3.71934594e-03]
 [-6.04153993e-05 -5.23298983e-03]]",[],0.0,0.0
1787304638.451264,1.5660899722098314,-0.4481367113086219,0.3722183432924066,"[ 1.17895996e-05 -9.50017460e-07  0.00000000e+00  0.00000000e+00
  0.00000000e+00 -8.17158335e-07 -9.50017460e-07  1.02926766e-05
  0.00000000e+00  0.00000000e+00  0.00000000e+00  1.01220840e-07
  0.00000000e+00  0.00000000e+00  0.00000000e+00  0.00000000e+00
  0.00000000e+00  0.00000000e+00  0.00000000e+00  0.00000000e+00
  0.00000000e+00  0.00000000e+00  0.00000000e+00  0.00000000e+00
  0.00000000e+00  0.00000000e+00  0.00000000e+00  0.00000000e+00
  0.00000000e+00  0.00000000e+00 -8.17158335e-07  1.01220840e-07
  0.00000000e+00  0.00000000e+00  0.00000000e+00  3.31625837e-06]","[[-2.71373448e-04  3.71934594e-03]
 [-6.04153993e-05 -5.23298983e-03]]",[],0.0,0.0
1787304638.4954834,1.5660899722098314,-0.4481367113086219,0.3722183432924066,"[ 1.17895996e-05 -9.50017460e-07  0.00000000e+00  0.00000000e+00
  0.00000000e+00 -8.17158335e-07 -9.50017460e-07  1.02926766e-05
  0.00000000e+00  0.00000000e+00  0.00000000e+00  1.01220840e-07
  0.00000000e+00  0.00000000e+00  0.00000000e+00  0.00000000e+00
  0.00000000e+00  0.00000000e+00  0.00000000e+00  0.00000000e+00
  0.00000000e+00  0.00000000e+00  0.00000000e+00  0.00000000e+00
  0.00000000e+00  0.00000000e+00  0.00000000e+00  0.00000000e+00
  0.00000000e+00  0.00000000e+00 -8.17158335e-07  1.01220840e-07
  0.00000000e+00  0.00000000e+00  0.00000000e+00  3.31625837e-06]","[[-2.71373448e-04  3.71934594e-03]
 [-6.04153993e-05 -5.23298983e-03]]",[],0.0,0.0
1787304638.5750375,1.5660899722098314,-0.4481367113086219,0.3722183432924066,"[ 1.17895996e-05 -9.50017460e-07  0.00000000e+00  0.00000000e+00
  0.00000000e+00 -8.17158335e-07 -9.50017460e-07  1.02926766e-05
  0.00000000e+00  0.00000000e+00  0.00000000e+00  1.01220840e-07
  0.00000000e+00  0.00000000e+00  0.00000000e+00  0.00000000e+00
  0.00000000e+00  0.00000000e+00  0.00000000e+00  0.00000000e+00
  0.00000000e+00  0.00000000e+00  0.00000000e+00  0.00000000e+00
  0.00000000e+00  0.00000000e+00  0.00000000e+00  0.00000000e+00
  0.00000000e+00  0.00000000e+00 -8.17158335e-07  1.01220840e-07
  0.00000000e+00  0.00000000e+00  0.00000000e+00  3.31625837e-06]","[[-2.71373448e-04  3.71934594e-03]
 [-6.04153993e-05 -5.23298983e-03]]",[],0.0,0.0
1787304638.5936255,1.5660899722098314,-0.4481367113086219,0.3722183432924066,"[ 1.17895996e-05 -9.50017460e-07  0.00000000e+00  0.00000000e+00
  0.00000000e+00 -8.17158335e-07 -9.50017460e-07  1.02926766e-05
  0.00000000e+00  0.00000000e+00  0.00000000e+00  1.01220840e-07
  0.00000000e+00  0.00000000e+00  0.00000000e+00  0.00000000e+00
  0.00000000e+00  0.00000000e+00  0.00000000e+00  0.00000000e+00
  0.00000000e+00  0.00000000e+00  0.00000000e+00  0.00000000e+00
  0.00000000e+00  0.00000000e+00  0.00000000e+00  0.00000000e+00
  0.00000000e+00  0.00000000e+00 -8.17158335e-07  1.01220840e-07
  0.00000000e+00  0.00000000e+00  0.00000000e+00  3.31625837e-06]","[[-2.71373448e-04  3.71934594e-03]
 [-6.04153993e-05 -5.23298983e-03]]",[],0.0,0.0
1787304638.6425738,1.5660899722098314,-0.4481367113086219,0.3722183432924066,"[ 1.17895996e-05 -9.50017460e-07  0.00000000e+00  0.00000000e+00
  0.00000000e+00 -8.17158335e-07 -9.50017460e-07  1.02926766e-05
  0.00000000e+00  0.00000000e+00  0.00000000e+00  1.01220840e-07
  0.00000000e+00  0.00000000e+00  0.00000000e+00  0.00000000e+00
  0.00000000e+00  0.00000000e+00  0.00000000e+00  0.00000000e+00
  0.00000000e+00  0.00000000e+00  0.00000000e+00  0.00000000e+00
  0.00000000e+00  0.00000000e+00  0.00000000e+00  0.00000000e+00
  0.00000000e+00  0.00000000e+00 -8.17158335e-07  1.01220840e-07
  0.00000000e+00  0.00000000e+00  0.00000000e+00  3.31625837e-06]","[[-2.71373448e-04  3.71934594e-03]
 [-6.04153993e-05 -5.23298983e-03]]",[],0.0,0.0
1787304638.6952882,1.5660899722098314,-0.4481367113086219,0.3722183432924066,"[ 1.17895996e-05 -9.50017460e-07  0.00000000e+00  0.00000000e+00
  0.00000000e+00 -8.17158335e-07 -9.50017460e-07  1.02926766e-05
  0.00000000e+00  0.00000000e+00  0.00000000e+00  1.01220840e-07
  0.00000000e+00  0.00000000e+00  0.00000000e+00  0.00000000e+00
  0.00000000e+00  0.00000000e+00  0.00000000e+00  0.00000000e+00
  0.00000000e+00  0.00000000e+00  0.00000000e+00  0.00000000e+00
  0.00000000e+00  0.00000000e+00  0.00000000e+00  0.00000000e+00
  0.00000000e+00  0.00000000e+00 -8.17158335e-07  1.01220840e-07
  0.00000000e+00  0.00000000e+00  0.00000000e+00  3.31625837e-06]","[[-2.71373448e-04  3.71934594e-03]
 [-6.04153993e-05 -5.23298983e-03]]",[],0.0,0.0
1787304638.7422113,1.5660899722098314,-0.4481367113086219,0.3722183432924066,"[ 1.17895996e-05 -9.50017460e-07  0.00000000e+00  0.00000000e+00
  0.00000000e+00 -8.17158335e-07 -9.50017460e-07  1.02926766e-05
  0.00000000e+00  0.00000000e+00  0.00000000e+00  1.01220840e-07
  0.00000000e+00  0.00000000e+00  0.00000000e+00  0.00000000e+00
  0.00000000e+00  0.00000000e+00  0.00000000e+00  0.00000000e+00
  0.00000000e+00  0.00000000e+00  0.00000000e+00  0.00000000e+00
  0.00000000e+00  0.00000000e+00  0.00000000e+00  0.00000000e+00
  0.00000000e+00  0.00000000e+00 -8.17158335e-07  1.01220840e-07
  0.00000000e+00  0.00000000e+00  0.00000000e+00  3.31625837e-06]","[[-2.71373448e-04  3.71934594e-03]
 [-6.04153993e-05 -5.23298983e-03]]",[],0.0,0.0
1787304638.792442,1.5660899722098314,-0.4481367113086219,0.3722183432924066,"[ 1.17895996e-05 -9.50017460e-07  0.00000000e+00  0.00000000e+00
  0.00000000e+00 -8.17158335e-07 -9.50017460e-07  1.02926766e-05
  0.00000000e+00  0.00000000e+00  0.00000000e+00  1.01220840e-07
  0.00000000e+00  0.00000000e+00  0.00000000e+00  0.00000000e+00
  0.00000000e+00  0.00000000e+00  0.00000000e+00  0.00000000e+00
  0.00000000e+00  0.00000000e+00  0.00000000e+00  0.00000000e+00
  0.00000000e+00  0.00000000e+00  0.00000000e+00  0.00000000e+00
  0.00000000e+00  0.00000000e+00 -8.17158335e-07  1.01220840e-07
  0.00000000e+00  0.00000000e+00  0.00000000e+00  3.31625837e-06]","[[-2.71373448e-04  3.71934594e-03]
 [-6.04153993e-05 -5.23298983e-03]]",[],0.0,0.0
1787304638.8421705,1.5660899722098314,-0.4481367113086219,0.3722183432924066,"[ 1.17895996e-05 -9.50017460e-07  0.00000000e+00  0.00000000e+00
  0.00000000e+00 -8.17158335e-07 -9.50017460e-07  1.02926766e-05
  0.00000000e+00  0.00000000e+00  0.00000000e+00  1.01220840e-07
  0.00000000e+00  0.00000000e+00  0.00000000e+00  0.00000000e+00
  0.00000000e+00  0.00000000e+00  0.00000000e+00  0.00000000e+00
  0.00000000e+00  0.00000000e+00  0.00000000e+00  0.00000000e+00
  0.00000000e+00  0.00000000e+00  0.00000000e+00  0.00000000e+00
  0.00000000e+00  0.00000000e+00 -8.17158335e-07  1.01220840e-07
  0.00000000e+00  0.00000000e+00  0.00000000e+00  3.31625837e-06]","[[-2.71373448e-04  3.71934594e-03]
 [-6.04153993e-05 -5.23298983e-03]]",[],0.0,0.0
1787304638.907489,1.5660899722098314,-0.4481367113086219,0.3722183432924066,"[ 1.17895996e-05 -9.50017460e-07  0.00000000e+00  0.00000000e+00
  0.00000000e+00 -8.17158335e-07 -9.50017460e-07  1.02926766e-05
  0.00000000e+00  0.00000000e+00  0.00000000e+00  1.01220840e-07
  0.00000000e+00  0.00000000e+00  0.00000000e+00  0.00000000e+00
  0.00000000e+00  0.00000000e+00  0.00000000e+00  0.00000000e+00
  0.00000000e+00  0.00000000e+00  0.00000000e+00  0.00000000e+00
  0.00000000e+00  0.00000000e+00  0.00000000e+00  0.00000000e+00
  0.00000000e+00  0.00000000e+00 -8.17158335e-07  1.01220840e-07
  0.00000000e+00  0.00000000e+00  0.00000000e+00  3.31625837e-06]","[[-2.71373448e-04  3.71934594e-03]
 [-6.04153993e-05 -5.23298983e-03]]",[],0.0,0.0
1787304638.944909,1.580323323083898,-0.4370219567813609,0.3900767664782916,"[ 9.81617177e-06 -6.66311924e-07  0.00000000e+00  0.00000000e+00
  0.00000000e+00 -7.23095469e-07 -6.66311924e-07  8.31547948e-06
  0.00000000e+00  0.00000000e+00  0.00000000e+00  1.14406432e-08
  0.00000000e+00  0.00000000e+00  0.00000000e+00  0.00000000e+00
  0.00000000e+00  0.00000000e+00  0.00000000e+00  0.00000000e+00
  0.00000000e+00  0.00000000e+00  0.00000000e+00  0.00000000e+00
  0.00000000e+00  0.00000000e+00  0.00000000e+00  0.00000000e+00
  0.00000000e+00  0.00000000e+00 -7.23095469e-07  1.14406432e-08
  0.00000000e+00  0.00000000e+00  0.00000000e+00  3.37615870e-06]","[[-2.24444211e-04  3.29905932e-03]
 [-5.63777731e-05 -4.21538436e-03]]",[],0.0,0.0
1787304638.995962,1.580323323083898,-0.4370219567813609,0.3900767664782916,"[ 9.81617177e-06 -6.66311924e-07  0.00000000e+00  0.00000000e+00
  0.00000000e+00 -7.23095469e-07 -6.66311924e-07  8.31547948e-06
  0.00000000e+00  0.00000000e+00  0.00000000e+00  1.14406432e-08
  0.00000000e+00  0.00000000e+00  0.00000000e+00  0.00000000e+00
  0.00000000e+00  0.00000000e+00  0.00000000e+00  0.00000000e+00
  0.00000000e+00  0.00000000e+00  0.00000000e+00  0.00000000e+00
  0.00000000e+00  0.00000000e+00  0.00000000e+00  0.00000000e+00
  0.00000000e+00  0.00000000e+00 -7.23095469e-07  1.14406432e-08
  0.00000000e+00  0.00000000e+00  0.00000000e+00  3.37615870e-06]","[[-2.24444211e-04  3.29905932e-03]
 [-5.63777731e-05 -4.21538436e-03]]",[],0.0,0.0
1787304639.0429559,1.580323323083898,-0.4370219567813609,0.3900767664782916,"[ 9.81617177e-06 -6.66311924e-07  0.00000000e+00  0.00000000e+00
  0.00000000e+00 -7.23095469e-07 -6.66311924e-07  8.31547948e-06
  0.00000000e+00  0.00000000e+00  0.00000000e+00  1.14406432e-08
  0.00000000e+00  0.00000000e+00  0.00000000e+00  0.00000000e+00
  0.00000000e+00  0.00000000e+00  0.00000000e+00  0.00000000e+00
  0.00000000e+00  0.00000000e+00  0.00000000e+00  0.00000000e+00
  0.00000000e+00  0.00000000e+00  0.00000000e+00  0.00000000e+00
  0.00000000e+00  0.00000000e+00 -7.23095469e-07  1.14406432e-08
  0.00000000e+00  0.00000000e+00  0.00000000e+00  3.37615870e-06]","[[-2.24444211e-04  3.29905932e-03]
 [-5.63777731e-05 -4.21538436e-03]]",[],0.0,0.0
1787304639.095183,1.580323323083898,-0.4370219567813609,0.3900767664782916,"[ 9.81617177e-06 -6.66311924e-07  0.00000000e+00  0.00000000e+00
  0.00000000e+00 -7.23095469e-07 -6.66311924e-07  8.31547948e-06
  0.00000000e+00  0.00000000e+00  0.00000000e+00  1.14406432e-08
  0.00000000e+00  0.00000000e+00  0.00000000e+00  0.00000000e+00
  0.00000000e+00  0.00000000e+00  0.00000000e+00  0.00000000e+00
  0.00000000e+00  0.00000000e+00  0.00000000e+00  0.00000000e+00
  0.00000000e+00  0.00000000e+00  0.00000000e+00  0.00000000e+00
  0.00000000e+00  0.00000000e+00 -7.23095469e-07  1.14406432e-08
  0.00000000e+00  0.00000000e+00  0.00000000e+00  3.37615870e-06]","[[-2.24444211e-04  3.29905932e-03]
 [-5.63777731e-05 -4.21538436e-03]]",[],0.0,0.0
1787304639.1441133,1.580323323083898,-0.4370219567813609,0.3900767664782916,"[ 9.81617177e-06 -6.66311924e-07  0.00000000e+00  0.00000000e+00
  0.00000000e+00 -7.23095469e-07 -6.66311924e-07  8.31547948e-06
  0.00000000e+00  0.00000000e+00  0.00000000e+00  1.14406432e-08
  0.00000000e+00  0.00000000e+00  0.00000000e+00  0.00000000e+00
  0.00000000e+00  0.00000000e+00  0.00000000e+00  0.00000000e+00
  0.00000000e+00  0.00000000e+00  0.00000000e+00  0.00000000e+00
  0.00000000e+00  0.00000000e+00  0.00000000e+00  0.00000000e+00
  0.00000000e+00  0.00000000e+00 -7.23095469e-07  1.14406432e-08
  0.00000000e+00  0.00000000e+00  0.00000000e+00  3.37615870e-06]","[[-2.24444211e-04  3.29905932e-03]
 [-5.63777731e-05 -4.21538436e-03]]",[],0.0,0.0
1787304639.1982405,1.580323323083898,-0.4370219567813609,0.3900767664782916,"[ 9.81617177e-06 -6.66311924e-07  0.00000000e+00  0.00000000e+00
  0.00000000e+00 -7.23095469e-07 -6.66311924e-07  8.31547948e-06
  0.00000000e+00  0.00000000e+00  0.00000000e+00  1.14406432e-08
  0.00000000e+00  0.00000000e+00  0.00000000e+00  0.00000000e+00
  0.00000000e+00  0.00000000e+00  0.00000000e+00  0.00000000e+00
  0.00000000e+00  0.00000000e+00  0.00000000e+00  0.00000000e+00
  0.00000000e+00  0.00000000e+00  0.00000000e+00  0.00000000e+00
  0.00000000e+00  0.00000000e+00 -7.23095469e-07  1.14406432e-08
  0.00000000e+00  0.00000000e+00  0.00000000e+00  3.37615870e-06]","[[-2.24444211e-04  3.29905932e-03]
 [-5.63777731e-05 -4.21538436e-03]]",[],0.0,0.0
1787304639.244555,1.580323323083898,-0.4370219567813609,0.3900767664782916,"[ 9.81617177e-06 -6.66311924e-07  0.00000000e+00  0.00000000e+00
  0.00000000e+00 -7.23095469e-07 -6.66311924e-07  8.31547948e-06
  0.00000000e+00  0.00000000e+00  0.00000000e+00  1.14406432e-08
  0.00000000e+00  0.00000000e+00  0.00000000e+00  0.00000000e+00
  0.00000000e+00  0.00000000e+00  0.00000000e+00  0.00000000e+00
  0.00000000e+00  0.00000000e+00  0.00000000e+00  0.00000000e+00
  0.00000000e+00  0.00000000e+00  0.00000000e+00  0.00000000e+00
  0.00000000e+00  0.00000000e+00 -7.23095469e-07  1.14406432e-08
  0.00000000e+00  0.00000000e+00  0.00000000e+00  3.37615870e-06]","[[-2.24444211e-04  3.29905932e-03]
 [-5.63777731e-05 -4.21538436e-03]]",[],0.0,0.0
1787304639.2940462,1.580323323083898,-0.4370219567813609,0.3900767664782916,"[ 9.81617177e-06 -6.66311924e-07  0.00000000e+00  0.00000000e+00
  0.00000000e+00 -7.23095469e-07 -6.66311924e-07  8.31547948e-06
  0.00000000e+00  0.00000000e+00  0.00000000e+00  1.14406432e-08
  0.00000000e+00  0.00000000e+00  0.00000000e+00  0.00000000e+00
  0.00000000e+00  0.00000000e+00  0.00000000e+00  0.00000000e+00
  0.00000000e+00  0.00000000e+00  0.00000000e+00  0.00000000e+00
  0.00000000e+00  0.00000000e+00  0.00000000e+00  0.00000000e+00
  0.00000000e+00  0.00000000e+00 -7.23095469e-07  1.14406432e-08
  0.00000000e+00  0.00000000e+00  0.00000000e+00  3.37615870e-06]","[[-2.24444211e-04  3.29905932e-03]
 [-5.63777731e-05 -4.21538436e-03]]",[],0.0,0.0
1787304639.3448708,1.580323323083898,-0.4370219567813609,0.3900767664782916,"[ 9.81617177e-06 -6.66311924e-07  0.00000000e+00  0.00000000e+00
  0.00000000e+00 -7.23095469e-07 -6.66311924e-07  8.31547948e-06
  0.00000000e+00  0.00000000e+00  0.00000000e+00  1.14406432e-08
  0.00000000e+00  0.00000000e+00  0.00000000e+00  0.00000000e+00
  0.00000000e+00  0.00000000e+00  0.00000000e+00  0.00000000e+00
  0.00000000e+00  0.00000000e+00  0.00000000e+00  0.00000000e+00
  0.00000000e+00  0.00000000e+00  0.00000000e+00  0.00000000e+00
  0.00000000e+00  0.00000000e+00 -7.23095469e-07  1.14406432e-08
  0.00000000e+00  0.00000000e+00  0.00000000e+00  3.37615870e-06]","[[-2.24444211e-04  3.29905932e-03]
 [-5.63777731e-05 -4.21538436e-03]]",[],0.0,0.0
1787304639.3930173,1.580323323083898,-0.4370219567813609,0.3900767664782916,"[ 9.81617177e-06 -6.66311924e-07  0.00000000e+00  0.00000000e+00
  0.00000000e+00 -7.23095469e-07 -6.66311924e-07  8.31547948e-06
  0.00000000e+00  0.00000000e+00  0.00000000e+00  1.14406432e-08
  0.00000000e+00  0.00000000e+00  0.00000000e+00  0.00000000e+00
  0.00000000e+00  0.00000000e+00  0.00000000e+00  0.00000000e+00
  0.00000000e+00  0.00000000e+00  0.00000000e+00  0.00000000e+00
  0.00000000e+00  0.00000000e+00  0.00000000e+00  0.00000000e+00
  0.00000000e+00  0.00000000e+00 -7.23095469e-07  1.14406432e-08
  0.00000000e+00  0.00000000e+00  0.00000000e+00  3.37615870e-06]","[[-2.24444211e-04  3.29905932e-03]
 [-5.63777731e-05 -4.21538436e-03]]",[],0.0,0.0
1787304639.4461844,1.580323323083898,-0.4370219567813609,0.3900767664782916,"[ 9.81617177e-06 -6.66311924e-07  0.00000000e+00  0.00000000e+00
  0.00000000e+00 -7.23095469e-07 -6.66311924e-07  8.31547948e-06
  0.00000000e+00  0.00000000e+00  0.00000000e+00  1.14406432e-08
  0.00000000e+00  0.00000000e+00  0.00000000e+00  0.00000000e+00
  0.00000000e+00  0.00000000e+00  0.00000000e+00  0.00000000e+00
  0.00000000e+00  0.00000000e+00  0.00000000e+00  0.00000000e+00
  0.00000000e+00  0.00000000e+00  0.00000000e+00  0.00000000e+00
  0.00000000e+00  0.00000000e+00 -7.23095469e-07  1.14406432e-08
  0.00000000e+00  0.00000000e+00  0.00000000e+00  3.37615870e-06]","[[-2.24444211e-04  3.29905932e-03]
 [-5.63777731e-05 -4.21538436e-03]]",[],0.0,0.0
1787304639.494113,1.580323323083898,-0.4370219567813609,0.3900767664782916,"[ 9.81617177e-06 -6.66311924e-07  0.00000000e+00  0.00000000e+00
  0.00000000e+00 -7.23095469e-07 -6.66311924e-07  8.31547948e-06
  0.00000000e+00  0.00000000e+00  0.00000000e+00  1.14406432e-08
  0.00000000e+00  0.00000000e+00  0.00000000e+00  0.00000000e+00
  0.00000000e+00  0.00000000e+00  0.00000000e+00  0.00000000e+00
  0.00000000e+00  0.00000000e+00  0.00000000e+00  0.00000000e+00
  0.00000000e+00  0.00000000e+00  0.00000000e+00  0.00000000e+00
  0.00000000e+00  0.00000000e+00 -7.23095469e-07  1.14406432e-08
  0.00000000e+00  0.00000000e+00  0.00000000e+00  3.37615870e-06]","[[-2.24444211e-04  3.29905932e-03]
 [-5.63777731e-05 -4.21538436e-03]]",[],0.0,0.0
1787304639.5524235,1.580323323083898,-0.4370219567813609,0.3900767664782916,"[ 9.81617177e-06 -6.66311924e-07  0.00000000e+00  0.00000000e+00
  0.00000000e+00 -7.23095469e-07 -6.66311924e-07  8.31547948e-06
  0.00000000e+00  0.00000000e+00  0.00000000e+00  1.14406432e-08
  0.00000000e+00  0.00000000e+00  0.00000000e+00  0.00000000e+00
  0.00000000e+00  0.00000000e+00  0.00000000e+00  0.00000000e+00
  0.00000000e+00  0.00000000e+00  0.00000000e+00  0.00000000e+00
  0.00000000e+00  0.00000000e+00  0.00000000e+00  0.00000000e+00
  0.00000000e+00  0.00000000e+00 -7.23095469e-07  1.14406432e-08
  0.00000000e+00  0.00000000e+00  0.00000000e+00  3.37615870e-06]","[[-2.24444211e-04  3.29905932e-03]
 [-5.63777731e-05 -4.21538436e-03]]",[],0.0,0.0
1787304639.5926504,1.580323323083898,-0.4370219567813609,0.3900767664782916,"[ 9.81617177e-06 -6.66311924e-07  0.00000000e+00  0.00000000e+00
  0.00000000e+00 -7.23095469e-07 -6.66311924e-07  8.31547948e-06
  0.00000000e+00  0.00000000e+00  0.00000000e+00  1.14406432e-08
  0.00000000e+00  0.00000000e+00  0.00000000e+00  0.00000000e+00
  0.00000000e+00  0.00000000e+00  0.00000000e+00  0.00000000e+00
  0.00000000e+00  0.00000000e+00  0.00000000e+00  0.00000000e+00
  0.00000000e+00  0.00000000e+00  0.00000000e+00  0.00000000e+00
  0.00000000e+00  0.00000000e+00 -7.23095469e-07  1.14406432e-08
  0.00000000e+00  0.00000000e+00  0.00000000e+00  3.37615870e-06]","[[-2.24444211e-04  3.29905932e-03]
 [-5.63777731e-05 -4.21538436e-03]]",[],0.0,0.0
1787304639.6455333,1.580323323083898,-0.4370219567813609,0.3900767664782916,"[ 9.81617177e-06 -6.66311924e-07  0.00000000e+00  0.00000000e+00
  0.00000000e+00 -7.23095469e-07 -6.66311924e-07  8.31547948e-06
  0.00000000e+00  0.00000000e+00  0.00000000e+00  1.14406432e-08
  0.00000000e+00  0.00000000e+00  0.00000000e+00  0.00000000e+00
  0.00000000e+00  0.00000000e+00  0.00000000e+00  0.00000000e+00
  0.00000000e+00  0.00000000e+00  0.00000000e+00  0.00000000e+00
  0.00000000e+00  0.00000000e+00  0.00000000e+00  0.00000000e+00
  0.00000000e+00  0.00000000e+00 -7.23095469e-07  1.14406432e-08
  0.00000000e+00  0.00000000e+00  0.00000000e+00  3.37615870e-06]","[[-2.24444211e-04  3.29905932e-03]
 [-5.63777731e-05 -4.21538436e-03]]",[],0.0,0.0
1787304639.692439,1.580323323083898,-0.4370219567813609,0.3900767664782916,"[ 9.81617177e-06 -6.66311924e-07  0.00000000e+00  0.00000000e+00
  0.00000000e+00 -7.23095469e-07 -6.66311924e-07  8.31547948e-06
  0.00000000e+00  0.00000000e+00  0.00000000e+00  1.14406432e-08
  0.00000000e+00  0.00000000e+00  0.00000000e+00  0.00000000e+00
  0.00000000e+00  0.00000000e+00  0.00000000e+00  0.00000000e+00
  0.00000000e+00  0.00000000e+00  0.00000000e+00  0.00000000e+00
  0.00000000e+00  0.00000000e+00  0.00000000e+00  0.00000000e+00
  0.00000000e+00  0.00000000e+00 -7.23095469e-07  1.14406432e-08
  0.00000000e+00  0.00000000e+00  0.00000000e+00  3.37615870e-06]","[[-2.24444211e-04  3.29905932e-03]
 [-5.63777731e-05 -4.21538436e-03]]",[],0.0,0.0
1787304639.7492678,1.580323323083898,-0.4370219567813609,0.3900767664782916,"[ 9.81617177e-06 -6.66311924e-07  0.00000000e+00  0.00000000e+00
  0.00000000e+00 -7.23095469e-07 -6.66311924e-07  8.31547948e-06
  0.00000000e+00  0.00000000e+00  0.00000000e+00  1.14406432e-08
  0.00000000e+00  0.00000000e+00  0.00000000e+00  0.00000000e+00
  0.00000000e+00  0.00000000e+00  0.00000000e+00  0.00000000e+00
  0.00000000e+00  0.00000000e+00  0.00000000e+00  0.00000000e+00
  0.00000000e+00  0.00000000e+00  0.00000000e+00  0.00000000e+00
  0.00000000e+00  0.00000000e+00 -7.23095469e-07  1.14406432e-08
  0.00000000e+00  0.00000000e+00  0.00000000e+00  3.37615870e-06]","[[-2.24444211e-04  3.29905932e-03]
 [-5.63777731e-05 -4.21538436e-03]]",[],0.0,0.0
1787304639.7965672,1.580323323083898,-0.4370219567813609,0.3900767664782916,"[ 9.81617177e-06 -6.66311924e-07  0.00000000e+00  0.00000000e+00
  0.00000000e+00 -7.23095469e-07 -6.66311924e-07  8.31547948e-06
  0.00000000e+00  0.00000000e+00  0.00000000e+00  1.14406432e-08
  0.00000000e+00  0.00000000e+00  0.00000000e+00  0.00000000e+00
  0.00000000e+00  0.00000000e+00  0.00000000e+00  0.00000000e+00
  0.00000000e+00  0.00000000e+00  0.00000000e+00  0.00000000e+00
  0.00000000e+00  0.00000000e+00  0.00000000e+00  0.00000000e+00
  0.00000000e+00  0.00000000e+00 -7.23095469e-07  1.14406432e-08
  0.00000000e+00  0.00000000e+00  0.00000000e+00  3.37615870e-06]","[[-2.24444211e-04  3.29905932e-03]
 [-5.63777731e-05 -4.21538436e-03]]",[],0.0,0.0
1787304639.8421984,1.580323323083898,-0.4370219567813609,0.3900767664782916,"[ 9.81617177e-06 -6.66311924e-07  0.00000000e+00  0.00000000e+00
  0.00000000e+00 -7.23095469e-07 -6.66311924e-07  8.31547948e-06
  0.00000000e+00  0.00000000e+00  0.00000000e+00  1.14406432e-08
  0.00000000e+00  0.00000000e+00  0.00000000e+00  0.00000000e+00
  0.00000000e+00  0.00000000e+00  0.00000000e+00  0.00000000e+00
  0.00000000e+00  0.00000000e+00  0.00000000e+00  0.00000000e+00
  0.00000000e+00  0.00000000e+00  0.00000000e+00  0.00000000e+00
  0.00000000e+00  0.00000000e+00 -7.23095469e-07  1.14406432e-08
  0.00000000e+00  0.00000000e+00  0.00000000e+00  3.37615870e-06]","[[-2.24444211e-04  3.29905932e-03]
 [-5.63777731e-05 -4.21538436e-03]]",[],0.0,0.0
1787304639.8930423,1.580323323083898,-0.4370219567813609,0.3900767664782916,"[ 9.81617177e-06 -6.66311924e-07  0.00000000e+00  0.00000000e+00
  0.00000000e+00 -7.23095469e-07 -6.66311924e-07  8.31547948e-06
  0.00000000e+00  0.00000000e+00  0.00000000e+00  1.14406432e-08
  0.00000000e+00  0.00000000e+00  0.00000000e+00  0.00000000e+00
  0.00000000e+00  0.00000000e+00  0.00000000e+00  0.00000000e+00
  0.00000000e+00  0.00000000e+00  0.00000000e+00  0.00000000e+00
  0.00000000e+00  0.00000000e+00  0.00000000e+00  0.00000000e+00
  0.00000000e+00  0.00000000e+00 -7.23095469e-07  1.14406432e-08
  0.00000000e+00  0.00000000e+00  0.00000000e+00  3.37615870e-06]","[[-2.24444211e-04  3.29905932e-03]
 [-5.63777731e-05 -4.21538436e-03]]",[],0.0,0.0
1787304639.9424927,1.580323323083898,-0.4370219567813609,0.3900767664782916,"[ 9.81617177e-06 -6.66311924e-07  0.00000000e+00  0.00000000e+00
  0.00000000e+00 -7.23095469e-07 -6.66311924e-07  8.31547948e-06
  0.00000000e+00  0.00000000e+00  0.00000000e+00  1.14406432e-08
  0.00000000e+00  0.00000000e+00  0.00000000e+00  0.00000000e+00
  0.00000000e+00  0.00000000e+00  0.00000000e+00  0.00000000e+00
  0.00000000e+00  0.00000000e+00  0.00000000e+00  0.00000000e+00
  0.00000000e+00  0.00000000e+00  0.00000000e+00  0.00000000e+00
  0.00000000e+00  0.00000000e+00 -7.23095469e-07  1.14406432e-08
  0.00000000e+00  0.00000000e+00  0.00000000e+00  3.37615870e-06]","[[-2.24444211e-04  3.29905932e-03]
 [-5.63777731e-05 -4.21538436e-03]]",[],0.0,0.0
1787304640.0030694,1.580323323083898,-0.4370219567813609,0.3900767664782916,"[ 9.81617177e-06 -6.66311924e-07  0.00000000e+00  0.00000000e+00
  0.00000000e+00 -7.23095469e-07 -6.66311924e-07  8.31547948e-06
  0.00000000e+00  0.00000000e+00  0.00000000e+00  1.14406432e-08
  0.00000000e+00  0.00000000e+00  0.00000000e+00  0.00000000e+00
  0.00000000e+00  0.00000000e+00  0.00000000e+00  0.00000000e+00
  0.00000000e+00  0.00000000e+00  0.00000000e+00  0.00000000e+00
  0.00000000e+00  0.00000000e+00  0.00000000e+00  0.00000000e+00
  0.00000000e+00  0.00000000e+00 -7.23095469e-07  1.14406432e-08
  0.00000000e+00  0.00000000e+00  0.00000000e+00  3.37615870e-06]","[[-2.24444211e-04  3.29905932e-03]
 [-5.63777731e-05 -4.21538436e-03]]",[],0.0,0.0
1787304640.0467548,1.580323323083898,-0.4370219567813609,0.3900767664782916,"[ 9.81617177e-06 -6.66311924e-07  0.00000000e+00  0.00000000e+00
  0.00000000e+00 -7.23095469e-07 -6.66311924e-07  8.31547948e-06
  0.00000000e+00  0.00000000e+00  0.00000000e+00  1.14406432e-08
  0.00000000e+00  0.00000000e+00  0.00000000e+00  0.00000000e+00
  0.00000000e+00  0.00000000e+00  0.00000000e+00  0.00000000e+00
  0.00000000e+00  0.00000000e+00  0.00000000e+00  0.00000000e+00
  0.00000000e+00  0.00000000e+00  0.00000000e+00  0.00000000e+00
  0.00000000e+00  0.00000000e+00 -7.23095469e-07  1.14406432e-08
  0.00000000e+00  0.00000000e+00  0.00000000e+00  3.37615870e-06]","[[-2.24444211e-04  3.29905932e-03]
 [-5.63777731e-05 -4.21538436e-03]]",[],0.0,0.0
1787304640.1026628,1.580323323083898,-0.4370219567813609,0.3900767664782916,"[ 9.81617177e-06 -6.66311924e-07  0.00000000e+00  0.00000000e+00
  0.00000000e+00 -7.23095469e-07 -6.66311924e-07  8.31547948e-06
  0.00000000e+00  0.00000000e+00  0.00000000e+00  1.14406432e-08
  0.00000000e+00  0.00000000e+00  0.00000000e+00  0.00000000e+00
  0.00000000e+00  0.00000000e+00  0.00000000e+00  0.00000000e+00
  0.00000000e+00  0.00000000e+00  0.00000000e+00  0.00000000e+00
  0.00000000e+00  0.00000000e+00  0.00000000e+00  0.00000000e+00
  0.00000000e+00  0.00000000e+00 -7.23095469e-07  1.14406432e-08
  0.00000000e+00  0.00000000e+00  0.00000000e+00  3.37615870e-06]","[[-2.24444211e-04  3.29905932e-03]
 [-5.63777731e-05 -4.21538436e-03]]",[],0.0,0.0
1787304640.1455119,1.580323323083898,-0.4370219567813609,0.3900767664782916,"[ 9.81617177e-06 -6.66311924e-07  0.00000000e+00  0.00000000e+00
  0.00000000e+00 -7.23095469e-07 -6.66311924e-07  8.31547948e-06
  0.00000000e+00  0.00000000e+00  0.00000000e+00  1.14406432e-08
  0.00000000e+00  0.00000000e+00  0.00000000e+00  0.00000000e+00
  0.00000000e+00  0.00000000e+00  0.00000000e+00  0.00000000e+00
  0.00000000e+00  0.00000000e+00  0.00000000e+00  0.00000000e+00
  0.00000000e+00  0.00000000e+00  0.00000000e+00  0.00000000e+00
  0.00000000e+00  0.00000000e+00 -7.23095469e-07  1.14406432e-08
  0.00000000e+00  0.00000000e+00  0.00000000e+00  3.37615870e-06]","[[-2.24444211e-04  3.29905932e-03]
 [-5.63777731e-05 -4.21538436e-03]]",[],0.0,0.0
1787304640.20901,1.580323323083898,-0.4370219567813609,0.3900767664782916,"[ 9.81617177e-06 -6.66311924e-07  0.00000000e+00  0.00000000e+00
  0.00000000e+00 -7.23095469e-07 -6.66311924e-07  8.31547948e-06
  0.00000000e+00  0.00000000e+00  0.00000000e+00  1.14406432e-08
  0.00000000e+00  0.00000000e+00  0.00000000e+00  0.00000000e+00
  0.00000000e+00  0.00000000e+00  0.00000000e+00  0.00000000e+00
  0.00000000e+00  0.00000000e+00  0.00000000e+00  0.00000000e+00
  0.00000000e+00  0.00000000e+00  0.00000000e+00  0.00000000e+00
  0.00000000e+00  0.00000000e+00 -7.23095469e-07  1.14406432e-08
  0.00000000e+00  0.00000000e+00  0.00000000e+00  3.37615870e-06]","[[-2.24444211e-04  3.29905932e-03]
 [-5.63777731e-05 -4.21538436e-03]]",[],0.0,0.0
1787304640.2429929,1.580323323083898,-0.4370219567813609,0.3900767664782916,"[ 9.81617177e-06 -6.66311924e-07  0.00000000e+00  0.00000000e+00
  0.00000000e+00 -7.23095469e-07 -6.66311924e-07  8.31547948e-06
  0.00000000e+00  0.00000000e+00  0.00000000e+00  1.14406432e-08
  0.00000000e+00  0.00000000e+00  0.00000000e+00  0.00000000e+00
  0.00000000e+00  0.00000000e+00  0.00000000e+00  0.00000000e+00
  0.00000000e+00  0.00000000e+00  0.00000000e+00  0.00000000e+00
  0.00000000e+00  0.00000000e+00  0.00000000e+00  0.00000000e+00
  0.00000000e+00  0.00000000e+00 -7.23095469e-07  1.14406432e-08
  0.00000000e+00  0.00000000e+00  0.00000000e+00  3.37615870e-06]","[[-2.24444211e-04  3.29905932e-03]
 [-5.63777731e-05 -4.21538436e-03]]",[],0.0,0.0
1787304640.2971282,1.580323323083898,-0.4370219567813609,0.3900767664782916,"[ 9.81617177e-06 -6.66311924e-07  0.00000000e+00  0.00000000e+00
  0.00000000e+00 -7.23095469e-07 -6.66311924e-07  8.31547948e-06
  0.00000000e+00  0.00000000e+00  0.00000000e+00  1.14406432e-08
  0.00000000e+00  0.00000000e+00  0.00000000e+00  0.00000000e+00
  0.00000000e+00  0.00000000e+00  0.00000000e+00  0.00000000e+00
  0.00000000e+00  0.00000000e+00  0.00000000e+00  0.00000000e+00
  0.00000000e+00  0.00000000e+00  0.00000000e+00  0.00000000e+00
  0.00000000e+00  0.00000000e+00 -7.23095469e-07  1.14406432e-08
  0.00000000e+00  0.00000000e+00  0.00000000e+00  3.37615870e-06]","[[-2.24444211e-04  3.29905932e-03]
 [-5.63777731e-05 -4.21538436e-03]]",[],0.0,0.0
1787304640.3438148,1.580323323083898,-0.4370219567813609,0.3900767664782916,"[ 9.81617177e-06 -6.66311924e-07  0.00000000e+00  0.00000000e+00
  0.00000000e+00 -7.23095469e-07 -6.66311924e-07  8.31547948e-06
  0.00000000e+00  0.00000000e+00  0.00000000e+00  1.14406432e-08
  0.00000000e+00  0.00000000e+00  0.00000000e+00  0.00000000e+00
  0.00000000e+00  0.00000000e+00  0.00000000e+00  0.00000000e+00
  0.00000000e+00  0.00000000e+00  0.00000000e+00  0.00000000e+00
  0.00000000e+00  0.00000000e+00  0.00000000e+00  0.00000000e+00
  0.00000000e+00  0.00000000e+00 -7.23095469e-07  1.14406432e-08
  0.00000000e+00  0.00000000e+00  0.00000000e+00  3.37615870e-06]","[[-2.24444211e-04  3.29905932e-03]
 [-5.63777731e-05 -4.21538436e-03]]",[],0.0,0.0
1787304640.3943553,1.580323323083898,-0.4370219567813609,0.3900767664782916,"[ 9.81617177e-06 -6.66311924e-07  0.00000000e+00  0.00000000e+00
  0.00000000e+00 -7.23095469e-07 -6.66311924e-07  8.31547948e-06
  0.00000000e+00  0.00000000e+00  0.00000000e+00  1.14406432e-08
  0.00000000e+00  0.00000000e+00  0.00000000e+00  0.00000000e+00
  0.00000000e+00  0.00000000e+00  0.00000000e+00  0.00000000e+00
  0.00000000e+00  0.00000000e+00  0.00000000e+00  0.00000000e+00
  0.00000000e+00  0.00000000e+00  0.00000000e+00  0.00000000e+00
  0.00000000e+00  0.00000000e+00 -7.23095469e-07  1.14406432e-08
  0.00000000e+00  0.00000000e+00  0.00000000e+00  3.37615870e-06]","[[-2.24444211e-04  3.29905932e-03]
 [-5.63777731e-05 -4.21538436e-03]]",[],0.0,0.0
1787304640.4436886,1.580323323083898,-0.4370219567813609,0.3900767664782916,"[ 9.81617177e-06 -6.66311924e-07  0.00000000e+00  0.00000000e+00
  0.00000000e+00 -7.23095469e-07 -6.66311924e-07  8.31547948e-06
  0.00000000e+00  0.00000000e+00  0.00000000e+00  1.14406432e-08
  0.00000000e+00  0.00000000e+00  0.00000000e+00  0.00000000e+00
  0.00000000e+00  0.00000000e+00  0.00000000e+00  0.00000000e+00
  0.00000000e+00  0.00000000e+00  0.00000000e+00  0.00000000e+00
  0.00000000e+00  0.00000000e+00  0.00000000e+00  0.00000000e+00
  0.00000000e+00  0.00000000e+00 -7.23095469e-07  1.14406432e-08
  0.00000000e+00  0.00000000e+00  0.00000000e+00  3.37615870e-06]","[[-2.24444211e-04  3.29905932e-03]
 [-5.63777731e-05 -4.21538436e-03]]",[],0.0,0.0
1787304640.492531,1.580323323083898,-0.4370219567813609,0.3900767664782916,"[ 9.81617177e-06 -6.66311924e-07  0.00000000e+00  0.00000000e+00
  0.00000000e+00 -7.23095469e-07 -6.66311924e-07  8.31547948e-06
  0.00000000e+00  0.00000000e+00  0.00000000e+00  1.14406432e-08
  0.00000000e+00  0.00000000e+00  0.00000000e+00  0.00000000e+00
  0.00000000e+00  0.00000000e+00  0.00000000e+00  0.00000000e+00
  0.00000000e+00  0.00000000e+00  0.00000000e+00  0.00000000e+00
  0.00000000e+00  0.00000000e+00  0.00000000e+00  0.00000000e+00
  0.00000000e+00  0.00000000e+00 -7.23095469e-07  1.14406432e-08
  0.00000000e+00  0.00000000e+00  0.00000000e+00  3.37615870e-06]","[[-2.24444211e-04  3.29905932e-03]
 [-5.63777731e-05 -4.21538436e-03]]",[],0.0,0.0
1787304640.5429525,1.5844033504616941,-0.42985920587964427,0.3855943024660605,"[ 8.55957729e-06 -3.70857634e-07  0.00000000e+00  0.00000000e+00
  0.00000000e+00 -5.93114714e-07 -3.70857634e-07  6.96713922e-06
  0.00000000e+00  0.00000000e+00  0.00000000e+00  1.32522257e-08
  0.00000000e+00  0.00000000e+00  0.00000000e+00  0.00000000e+00
  0.00000000e+00  0.00000000e+00  0.00000000e+00  0.00000000e+00
  0.00000000e+00  0.00000000e+00  0.00000000e+00  0.00000000e+00
  0.00000000e+00  0.00000000e+00  0.00000000e+00  0.00000000e+00
  0.00000000e+00  0.00000000e+00 -5.93114714e-07  1.32522257e-08
  0.00000000e+00  0.00000000e+00  0.00000000e+00  3.16033989e-06]","[[-1.97676572e-04  2.71404777e-03]
 [-5.13405539e-05 -3.52492430e-03]]",[],0.0,0.0
1787304640.5928504,1.5844033504616941,-0.42985920587964427,0.3855943024660605,"[ 8.55957729e-06 -3.70857634e-07  0.00000000e+00  0.00000000e+00
  0.00000000e+00 -5.93114714e-07 -3.70857634e-07  6.96713922e-06
  0.00000000e+00  0.00000000e+00  0.00000000e+00  1.32522257e-08
  0.00000000e+00  0.00000000e+00  0.00000000e+00  0.00000000e+00
  0.00000000e+00  0.00000000e+00  0.00000000e+00  0.00000000e+00
  0.00000000e+00  0.00000000e+00  0.00000000e+00  0.00000000e+00
  0.00000000e+00  0.00000000e+00  0.00000000e+00  0.00000000e+00
  0.00000000e+00  0.00000000e+00 -5.93114714e-07  1.32522257e-08
  0.00000000e+00  0.00000000e+00  0.00000000e+00  3.16033989e-06]","[[-1.97676572e-04  2.71404777e-03]
 [-5.13405539e-05 -3.52492430e-03]]",[],0.0,0.0
1787304640.667411,1.5844033504616941,-0.42985920587964427,0.3855943024660605,"[ 8.55957729e-06 -3.70857634e-07  0.00000000e+00  0.00000000e+00
  0.00000000e+00 -5.93114714e-07 -3.70857634e-07  6.96713922e-06
  0.00000000e+00  0.00000000e+00  0.00000000e+00  1.32522257e-08
  0.00000000e+00  0.00000000e+00  0.00000000e+00  0.00000000e+00
  0.00000000e+00  0.00000000e+00  0.00000000e+00  0.00000000e+00
  0.00000000e+00  0.00000000e+00  0.00000000e+00  0.00000000e+00
  0.00000000e+00  0.00000000e+00  0.00000000e+00  0.00000000e+00
  0.00000000e+00  0.00000000e+00 -5.93114714e-07  1.32522257e-08
  0.00000000e+00  0.00000000e+00  0.00000000e+00  3.16033989e-06]","[[-1.97676572e-04  2.71404777e-03]
 [-5.13405539e-05 -3.52492430e-03]]",[],0.0,0.0
1787304640.6950514,1.5844033504616941,-0.42985920587964427,0.3855943024660605,"[ 8.55957729e-06 -3.70857634e-07  0.00000000e+00  0.00000000e+00
  0.00000000e+00 -5.93114714e-07 -3.70857634e-07  6.96713922e-06
  0.00000000e+00  0.00000000e+00  0.00000000e+00  1.32522257e-08
  0.00000000e+00  0.00000000e+00  0.00000000e+00  0.00000000e+00
  0.00000000e+00  0.00000000e+00  0.00000000e+00  0.00000000e+00
  0.00000000e+00  0.00000000e+00  0.00000000e+00  0.00000000e+00
  0.00000000e+00  0.00000000e+00  0.00000000e+00  0.00000000e+00
  0.00000000e+00  0.00000000e+00 -5.93114714e-07  1.32522257e-08
  0.00000000e+00  0.00000000e+00  0.00000000e+00  3.16033989e-06]","[[-1.97676572e-04  2.71404777e-03]
 [-5.13405539e-05 -3.52492430e-03]]",[],0.0,0.0
1787304640.7487514,1.5844033504616941,-0.42985920587964427,0.3855943024660605,"[ 8.55957729e-06 -3.70857634e-07  0.00000000e+00  0.00000000e+00
  0.00000000e+00 -5.93114714e-07 -3.70857634e-07  6.96713922e-06
  0.00000000e+00  0.00000000e+00  0.00000000e+00  1.32522257e-08
  0.00000000e+00  0.00000000e+00  0.00000000e+00  0.00000000e+00
  0.00000000e+00  0.00000000e+00  0.00000000e+00  0.00000000e+00
  0.00000000e+00  0.00000000e+00  0.00000000e+00  0.00000000e+00
