time,x,y,yaw,cov_prop,K_gain,innovation,v_ekf,omega_ekf
1787053631.6550012,0.0,0.0,0.0,"[9.99940084e-03 0.00000000e+00 0.00000000e+00 0.00000000e+00
 0.00000000e+00 8.30768981e-10 0.00000000e+00 9.99940004e-03
 0.00000000e+00 0.00000000e+00 0.00000000e+00 0.00000000e+00
 0.00000000e+00 0.00000000e+00 0.00000000e+00 0.00000000e+00
 0.00000000e+00 0.00000000e+00 0.00000000e+00 0.00000000e+00
 0.00000000e+00 0.00000000e+00 0.00000000e+00 0.00000000e+00
 0.00000000e+00 0.00000000e+00 0.00000000e+00 0.00000000e+00
 0.00000000e+00 0.00000000e+00 8.30768981e-10 0.00000000e+00
 0.00000000e+00 0.00000000e+00 0.00000000e+00 9.99941691e-03]","[[9.99940084e-06 0.00000000e+00 8.30768981e-13]
 [0.00000000e+00 9.99940004e-06 0.00000000e+00]
 [8.30768981e-13 0.00000000e+00 9.99941691e-06]]",[0. 0. 0.],0.0,0.0
1787053631.7045681,0.0,0.0,0.0,"[9.99910149e-03 0.00000000e+00 0.00000000e+00 0.00000000e+00
 0.00000000e+00 1.44906460e-09 0.00000000e+00 9.99910008e-03
 0.00000000e+00 0.00000000e+00 0.00000000e+00 0.00000000e+00
 0.00000000e+00 0.00000000e+00 0.00000000e+00 0.00000000e+00
 0.00000000e+00 0.00000000e+00 0.00000000e+00 0.00000000e+00
 0.00000000e+00 0.00000000e+00 0.00000000e+00 0.00000000e+00
 0.00000000e+00 0.00000000e+00 0.00000000e+00 0.00000000e+00
 0.00000000e+00 0.00000000e+00 1.44906460e-09 0.00000000e+00
 0.00000000e+00 0.00000000e+00 0.00000000e+00 9.99912951e-03]","[[9.99910149e-06 0.00000000e+00 1.44906460e-12]
 [0.00000000e+00 9.99910008e-06 0.00000000e+00]
 [1.44906460e-12 0.00000000e+00 9.99912951e-06]]",[0. 0. 0.],0.0,0.0
1787053631.7551744,-2.3193554724146772e-17,0.0,1.2944663678293725e-05,"[9.99890186e-03 0.00000000e+00 0.00000000e+00 0.00000000e+00
 0.00000000e+00 1.79172850e-09 0.00000000e+00 9.99890012e-03
 0.00000000e+00 0.00000000e+00 0.00000000e+00 0.00000000e+00
 0.00000000e+00 0.00000000e+00 0.00000000e+00 0.00000000e+00
 0.00000000e+00 0.00000000e+00 0.00000000e+00 0.00000000e+00
 0.00000000e+00 0.00000000e+00 0.00000000e+00 0.00000000e+00
 0.00000000e+00 0.00000000e+00 0.00000000e+00 0.00000000e+00
 0.00000000e+00 0.00000000e+00 1.79172850e-09 0.00000000e+00
 0.00000000e+00 0.00000000e+00 0.00000000e+00 9.99893651e-03]","[[9.99890186e-06 0.00000000e+00 1.79172850e-12]
 [0.00000000e+00 9.99890012e-06 0.00000000e+00]
 [1.79172850e-12 0.00000000e+00 9.99893651e-06]]",[ 0.00000000e+00  0.00000000e+00 -1.29447931e-05],0.0,0.0
1787053631.804835,-2.958850511309292e-16,-1.0167223947299586e-21,5.9083259895675866e-05,"[9.99860236e-03 1.20612647e-14 0.00000000e+00 0.00000000e+00
 0.00000000e+00 2.22222331e-09 1.20612647e-14 9.99860020e-03
 0.00000000e+00 0.00000000e+00 0.00000000e+00 1.24132378e-14
 0.00000000e+00 0.00000000e+00 0.00000000e+00 0.00000000e+00
 0.00000000e+00 0.00000000e+00 0.00000000e+00 0.00000000e+00
 0.00000000e+00 0.00000000e+00 0.00000000e+00 0.00000000e+00
 0.00000000e+00 0.00000000e+00 0.00000000e+00 0.00000000e+00
 0.00000000e+00 0.00000000e+00 2.22222331e-09 1.24132378e-14
 0.00000000e+00 0.00000000e+00 0.00000000e+00 9.99864533e-03]","[[9.99860236e-06 1.20612647e-17 2.22222331e-12]
 [1.20612647e-17 9.99860020e-06 1.24132378e-17]
 [2.22222331e-12 1.24132378e-17 9.99864533e-06]]",[ 1.64589187e-16  2.83303339e-22 -5.90838507e-05],0.0,0.0
1787053631.854899,-9.977106237919136e-16,-9.960621327322281e-21,0.00016937794243476747,"[9.99840270e-03 3.69467259e-14 0.00000000e+00 0.00000000e+00
 0.00000000e+00 2.52016108e-09 3.69467259e-14 9.99840026e-03
 0.00000000e+00 0.00000000e+00 0.00000000e+00 3.80249091e-14
 0.00000000e+00 0.00000000e+00 0.00000000e+00 0.00000000e+00
 0.00000000e+00 0.00000000e+00 0.00000000e+00 0.00000000e+00
 0.00000000e+00 0.00000000e+00 0.00000000e+00 0.00000000e+00
 0.00000000e+00 0.00000000e+00 0.00000000e+00 0.00000000e+00
 0.00000000e+00 0.00000000e+00 2.52016108e-09 3.80249091e-14
 0.00000000e+00 0.00000000e+00 0.00000000e+00 9.99845144e-03]","[[9.99840270e-06 3.69467259e-17 2.52016108e-12]
 [3.69467259e-17 9.99840026e-06 3.80249091e-17]
 [2.52016108e-12 3.80249091e-17 9.99845144e-06]]",[ 5.70852364e-16  3.52001126e-21 -1.69379636e-04],0.0,0.0
1787053631.9045153,-2.9260122743918174e-15,-7.782704256332592e-20,0.00022743343521858256,"[9.99810326e-03 1.29901026e-13 0.00000000e+00 0.00000000e+00
 0.00000000e+00 2.98234947e-09 1.29901026e-13 9.99810036e-03
 0.00000000e+00 0.00000000e+00 0.00000000e+00 1.33691813e-13
 0.00000000e+00 0.00000000e+00 0.00000000e+00 0.00000000e+00
 0.00000000e+00 0.00000000e+00 0.00000000e+00 0.00000000e+00
 0.00000000e+00 0.00000000e+00 0.00000000e+00 0.00000000e+00
 0.00000000e+00 0.00000000e+00 0.00000000e+00 0.00000000e+00
 0.00000000e+00 0.00000000e+00 2.98234947e-09 1.33691813e-13
 0.00000000e+00 0.00000000e+00 0.00000000e+00 9.99816093e-03]","[[9.99810326e-06 1.29901026e-16 2.98234947e-12]
 [1.29901026e-16 9.99810036e-06 1.33691813e-16]
 [2.98234947e-12 1.33691813e-16 9.99816093e-06]]",[ 2.24774198e-15  4.74212244e-20 -2.27435709e-04],0.0,0.0
1787053631.9553342,-4.073244433709845e-15,-1.435871638424773e-19,0.0001623331173599141,"[9.99790365e-03 1.95038840e-13 0.00000000e+00 0.00000000e+00
 0.00000000e+00 3.29946672e-09 1.95038840e-13 9.99790044e-03
 0.00000000e+00 0.00000000e+00 0.00000000e+00 2.00730487e-13
 0.00000000e+00 0.00000000e+00 0.00000000e+00 0.00000000e+00
 0.00000000e+00 0.00000000e+00 0.00000000e+00 0.00000000e+00
 0.00000000e+00 0.00000000e+00 0.00000000e+00 0.00000000e+00
 0.00000000e+00 0.00000000e+00 0.00000000e+00 0.00000000e+00
 0.00000000e+00 0.00000000e+00 3.29946672e-09 2.00730487e-13
 0.00000000e+00 0.00000000e+00 0.00000000e+00 9.99796745e-03]","[[9.99790365e-06 1.95038840e-16 3.29946672e-12]
 [1.95038840e-16 9.99790044e-06 2.00730487e-16]
 [3.29946672e-12 2.00730487e-16 9.99796745e-06]]",[ 3.53766173e-15  1.11002742e-19 -1.62334740e-04],0.0,0.0
1787053632.0045972,-6.287082412768626e-15,-3.007777460685251e-19,0.00022458188668528226,"[9.99760423e-03 2.76262623e-13 0.00000000e+00 0.00000000e+00
 0.00000000e+00 3.75642095e-09 2.76262623e-13 9.99760058e-03
 0.00000000e+00 0.00000000e+00 0.00000000e+00 2.84324552e-13
 0.00000000e+00 0.00000000e+00 0.00000000e+00 0.00000000e+00
 0.00000000e+00 0.00000000e+00 0.00000000e+00 0.00000000e+00
 0.00000000e+00 0.00000000e+00 0.00000000e+00 0.00000000e+00
 0.00000000e+00 0.00000000e+00 0.00000000e+00 0.00000000e+00
 0.00000000e+00 0.00000000e+00 3.75642095e-09 2.84324552e-13
 0.00000000e+00 0.00000000e+00 0.00000000e+00 9.99767687e-03]","[[9.99760423e-06 2.76262623e-16 3.75642095e-12]
 [2.76262623e-16 9.99760058e-06 2.84324552e-16]
 [3.75642095e-12 2.84324552e-16 9.99767687e-06]]",[ 5.44350430e-15  2.36925332e-19 -2.24584132e-04],0.0,0.0
1787053632.0580165,-8.336087427219533e-15,-4.751838499489123e-19,0.0002668033420443195,"[9.99740463e-03 3.48620831e-13 0.00000000e+00 0.00000000e+00
 0.00000000e+00 4.07307858e-09 3.48620831e-13 9.99740068e-03
 0.00000000e+00 0.00000000e+00 0.00000000e+00 3.58794327e-13
 0.00000000e+00 0.00000000e+00 0.00000000e+00 0.00000000e+00
 0.00000000e+00 0.00000000e+00 0.00000000e+00 0.00000000e+00
 0.00000000e+00 0.00000000e+00 0.00000000e+00 0.00000000e+00
 0.00000000e+00 0.00000000e+00 0.00000000e+00 0.00000000e+00
 0.00000000e+00 0.00000000e+00 4.07307858e-09 3.58794327e-13
 0.00000000e+00 0.00000000e+00 0.00000000e+00 9.99748340e-03]","[[9.99740463e-06 3.48620831e-16 4.07307858e-12]
 [3.48620831e-16 9.99740068e-06 3.58794327e-16]
 [4.07307858e-12 3.58794327e-16 9.99748340e-06]]",[ 7.24943806e-15  3.79459161e-19 -2.66806009e-04],0.0,0.0
1787053632.1048543,-1.2126569498240798e-14,-8.613343883829969e-19,0.000287670155676878,"[9.99710525e-03 4.74612030e-13 0.00000000e+00 0.00000000e+00
 0.00000000e+00 4.53488839e-09 4.74612030e-13 9.99710084e-03
 0.00000000e+00 0.00000000e+00 0.00000000e+00 4.88462219e-13
 0.00000000e+00 0.00000000e+00 0.00000000e+00 0.00000000e+00
 0.00000000e+00 0.00000000e+00 0.00000000e+00 0.00000000e+00
 0.00000000e+00 0.00000000e+00 0.00000000e+00 0.00000000e+00
 0.00000000e+00 0.00000000e+00 0.00000000e+00 0.00000000e+00
 0.00000000e+00 0.00000000e+00 4.53488839e-09 4.88462219e-13
 0.00000000e+00 0.00000000e+00 0.00000000e+00 9.99719295e-03]","[[9.99710525e-06 4.74612030e-16 4.53488839e-12]
 [4.74612030e-16 9.99710084e-06 4.88462219e-16]
 [4.53488839e-12 4.88462219e-16 9.99719295e-06]]",[ 1.08221126e-14  7.20824187e-19 -2.87673032e-04],0.0,0.0
1787053632.1571417,-1.488231548301289e-14,-1.184622052796638e-18,0.0002876644040008536,"[9.99690570e-03 5.69265125e-13 0.00000000e+00 0.00000000e+00
 0.00000000e+00 4.87341192e-09 5.69265125e-13 9.99690096e-03
 0.00000000e+00 0.00000000e+00 0.00000000e+00 5.85877494e-13
 0.00000000e+00 0.00000000e+00 0.00000000e+00 0.00000000e+00
 0.00000000e+00 0.00000000e+00 0.00000000e+00 0.00000000e+00
 0.00000000e+00 0.00000000e+00 0.00000000e+00 0.00000000e+00
 0.00000000e+00 0.00000000e+00 0.00000000e+00 0.00000000e+00
 0.00000000e+00 0.00000000e+00 4.87341192e-09 5.85877494e-13
 0.00000000e+00 0.00000000e+00 0.00000000e+00 9.99699994e-03]","[[9.99690570e-06 5.69265125e-16 4.87341192e-12]
 [5.69265125e-16 9.99690096e-06 5.85877494e-16]
 [4.87341192e-12 5.85877494e-16 9.99699994e-06]]",[ 1.34805291e-14  1.01609443e-18 -2.87667280e-04],0.0,0.0
1787053632.20512,-2.0205936996764262e-14,-1.8784292008924903e-18,0.0003998124596851227,"[9.99660631e-03 6.97746016e-13 0.00000000e+00 0.00000000e+00
 0.00000000e+00 5.30294027e-09 6.97746016e-13 9.99660116e-03
 0.00000000e+00 0.00000000e+00 0.00000000e+00 7.18107734e-13
 0.00000000e+00 0.00000000e+00 0.00000000e+00 0.00000000e+00
 0.00000000e+00 0.00000000e+00 0.00000000e+00 0.00000000e+00
 0.00000000e+00 0.00000000e+00 0.00000000e+00 0.00000000e+00
 0.00000000e+00 0.00000000e+00 0.00000000e+00 0.00000000e+00
 0.00000000e+00 0.00000000e+00 5.30294027e-09 7.18107734e-13
 0.00000000e+00 0.00000000e+00 0.00000000e+00 9.99670886e-03]","[[9.99660631e-06 6.97746016e-16 5.30294027e-12]
 [6.97746016e-16 9.99660116e-06 7.18107734e-16]
 [5.30294027e-12 7.18107734e-16 9.99670886e-06]]",[ 1.80859150e-14  1.59133382e-18 -3.99816457e-04],0.0,0.0
1787053632.255405,-2.4573315621895332e-14,-2.518026185038399e-18,0.0003928377414443852,"[9.99640675e-03 8.17617628e-13 0.00000000e+00 0.00000000e+00
 0.00000000e+00 5.61272368e-09 8.17617628e-13 9.99640130e-03
 0.00000000e+00 0.00000000e+00 0.00000000e+00 8.41477461e-13
 0.00000000e+00 0.00000000e+00 0.00000000e+00 0.00000000e+00
 0.00000000e+00 0.00000000e+00 0.00000000e+00 0.00000000e+00
 0.00000000e+00 0.00000000e+00 0.00000000e+00 0.00000000e+00
 0.00000000e+00 0.00000000e+00 0.00000000e+00 0.00000000e+00
 0.00000000e+00 0.00000000e+00 5.61272368e-09 8.41477461e-13
 0.00000000e+00 0.00000000e+00 0.00000000e+00 9.99651529e-03]","[[9.99640675e-06 8.17617628e-16 5.61272368e-12]
 [8.17617628e-16 9.99640130e-06 8.41477461e-16]
 [5.61272368e-12 8.41477461e-16 9.99651529e-06]]",[ 2.23686275e-14  2.18748064e-18 -3.92841668e-04],0.0,0.0
1787053632.3059998,-2.837950575509611e-14,-3.1239485870635454e-18,0.00030141053220145153,"[9.99620722e-03 9.38438110e-13 0.00000000e+00 0.00000000e+00
 0.00000000e+00 5.94953221e-09 9.38438110e-13 9.99620144e-03
 0.00000000e+00 0.00000000e+00 0.00000000e+00 9.65823747e-13
 0.00000000e+00 0.00000000e+00 0.00000000e+00 0.00000000e+00
 0.00000000e+00 0.00000000e+00 0.00000000e+00 0.00000000e+00
 0.00000000e+00 0.00000000e+00 0.00000000e+00 0.00000000e+00
 0.00000000e+00 0.00000000e+00 0.00000000e+00 0.00000000e+00
 0.00000000e+00 0.00000000e+00 5.94953221e-09 9.65823747e-13
 0.00000000e+00 0.00000000e+00 0.00000000e+00 9.99632228e-03]","[[9.99620722e-06 9.38438110e-16 5.94953221e-12]
 [9.38438110e-16 9.99620144e-06 9.65823747e-16]
 [5.94953221e-12 9.65823747e-16 9.99632228e-06]]",[ 2.65865019e-14  2.83286455e-18 -3.01413545e-04],0.0,0.0
1787053632.3551345,-3.288753584836217e-14,-3.889373415846754e-18,0.00023134933931778795,"[9.99590799e-03 1.08113703e-12 0.00000000e+00 0.00000000e+00
 0.00000000e+00 6.48968555e-09 1.08113703e-12 9.99590168e-03
 0.00000000e+00 0.00000000e+00 0.00000000e+00 1.11268693e-12
 0.00000000e+00 0.00000000e+00 0.00000000e+00 0.00000000e+00
 0.00000000e+00 0.00000000e+00 0.00000000e+00 0.00000000e+00
 0.00000000e+00 0.00000000e+00 0.00000000e+00 0.00000000e+00
 0.00000000e+00 0.00000000e+00 0.00000000e+00 0.00000000e+00
 0.00000000e+00 0.00000000e+00 6.48968555e-09 1.11268693e-12
 0.00000000e+00 0.00000000e+00 0.00000000e+00 9.99603349e-03]","[[9.99590799e-06 1.08113703e-15 6.48968555e-12]
 [1.08113703e-15 9.99590168e-06 1.11268693e-15]
 [6.48968555e-12 1.11268693e-15 9.99603349e-06]]",[ 3.13864501e-14  3.63198776e-18 -2.31351652e-04],0.0,0.0
1787053632.404599,-3.8174007991260375e-14,-4.813794175335438e-18,0.0002710693747260961,"[9.99560871e-03 1.19484529e-12 0.00000000e+00 0.00000000e+00
 0.00000000e+00 6.97013172e-09 1.19484529e-12 9.99560194e-03
 0.00000000e+00 0.00000000e+00 0.00000000e+00 1.22971343e-12
 0.00000000e+00 0.00000000e+00 0.00000000e+00 0.00000000e+00
 0.00000000e+00 0.00000000e+00 0.00000000e+00 0.00000000e+00
 0.00000000e+00 0.00000000e+00 0.00000000e+00 0.00000000e+00
 0.00000000e+00 0.00000000e+00 0.00000000e+00 0.00000000e+00
 0.00000000e+00 0.00000000e+00 6.97013172e-09 1.22971343e-12
 0.00000000e+00 0.00000000e+00 0.00000000e+00 9.99574350e-03]","[[9.99560871e-06 1.19484529e-15 6.97013172e-12]
 [1.19484529e-15 9.99560194e-06 1.22971343e-15]
 [6.97013172e-12 1.22971343e-15 9.99574350e-06]]",[ 3.62849625e-14  4.48049798e-18 -2.71072084e-04],0.0,0.0
1787053632.4547877,-4.173803396130236e-14,-5.453970411722584e-18,0.00023720872938559628,"[9.99540925e-03 1.29095458e-12 0.00000000e+00 0.00000000e+00
 0.00000000e+00 7.34764474e-09 1.29095458e-12 9.99540212e-03
 0.00000000e+00 0.00000000e+00 0.00000000e+00 1.32862740e-12
 0.00000000e+00 0.00000000e+00 0.00000000e+00 0.00000000e+00
 0.00000000e+00 0.00000000e+00 0.00000000e+00 0.00000000e+00
 0.00000000e+00 0.00000000e+00 0.00000000e+00 0.00000000e+00
 0.00000000e+00 0.00000000e+00 0.00000000e+00 0.00000000e+00
 0.00000000e+00 0.00000000e+00 7.34764474e-09 1.32862740e-12
 0.00000000e+00 0.00000000e+00 0.00000000e+00 9.99555135e-03]","[[9.99540925e-06 1.29095458e-15 7.34764474e-12]
 [1.29095458e-15 9.99540212e-06 1.32862740e-15]
 [7.34764474e-12 1.32862740e-15 9.99555135e-06]]",[ 3.99954908e-14  5.13885661e-18 -2.37211100e-04],0.0,0.0
1787053632.5061965,-4.45721330151102e-14,-5.969778016469201e-18,0.0001608734722187144,"[9.99520985e-03 1.37920910e-12 0.00000000e+00 0.00000000e+00
 0.00000000e+00 7.76491953e-09 1.37920910e-12 9.99520230e-03
 0.00000000e+00 0.00000000e+00 0.00000000e+00 1.41945737e-12
 0.00000000e+00 0.00000000e+00 0.00000000e+00 0.00000000e+00
 0.00000000e+00 0.00000000e+00 0.00000000e+00 0.00000000e+00
 0.00000000e+00 0.00000000e+00 0.00000000e+00 0.00000000e+00
 0.00000000e+00 0.00000000e+00 0.00000000e+00 0.00000000e+00
 0.00000000e+00 0.00000000e+00 7.76491953e-09 1.41945737e-12
 0.00000000e+00 0.00000000e+00 0.00000000e+00 9.99536001e-03]","[[9.99520985e-06 1.37920910e-15 7.76491953e-12]
 [1.37920910e-15 9.99520230e-06 1.41945737e-15]
 [7.76491953e-12 1.41945737e-15 9.99536001e-06]]",[ 4.33233840e-14  5.74148009e-18 -1.60875080e-04],0.0,0.0
1787053632.5553217,-4.784063807135861e-14,-6.56418874355159e-18,0.00014204335152667727,"[9.99491046e-03 1.42457597e-12 0.00000000e+00 0.00000000e+00
 0.00000000e+00 8.09146390e-09 1.42457597e-12 9.99490260e-03
 0.00000000e+00 0.00000000e+00 0.00000000e+00 1.46614815e-12
 0.00000000e+00 0.00000000e+00 0.00000000e+00 0.00000000e+00
 0.00000000e+00 0.00000000e+00 0.00000000e+00 0.00000000e+00
 0.00000000e+00 0.00000000e+00 0.00000000e+00 0.00000000e+00
 0.00000000e+00 0.00000000e+00 0.00000000e+00 0.00000000e+00
 0.00000000e+00 0.00000000e+00 8.09146390e-09 1.46614815e-12
 0.00000000e+00 0.00000000e+00 0.00000000e+00 9.99506694e-03]","[[9.99491046e-06 1.42457597e-15 8.09146390e-12]
 [1.42457597e-15 9.99490260e-06 1.46614815e-15]
 [8.09146390e-12 1.46614815e-15 9.99506694e-06]]",[ 4.66917546e-14  6.35599359e-18 -1.42044771e-04],0.0,0.0
1787053632.6050467,-5.618245066897683e-14,-8.085640452632205e-18,0.00042208364508500306,"[9.99461123e-03 1.53100496e-12 0.00000000e+00 0.00000000e+00
 0.00000000e+00 8.55862073e-09 1.53100496e-12 9.99460291e-03
 0.00000000e+00 0.00000000e+00 0.00000000e+00 1.57568296e-12
 0.00000000e+00 0.00000000e+00 0.00000000e+00 0.00000000e+00
 0.00000000e+00 0.00000000e+00 0.00000000e+00 0.00000000e+00
 0.00000000e+00 0.00000000e+00 0.00000000e+00 0.00000000e+00
 0.00000000e+00 0.00000000e+00 0.00000000e+00 0.00000000e+00
 0.00000000e+00 0.00000000e+00 8.55862073e-09 1.57568296e-12
 0.00000000e+00 0.00000000e+00 0.00000000e+00 9.99477674e-03]","[[9.99461123e-06 1.53100496e-15 8.55862073e-12]
 [1.53100496e-15 9.99460291e-06 1.57568296e-15]
 [8.55862073e-12 1.57568296e-15 9.99477674e-06]]",[ 5.25704862e-14  7.42063796e-18 -4.22087864e-04],0.0,0.0
1787053632.6548975,-6.494225106440352e-14,-9.756367282741613e-18,0.0005251105354240336,"[9.99441174e-03 1.66258228e-12 0.00000000e+00 0.00000000e+00
 0.00000000e+00 8.86033811e-09 1.66258228e-12 9.99440313e-03
 0.00000000e+00 0.00000000e+00 0.00000000e+00 1.71109999e-12
 0.00000000e+00 0.00000000e+00 0.00000000e+00 0.00000000e+00
 0.00000000e+00 0.00000000e+00 0.00000000e+00 0.00000000e+00
 0.00000000e+00 0.00000000e+00 0.00000000e+00 0.00000000e+00
 0.00000000e+00 0.00000000e+00 0.00000000e+00 0.00000000e+00
 0.00000000e+00 0.00000000e+00 8.86033811e-09 1.71109999e-12
 0.00000000e+00 0.00000000e+00 0.00000000e+00 9.99458309e-03]","[[9.99441174e-06 1.66258228e-15 8.86033811e-12]
 [1.66258228e-15 9.99440313e-06 1.71109999e-15]
 [8.86033811e-12 1.71109999e-15 9.99458309e-06]]",[ 6.02901502e-14  8.85793020e-18 -5.25115784e-04],0.0,0.0
1787053632.7051497,-8.27858555818011e-14,-1.3436883787433674e-17,0.0007105306640982079,"[9.99411255e-03 1.93242479e-12 0.00000000e+00 0.00000000e+00
 0.00000000e+00 9.33250896e-09 1.93242479e-12 9.99410348e-03
 0.00000000e+00 0.00000000e+00 0.00000000e+00 1.98881712e-12
 0.00000000e+00 0.00000000e+00 0.00000000e+00 0.00000000e+00
 0.00000000e+00 0.00000000e+00 0.00000000e+00 0.00000000e+00
 0.00000000e+00 0.00000000e+00 0.00000000e+00 0.00000000e+00
 0.00000000e+00 0.00000000e+00 0.00000000e+00 0.00000000e+00
 0.00000000e+00 0.00000000e+00 9.33250896e-09 1.98881712e-12
 0.00000000e+00 0.00000000e+00 0.00000000e+00 9.99429303e-03]","[[9.99411255e-06 1.93242479e-15 9.33250896e-12]
 [1.93242479e-15 9.99410348e-06 1.98881712e-15]
 [9.33250896e-12 1.98881712e-15 9.99429303e-06]]",[ 7.61555166e-14  1.20238743e-17 -7.10537765e-04],0.0,0.0
1787053632.7551236,-9.457526717500556e-14,-1.6109693666303233e-17,0.0005721090899530877,"[9.99391321e-03 2.21955811e-12 0.00000000e+00 0.00000000e+00
 0.00000000e+00 9.77186901e-09 2.21955811e-12 9.99390372e-03
 0.00000000e+00 0.00000000e+00 0.00000000e+00 2.28432967e-12
 0.00000000e+00 0.00000000e+00 0.00000000e+00 0.00000000e+00
 0.00000000e+00 0.00000000e+00 0.00000000e+00 0.00000000e+00
 0.00000000e+00 0.00000000e+00 0.00000000e+00 0.00000000e+00
 0.00000000e+00 0.00000000e+00 0.00000000e+00 0.00000000e+00
 0.00000000e+00 0.00000000e+00 9.77186901e-09 2.28432967e-12
 0.00000000e+00 0.00000000e+00 0.00000000e+00 9.99410219e-03]","[[9.99391321e-06 2.21955811e-15 9.77186901e-12]
 [2.21955811e-15 9.99390372e-06 2.28432967e-15]
 [9.77186901e-12 2.28432967e-15 9.99410219e-06]]",[ 8.89855255e-14  1.48029428e-17 -5.72114808e-04],0.0,0.0
1787053632.8046377,-1.0905054082167752e-13,-1.9588249679072764e-17,0.00043064499278866464,"[9.99361398e-03 2.42343703e-12 0.00000000e+00 0.00000000e+00
 0.00000000e+00 1.01768890e-08 2.42343703e-12 9.99360409e-03
 0.00000000e+00 0.00000000e+00 0.00000000e+00 2.49415822e-12
 0.00000000e+00 0.00000000e+00 0.00000000e+00 0.00000000e+00
 0.00000000e+00 0.00000000e+00 0.00000000e+00 0.00000000e+00
 0.00000000e+00 0.00000000e+00 0.00000000e+00 0.00000000e+00
 0.00000000e+00 0.00000000e+00 0.00000000e+00 0.00000000e+00
 0.00000000e+00 0.00000000e+00 1.01768890e-08 2.49415822e-12
 0.00000000e+00 0.00000000e+00 0.00000000e+00 9.99381079e-03]","[[9.99361398e-06 2.42343703e-15 1.01768890e-11]
 [2.42343703e-15 9.99360409e-06 2.49415822e-15]
 [1.01768890e-11 2.49415822e-15 9.99381079e-06]]",[ 1.04668917e-13  1.85143272e-17 -4.30649297e-04],0.0,0.0
1787053632.8588006,-1.165013407345603e-13,-2.1441214052707047e-17,0.0003304331987967757,"[9.99341457e-03 2.55418250e-12 0.00000000e+00 0.00000000e+00
 0.00000000e+00 1.05102362e-08 2.55418250e-12 9.99340435e-03
 0.00000000e+00 0.00000000e+00 0.00000000e+00 2.62871914e-12
 0.00000000e+00 0.00000000e+00 0.00000000e+00 0.00000000e+00
 0.00000000e+00 0.00000000e+00 0.00000000e+00 0.00000000e+00
 0.00000000e+00 0.00000000e+00 0.00000000e+00 0.00000000e+00
 0.00000000e+00 0.00000000e+00 0.00000000e+00 0.00000000e+00
 0.00000000e+00 0.00000000e+00 1.05102362e-08 2.62871914e-12
 0.00000000e+00 0.00000000e+00 0.00000000e+00 9.99361782e-03]","[[9.99341457e-06 2.55418250e-15 1.05102362e-11]
 [2.55418250e-15 9.99340435e-06 2.62871914e-15]
 [1.05102362e-11 2.62871914e-15 9.99361782e-06]]",[ 1.13029505e-13  2.05727949e-17 -3.30436501e-04],0.0,0.0
1787053632.906752,-1.2452751587003353e-13,-2.3458581929327574e-17,0.00020648313469484594,"[9.99311536e-03 2.66812884e-12 0.00000000e+00 0.00000000e+00
 0.00000000e+00 1.09160868e-08 2.66812884e-12 9.99310476e-03
 0.00000000e+00 0.00000000e+00 0.00000000e+00 2.74599067e-12
 0.00000000e+00 0.00000000e+00 0.00000000e+00 0.00000000e+00
 0.00000000e+00 0.00000000e+00 0.00000000e+00 0.00000000e+00
 0.00000000e+00 0.00000000e+00 0.00000000e+00 0.00000000e+00
 0.00000000e+00 0.00000000e+00 0.00000000e+00 0.00000000e+00
 0.00000000e+00 0.00000000e+00 1.09160868e-08 2.74599067e-12
 0.00000000e+00 0.00000000e+00 0.00000000e+00 9.99332647e-03]","[[9.99311536e-06 2.66812884e-15 1.09160868e-11]
 [2.66812884e-15 9.99310476e-06 2.74599067e-15]
 [1.09160868e-11 2.74599067e-15 9.99332647e-06]]",[ 1.22274727e-13  2.28918043e-17 -2.06485198e-04],0.0,0.0
1787053632.954785,-1.301640283652323e-13,-2.4871999775004903e-17,0.0002658910658612789,"[9.99291595e-03 2.73425694e-12 0.00000000e+00 0.00000000e+00
 0.00000000e+00 1.12260183e-08 2.73425694e-12 9.99290504e-03
 0.00000000e+00 0.00000000e+00 0.00000000e+00 2.81404853e-12
 0.00000000e+00 0.00000000e+00 0.00000000e+00 0.00000000e+00
 0.00000000e+00 0.00000000e+00 0.00000000e+00 0.00000000e+00
 0.00000000e+00 0.00000000e+00 0.00000000e+00 0.00000000e+00
 0.00000000e+00 0.00000000e+00 0.00000000e+00 0.00000000e+00
 0.00000000e+00 0.00000000e+00 1.12260183e-08 2.81404853e-12
 0.00000000e+00 0.00000000e+00 0.00000000e+00 9.99313304e-03]","[[9.99291595e-06 2.73425694e-15 1.12260183e-11]
 [2.73425694e-15 9.99290504e-06 2.81404853e-15]
 [1.12260183e-11 2.81404853e-15 9.99313304e-06]]",[ 1.27180371e-13  2.41240030e-17 -2.65893723e-04],0.0,0.0
1787053633.0063248,-1.450600659587153e-13,-2.863898886665009e-17,0.0005122783190278923,"[9.99261685e-03 2.89720087e-12 0.00000000e+00 0.00000000e+00
 0.00000000e+00 1.17067673e-08 2.89720087e-12 9.99260547e-03
 0.00000000e+00 0.00000000e+00 0.00000000e+00 2.98174752e-12
 0.00000000e+00 0.00000000e+00 0.00000000e+00 0.00000000e+00
 0.00000000e+00 0.00000000e+00 0.00000000e+00 0.00000000e+00
 0.00000000e+00 0.00000000e+00 0.00000000e+00 0.00000000e+00
 0.00000000e+00 0.00000000e+00 0.00000000e+00 0.00000000e+00
 0.00000000e+00 0.00000000e+00 1.17067673e-08 2.98174752e-12
 0.00000000e+00 0.00000000e+00 0.00000000e+00 9.99284324e-03]","[[9.99261685e-06 2.89720087e-15 1.17067673e-11]
 [2.89720087e-15 9.99260547e-06 2.98174752e-15]
 [1.17067673e-11 2.98174752e-15 9.99284324e-06]]",[ 1.39064273e-13  2.71117599e-17 -5.12283438e-04],0.0,0.0
1787053633.0549,-1.6230862787907135e-13,-3.314299698349423e-17,0.0007978578955212257,"[9.99241746e-03 3.08394113e-12 0.00000000e+00 0.00000000e+00
 0.00000000e+00 1.20335127e-08 3.08394113e-12 9.99240577e-03
 0.00000000e+00 0.00000000e+00 0.00000000e+00 3.17393728e-12
 0.00000000e+00 0.00000000e+00 0.00000000e+00 0.00000000e+00
 0.00000000e+00 0.00000000e+00 0.00000000e+00 0.00000000e+00
 0.00000000e+00 0.00000000e+00 0.00000000e+00 0.00000000e+00
 0.00000000e+00 0.00000000e+00 0.00000000e+00 0.00000000e+00
 0.00000000e+00 0.00000000e+00 1.20335127e-08 3.17393728e-12
 0.00000000e+00 0.00000000e+00 0.00000000e+00 9.99265018e-03]","[[9.99241746e-06 3.08394113e-15 1.20335127e-11]
 [3.08394113e-15 9.99240577e-06 3.17393728e-15]
 [1.20335127e-11 3.17393728e-15 9.99265018e-06]]",[ 1.52709025e-13  3.06109266e-17 -7.97865868e-04],0.0,0.0
1787053633.1045244,-1.9666068639595065e-13,-4.2699554583169733e-17,0.0009345917718657228,"[9.99211836e-03 3.46690621e-12 0.00000000e+00 0.00000000e+00
 0.00000000e+00 1.24760741e-08 3.46690621e-12 9.99210624e-03
 0.00000000e+00 0.00000000e+00 0.00000000e+00 3.56807825e-12
 0.00000000e+00 0.00000000e+00 0.00000000e+00 0.00000000e+00
 0.00000000e+00 0.00000000e+00 0.00000000e+00 0.00000000e+00
 0.00000000e+00 0.00000000e+00 0.00000000e+00 0.00000000e+00
 0.00000000e+00 0.00000000e+00 0.00000000e+00 0.00000000e+00
 0.00000000e+00 0.00000000e+00 1.24760741e-08 3.56807825e-12
 0.00000000e+00 0.00000000e+00 0.00000000e+00 9.99235963e-03]","[[9.99211836e-06 3.46690621e-15 1.24760741e-11]
 [3.46690621e-15 9.99210624e-06 3.56807825e-15]
 [1.24760741e-11 3.56807825e-15 9.99235963e-06]]",[ 1.85002382e-13  3.93652180e-17 -9.34601111e-04],0.0,0.0
1787053633.1546307,-2.2070476561613243e-13,-4.987177710243417e-17,0.0009494331298136595,"[9.99191899e-03 3.76441749e-12 0.00000000e+00 0.00000000e+00
 0.00000000e+00 1.28020157e-08 3.76441749e-12 9.99190656e-03
 0.00000000e+00 0.00000000e+00 0.00000000e+00 3.87427166e-12
 0.00000000e+00 0.00000000e+00 0.00000000e+00 0.00000000e+00
 0.00000000e+00 0.00000000e+00 0.00000000e+00 0.00000000e+00
 0.00000000e+00 0.00000000e+00 0.00000000e+00 0.00000000e+00
 0.00000000e+00 0.00000000e+00 0.00000000e+00 0.00000000e+00
 0.00000000e+00 0.00000000e+00 1.28020157e-08 3.87427166e-12
 0.00000000e+00 0.00000000e+00 0.00000000e+00 9.99216657e-03]","[[9.99191899e-06 3.76441749e-15 1.28020157e-11]
 [3.76441749e-15 9.99190656e-06 3.87427166e-15]
 [1.28020157e-11 3.87427166e-15 9.99216657e-06]]",[ 2.08552070e-13  4.61938400e-17 -9.49442617e-04],0.0,0.0
1787053633.2048576,-2.554240278692419e-13,-6.085020146425327e-17,0.0008513781542500709,"[9.99161991e-03 4.15471895e-12 0.00000000e+00 0.00000000e+00
 0.00000000e+00 1.32399087e-08 4.15471895e-12 9.99160705e-03
 0.00000000e+00 0.00000000e+00 0.00000000e+00 4.27596310e-12
 0.00000000e+00 0.00000000e+00 0.00000000e+00 0.00000000e+00
 0.00000000e+00 0.00000000e+00 0.00000000e+00 0.00000000e+00
 0.00000000e+00 0.00000000e+00 0.00000000e+00 0.00000000e+00
 0.00000000e+00 0.00000000e+00 0.00000000e+00 0.00000000e+00
 0.00000000e+00 0.00000000e+00 1.32399087e-08 4.27596310e-12
 0.00000000e+00 0.00000000e+00 0.00000000e+00 9.99187596e-03]","[[9.99161991e-06 4.15471895e-15 1.32399087e-11]
 [4.15471895e-15 9.99160705e-06 4.27596310e-15]
 [1.32399087e-11 4.27596310e-15 9.99187596e-06]]",[ 2.44154186e-13  5.72102751e-17 -8.51386661e-04],0.0,0.0
1787053633.2579813,-2.7517120755739305e-13,-6.743455813599875e-17,0.0007010606586566047,"[9.99142057e-03 4.41562938e-12 0.00000000e+00 0.00000000e+00
 0.00000000e+00 1.35653956e-08 4.41562938e-12 9.99140739e-03
 0.00000000e+00 0.00000000e+00 0.00000000e+00 4.54448753e-12
 0.00000000e+00 0.00000000e+00 0.00000000e+00 0.00000000e+00
 0.00000000e+00 0.00000000e+00 0.00000000e+00 0.00000000e+00
 0.00000000e+00 0.00000000e+00 0.00000000e+00 0.00000000e+00
 0.00000000e+00 0.00000000e+00 0.00000000e+00 0.00000000e+00
 0.00000000e+00 0.00000000e+00 1.35653956e-08 4.54448753e-12
 0.00000000e+00 0.00000000e+00 0.00000000e+00 9.99168291e-03]","[[9.99142057e-06 4.41562938e-15 1.35653956e-11]
 [4.41562938e-15 9.99140739e-06 4.54448753e-15]
 [1.35653956e-11 4.54448753e-15 9.99168291e-06]]",[ 2.65663602e-13  6.42492068e-17 -7.01067664e-04],0.0,0.0
1787053633.305263,-3.0487454000760725e-13,-7.76556754821665e-17,0.0007175436369837308,"[9.99112158e-03 4.75736728e-12 0.00000000e+00 0.00000000e+00
 0.00000000e+00 1.40629023e-08 4.75736728e-12 9.99110791e-03
 0.00000000e+00 0.00000000e+00 0.00000000e+00 4.89619816e-12
 0.00000000e+00 0.00000000e+00 0.00000000e+00 0.00000000e+00
 0.00000000e+00 0.00000000e+00 0.00000000e+00 0.00000000e+00
 0.00000000e+00 0.00000000e+00 0.00000000e+00 0.00000000e+00
 0.00000000e+00 0.00000000e+00 0.00000000e+00 0.00000000e+00
 0.00000000e+00 0.00000000e+00 1.40629023e-08 4.89619816e-12
 0.00000000e+00 0.00000000e+00 0.00000000e+00 9.99139354e-03]","[[9.99112158e-06 4.75736728e-15 1.40629023e-11]
 [4.75736728e-15 9.99110791e-06 4.89619816e-15]
 [1.40629023e-11 4.89619816e-15 9.99139354e-06]]",[ 2.94786638e-13  7.41431453e-17 -7.17550806e-04],0.0,0.0
1787053633.3590605,-3.265626857237204e-13,-8.53284640262136e-17,0.0007758502678312242,"[9.99092222e-03 4.96631997e-12 0.00000000e+00 0.00000000e+00
 0.00000000e+00 1.43559358e-08 4.96631997e-12 9.99090827e-03
 0.00000000e+00 0.00000000e+00 0.00000000e+00 5.11124858e-12
 0.00000000e+00 0.00000000e+00 0.00000000e+00 0.00000000e+00
 0.00000000e+00 0.00000000e+00 0.00000000e+00 0.00000000e+00
 0.00000000e+00 0.00000000e+00 0.00000000e+00 0.00000000e+00
 0.00000000e+00 0.00000000e+00 0.00000000e+00 0.00000000e+00
 0.00000000e+00 0.00000000e+00 1.43559358e-08 5.11124858e-12
 0.00000000e+00 0.00000000e+00 0.00000000e+00 9.99119985e-03]","[[9.99092222e-06 4.96631997e-15 1.43559358e-11]
 [4.96631997e-15 9.99090827e-06 5.11124858e-15]
 [1.43559358e-11 5.11124858e-15 9.99119985e-06]]",[ 3.15427669e-13  8.13636737e-17 -7.75858020e-04],0.0,0.0
1787053633.4048207,-3.620027219637362e-13,-9.82635561403624e-17,0.0008082555025081817,"[9.99062322e-03 5.32028215e-12 0.00000000e+00 0.00000000e+00
 0.00000000e+00 1.48129090e-08 5.32028215e-12 9.99060883e-03
 0.00000000e+00 0.00000000e+00 0.00000000e+00 5.47554023e-12
 0.00000000e+00 0.00000000e+00 0.00000000e+00 0.00000000e+00
 0.00000000e+00 0.00000000e+00 0.00000000e+00 0.00000000e+00
 0.00000000e+00 0.00000000e+00 0.00000000e+00 0.00000000e+00
 0.00000000e+00 0.00000000e+00 0.00000000e+00 0.00000000e+00
 0.00000000e+00 0.00000000e+00 1.48129090e-08 5.47554023e-12
 0.00000000e+00 0.00000000e+00 0.00000000e+00 9.99090968e-03]","[[9.99062322e-06 5.32028215e-15 1.48129090e-11]
 [5.32028215e-15 9.99060883e-06 5.47554023e-15]
 [1.48129090e-11 5.47554023e-15 9.99090968e-06]]",[ 3.50033484e-13  9.38388139e-17 -8.08263578e-04],0.0,0.0
1787053633.4570315,-3.8602858209233544e-13,-1.0730437373498471e-16,0.000795670758356959,"[9.99042390e-03 5.56466133e-12 0.00000000e+00 0.00000000e+00
 0.00000000e+00 1.51250262e-08 5.56466133e-12 9.99040921e-03
 0.00000000e+00 0.00000000e+00 0.00000000e+00 5.72705099e-12
 0.00000000e+00 0.00000000e+00 0.00000000e+00 0.00000000e+00
 0.00000000e+00 0.00000000e+00 0.00000000e+00 0.00000000e+00
 0.00000000e+00 0.00000000e+00 0.00000000e+00 0.00000000e+00
 0.00000000e+00 0.00000000e+00 0.00000000e+00 0.00000000e+00
 0.00000000e+00 0.00000000e+00 1.51250262e-08 5.72705099e-12
 0.00000000e+00 0.00000000e+00 0.00000000e+00 9.99071640e-03]","[[9.99042390e-06 5.56466133e-15 1.51250262e-11]
 [5.56466133e-15 9.99040921e-06 5.72705099e-15]
 [1.51250262e-11 5.72705099e-15 9.99071640e-06]]",[ 3.73997657e-13  1.02748508e-16 -7.95678708e-04],0.0,0.0
1787053633.5047257,-4.2228725888673877e-13,-1.2136922520789436e-16,0.0007745024073635419,"[9.99012499e-03 5.96017816e-12 0.00000000e+00 0.00000000e+00
 0.00000000e+00 1.56406134e-08 5.96017816e-12 9.99010979e-03
 0.00000000e+00 0.00000000e+00 0.00000000e+00 6.13410994e-12
 0.00000000e+00 0.00000000e+00 0.00000000e+00 0.00000000e+00
 0.00000000e+00 0.00000000e+00 0.00000000e+00 0.00000000e+00
 0.00000000e+00 0.00000000e+00 0.00000000e+00 0.00000000e+00
 0.00000000e+00 0.00000000e+00 0.00000000e+00 0.00000000e+00
 0.00000000e+00 0.00000000e+00 1.56406134e-08 6.13410994e-12
 0.00000000e+00 0.00000000e+00 0.00000000e+00 9.99042746e-03]","[[9.99012499e-06 5.96017816e-15 1.56406134e-11]
 [5.96017816e-15 9.99010979e-06 6.13410994e-15]
 [1.56406134e-11 6.13410994e-15 9.99042746e-06]]",[ 4.10177543e-13  1.16619460e-16 -7.74510145e-04],0.0,0.0
1787053633.5548928,-4.464350149319413e-13,-1.3094618052481704e-16,0.0007593763765370021,"[9.98992563e-03 6.14872690e-12 0.00000000e+00 0.00000000e+00
 0.00000000e+00 1.58921433e-08 6.14872690e-12 9.98991019e-03
 0.00000000e+00 0.00000000e+00 0.00000000e+00 6.32816099e-12
 0.00000000e+00 0.00000000e+00 0.00000000e+00 0.00000000e+00
 0.00000000e+00 0.00000000e+00 0.00000000e+00 0.00000000e+00
 0.00000000e+00 0.00000000e+00 0.00000000e+00 0.00000000e+00
 0.00000000e+00 0.00000000e+00 0.00000000e+00 0.00000000e+00
 0.00000000e+00 0.00000000e+00 1.58921433e-08 6.32816099e-12
 0.00000000e+00 0.00000000e+00 0.00000000e+00 9.99023297e-03]","[[9.98992563e-06 6.14872690e-15 1.58921433e-11]
 [6.14872690e-15 9.98991019e-06 6.32816099e-15]
 [1.58921433e-11 6.32816099e-15 9.99023297e-06]]",[ 4.34371116e-13  1.26141937e-16 -7.59383963e-04],0.0,0.0
1787053633.60516,-4.827057456189712e-13,-1.4565729487300313e-16,0.0007379300578733707,"[9.98962676e-03 6.53296169e-12 0.00000000e+00 0.00000000e+00
 0.00000000e+00 1.64175802e-08 6.53296169e-12 9.98961080e-03
 0.00000000e+00 0.00000000e+00 0.00000000e+00 6.72360867e-12
 0.00000000e+00 0.00000000e+00 0.00000000e+00 0.00000000e+00
 0.00000000e+00 0.00000000e+00 0.00000000e+00 0.00000000e+00
 0.00000000e+00 0.00000000e+00 0.00000000e+00 0.00000000e+00
 0.00000000e+00 0.00000000e+00 0.00000000e+00 0.00000000e+00
 0.00000000e+00 0.00000000e+00 1.64175802e-08 6.72360867e-12
 0.00000000e+00 0.00000000e+00 0.00000000e+00 9.98994425e-03]","[[9.98962676e-06 6.53296169e-15 1.64175802e-11]
 [6.53296169e-15 9.98961080e-06 6.72360867e-15]
 [1.64175802e-11 6.72360867e-15 9.98994425e-06]]",[ 4.70595300e-13  1.40697098e-16 -7.37937430e-04],0.0,0.0
1787053633.6560097,-5.073825547778604e-13,-1.5587479825977724e-16,0.0007432218652452249,"[9.98942751e-03 6.77915497e-12 0.00000000e+00 0.00000000e+00
 0.00000000e+00 1.67599705e-08 6.77915497e-12 9.98941122e-03
 0.00000000e+00 0.00000000e+00 0.00000000e+00 6.97698644e-12
 0.00000000e+00 0.00000000e+00 0.00000000e+00 0.00000000e+00
 0.00000000e+00 0.00000000e+00 0.00000000e+00 0.00000000e+00
 0.00000000e+00 0.00000000e+00 0.00000000e+00 0.00000000e+00
 0.00000000e+00 0.00000000e+00 0.00000000e+00 0.00000000e+00
 0.00000000e+00 0.00000000e+00 1.67599705e-08 6.97698644e-12
 0.00000000e+00 0.00000000e+00 0.00000000e+00 9.98975163e-03]","[[9.98942751e-06 6.77915497e-15 1.67599705e-11]
 [6.77915497e-15 9.98941122e-06 6.97698644e-15]
 [1.67599705e-11 6.97698644e-15 9.98975163e-06]]",[ 4.94930998e-13  1.50690803e-16 -7.43229290e-04],0.0,0.0
1787053633.7046294,-5.462863835920096e-13,-1.722620147639601e-16,0.0007800574737224508,"[9.98912855e-03 7.07598802e-12 0.00000000e+00 0.00000000e+00
 0.00000000e+00 1.71660313e-08 7.07598802e-12 9.98911187e-03
 0.00000000e+00 0.00000000e+00 0.00000000e+00 7.28248179e-12
 0.00000000e+00 0.00000000e+00 0.00000000e+00 0.00000000e+00
 0.00000000e+00 0.00000000e+00 0.00000000e+00 0.00000000e+00
 0.00000000e+00 0.00000000e+00 0.00000000e+00 0.00000000e+00
 0.00000000e+00 0.00000000e+00 0.00000000e+00 0.00000000e+00
 0.00000000e+00 0.00000000e+00 1.71660313e-08 7.28248179e-12
 0.00000000e+00 0.00000000e+00 0.00000000e+00 9.98946052e-03]","[[9.98912855e-06 7.07598802e-15 1.71660313e-11]
 [7.07598802e-15 9.98911187e-06 7.28248179e-15]
 [1.71660313e-11 7.28248179e-15 9.98946052e-06]]",[ 5.32901082e-13  1.66582868e-16 -7.80065266e-04],0.0,0.0
1787053633.7552202,-5.727002688811424e-13,-1.8358870107492665e-16,0.0007530557665322847,"[9.98892928e-03 7.30036879e-12 0.00000000e+00 0.00000000e+00
 0.00000000e+00 1.74643352e-08 7.30036879e-12 9.98891231e-03
 0.00000000e+00 0.00000000e+00 0.00000000e+00 7.51341052e-12
 0.00000000e+00 0.00000000e+00 0.00000000e+00 0.00000000e+00
 0.00000000e+00 0.00000000e+00 0.00000000e+00 0.00000000e+00
 0.00000000e+00 0.00000000e+00 0.00000000e+00 0.00000000e+00
 0.00000000e+00 0.00000000e+00 0.00000000e+00 0.00000000e+00
 0.00000000e+00 0.00000000e+00 1.74643352e-08 7.51341052e-12
 0.00000000e+00 0.00000000e+00 0.00000000e+00 9.98926702e-03]","[[9.98892928e-06 7.30036879e-15 1.74643352e-11]
 [7.30036879e-15 9.98891231e-06 7.51341052e-15]
 [1.74643352e-11 7.51341052e-15 9.98926702e-06]]",[ 5.59554108e-13  1.77932405e-16 -7.53063289e-04],0.0,0.0
1787053633.804763,-6.136974594286099e-13,-2.0147215059579176e-16,0.0007767350839582576,"[9.98863043e-03 7.66496130e-12 0.00000000e+00 0.00000000e+00
 0.00000000e+00 1.79568834e-08 7.66496130e-12 9.98861298e-03
 0.00000000e+00 0.00000000e+00 0.00000000e+00 7.88864271e-12
 0.00000000e+00 0.00000000e+00 0.00000000e+00 0.00000000e+00
 0.00000000e+00 0.00000000e+00 0.00000000e+00 0.00000000e+00
 0.00000000e+00 0.00000000e+00 0.00000000e+00 0.00000000e+00
 0.00000000e+00 0.00000000e+00 0.00000000e+00 0.00000000e+00
 0.00000000e+00 0.00000000e+00 1.79568834e-08 7.88864271e-12
 0.00000000e+00 0.00000000e+00 0.00000000e+00 9.98897769e-03]","[[9.98863043e-06 7.66496130e-15 1.79568834e-11]
 [7.66496130e-15 9.98861298e-06 7.88864271e-15]
 [1.79568834e-11 7.88864271e-15 9.98897769e-06]]",[ 5.99755570e-13  1.95346655e-16 -7.76742843e-04],0.0,0.0
1787053633.8547316,-6.422979750915356e-13,-2.1414930181007775e-16,0.0007912874940458893,"[9.98843116e-03 7.87597369e-12 0.00000000e+00 0.00000000e+00
 0.00000000e+00 1.82348464e-08 7.87597369e-12 9.98841344e-03
 0.00000000e+00 0.00000000e+00 0.00000000e+00 8.10581294e-12
 0.00000000e+00 0.00000000e+00 0.00000000e+00 0.00000000e+00
 0.00000000e+00 0.00000000e+00 0.00000000e+00 0.00000000e+00
 0.00000000e+00 0.00000000e+00 0.00000000e+00 0.00000000e+00
 0.00000000e+00 0.00000000e+00 0.00000000e+00 0.00000000e+00
 0.00000000e+00 0.00000000e+00 1.82348464e-08 8.10581294e-12
 0.00000000e+00 0.00000000e+00 0.00000000e+00 9.98878380e-03]","[[9.98843116e-06 7.87597369e-15 1.82348464e-11]
 [7.87597369e-15 9.98841344e-06 8.10581294e-15]
 [1.82348464e-11 8.10581294e-15 9.98878380e-06]]",[ 6.27875097e-13  2.07737284e-16 -7.91295398e-04],0.0,0.0
1787053633.9044528,-6.801585972620104e-13,-2.3118658108434093e-16,0.000627572564009693,"[9.98813233e-03 8.22266639e-12 0.00000000e+00 0.00000000e+00
 0.00000000e+00 1.87174264e-08 8.22266639e-12 9.98811414e-03
 0.00000000e+00 0.00000000e+00 0.00000000e+00 8.46262296e-12
 0.00000000e+00 0.00000000e+00 0.00000000e+00 0.00000000e+00
 0.00000000e+00 0.00000000e+00 0.00000000e+00 0.00000000e+00
 0.00000000e+00 0.00000000e+00 0.00000000e+00 0.00000000e+00
 0.00000000e+00 0.00000000e+00 0.00000000e+00 0.00000000e+00
 0.00000000e+00 0.00000000e+00 1.87174264e-08 8.46262296e-12
 0.00000000e+00 0.00000000e+00 0.00000000e+00 9.98849430e-03]","[[9.98813233e-06 8.22266639e-15 1.87174264e-11]
 [8.22266639e-15 9.98811414e-06 8.46262296e-15]
 [1.87174264e-11 8.46262296e-15 9.98849430e-06]]",[ 6.68418613e-13  2.25877874e-16 -6.27578833e-04],0.0,0.0
1787053633.955015,-7.041306858572303e-13,-2.4207565670800256e-16,0.000635210884400106,"[9.98793309e-03 8.40042591e-12 0.00000000e+00 0.00000000e+00
 0.00000000e+00 1.90078530e-08 8.40042591e-12 9.98791462e-03
 0.00000000e+00 0.00000000e+00 0.00000000e+00 8.64556991e-12
 0.00000000e+00 0.00000000e+00 0.00000000e+00 0.00000000e+00
 0.00000000e+00 0.00000000e+00 0.00000000e+00 0.00000000e+00
 0.00000000e+00 0.00000000e+00 0.00000000e+00 0.00000000e+00
 0.00000000e+00 0.00000000e+00 0.00000000e+00 0.00000000e+00
 0.00000000e+00 0.00000000e+00 1.90078530e-08 8.64556991e-12
 0.00000000e+00 0.00000000e+00 0.00000000e+00 9.98830068e-03]","[[9.98793309e-06 8.40042591e-15 1.90078530e-11]
 [8.40042591e-15 9.98791462e-06 8.64556991e-15]
 [1.90078530e-11 8.64556991e-15 9.98830068e-06]]",[ 6.92063482e-13  2.36586205e-16 -6.35217229e-04],0.0,0.0
1787053634.0051417,-7.412596361901417e-13,-2.5908081105087555e-16,0.0006432554090460841,"[9.98763433e-03 8.72064892e-12 0.00000000e+00 0.00000000e+00
 0.00000000e+00 1.95240796e-08 8.72064892e-12 9.98761536e-03
 0.00000000e+00 0.00000000e+00 0.00000000e+00 8.97513776e-12
 0.00000000e+00 0.00000000e+00 0.00000000e+00 0.00000000e+00
 0.00000000e+00 0.00000000e+00 0.00000000e+00 0.00000000e+00
 0.00000000e+00 0.00000000e+00 0.00000000e+00 0.00000000e+00
 0.00000000e+00 0.00000000e+00 0.00000000e+00 0.00000000e+00
 0.00000000e+00 0.00000000e+00 1.95240796e-08 8.97513776e-12
 0.00000000e+00 0.00000000e+00 0.00000000e+00 9.98801190e-03]","[[9.98763433e-06 8.72064892e-15 1.95240796e-11]
 [8.72064892e-15 9.98761536e-06 8.97513776e-15]
 [1.95240796e-11 8.97513776e-15 9.98801190e-06]]",[ 7.28707819e-13  2.53309977e-16 -6.43261834e-04],0.0,0.0
1787053634.0554292,-7.668915263036702e-13,-2.7093467216132376e-16,0.0006479039944147226,"[9.98743514e-03 8.92127609e-12 0.00000000e+00 0.00000000e+00
 0.00000000e+00 1.98445598e-08 8.92127609e-12 9.98741586e-03
 0.00000000e+00 0.00000000e+00 0.00000000e+00 9.18161968e-12
 0.00000000e+00 0.00000000e+00 0.00000000e+00 0.00000000e+00
 0.00000000e+00 0.00000000e+00 0.00000000e+00 0.00000000e+00
 0.00000000e+00 0.00000000e+00 0.00000000e+00 0.00000000e+00
 0.00000000e+00 0.00000000e+00 0.00000000e+00 0.00000000e+00
 0.00000000e+00 0.00000000e+00 1.98445598e-08 9.18161968e-12
 0.00000000e+00 0.00000000e+00 0.00000000e+00 9.98781891e-03]","[[9.98743514e-06 8.92127609e-15 1.98445598e-11]
 [8.92127609e-15 9.98741586e-06 9.18161968e-15]
 [1.98445598e-11 9.18161968e-15 9.98781891e-06]]",[ 7.54041559e-13  2.64988451e-16 -6.47910466e-04],0.0,0.0
1787053634.1044695,-8.146319224980111e-13,-2.931952748751329e-16,0.0008638071732622878,"[9.98713633e-03 9.23396753e-12 0.00000000e+00 0.00000000e+00
 0.00000000e+00 2.02903970e-08 9.23396753e-12 9.98711662e-03
 0.00000000e+00 0.00000000e+00 0.00000000e+00 9.50343619e-12
 0.00000000e+00 0.00000000e+00 0.00000000e+00 0.00000000e+00
 0.00000000e+00 0.00000000e+00 0.00000000e+00 0.00000000e+00
 0.00000000e+00 0.00000000e+00 0.00000000e+00 0.00000000e+00
 0.00000000e+00 0.00000000e+00 0.00000000e+00 0.00000000e+00
 0.00000000e+00 0.00000000e+00 2.02903970e-08 9.50343619e-12
 0.00000000e+00 0.00000000e+00 0.00000000e+00 9.98752873e-03]","[[9.98713633e-06 9.23396753e-15 2.02903970e-11]
 [9.23396753e-15 9.98711662e-06 9.50343619e-15]
 [2.02903970e-11 9.50343619e-15 9.98752873e-06]]",[ 7.97112718e-13  2.84988903e-16 -8.63815801e-04],0.0,0.0
1787053634.1557927,-8.565248026421985e-13,-3.130207977331569e-16,0.0010753136079411083,"[9.98693715e-03 9.50456156e-12 0.00000000e+00 0.00000000e+00
 0.00000000e+00 2.05934270e-08 9.50456156e-12 9.98691714e-03
 0.00000000e+00 0.00000000e+00 0.00000000e+00 9.78192684e-12
 0.00000000e+00 0.00000000e+00 0.00000000e+00 0.00000000e+00
 0.00000000e+00 0.00000000e+00 0.00000000e+00 0.00000000e+00
 0.00000000e+00 0.00000000e+00 0.00000000e+00 0.00000000e+00
 0.00000000e+00 0.00000000e+00 0.00000000e+00 0.00000000e+00
 0.00000000e+00 0.00000000e+00 2.05934270e-08 9.78192684e-12
 0.00000000e+00 0.00000000e+00 0.00000000e+00 9.98733540e-03]","[[9.98693715e-06 9.50456156e-15 2.05934270e-11]
 [9.50456156e-15 9.98691714e-06 9.78192684e-15]
 [2.05934270e-11 9.78192684e-15 9.98733540e-06]]",[ 8.34388522e-13  3.02505075e-16 -1.07532435e-03],0.0,0.0
1787053634.204655,-9.054055290686491e-13,-3.3664407285104265e-16,0.0011979488614701772,"[9.98673801e-03 9.86840669e-12 0.00000000e+00 0.00000000e+00
 0.00000000e+00 2.09330826e-08 9.86840669e-12 9.98671767e-03
 0.00000000e+00 0.00000000e+00 0.00000000e+00 1.01563900e-11
 0.00000000e+00 0.00000000e+00 0.00000000e+00 0.00000000e+00
 0.00000000e+00 0.00000000e+00 0.00000000e+00 0.00000000e+00
 0.00000000e+00 0.00000000e+00 0.00000000e+00 0.00000000e+00
 0.00000000e+00 0.00000000e+00 0.00000000e+00 0.00000000e+00
 0.00000000e+00 0.00000000e+00 2.09330826e-08 1.01563900e-11
 0.00000000e+00 0.00000000e+00 0.00000000e+00 9.98714283e-03]","[[9.98673801e-06 9.86840669e-15 2.09330826e-11]
 [9.86840669e-15 9.98671767e-06 1.01563900e-14]
 [2.09330826e-11 1.01563900e-14 9.98714283e-06]]",[ 8.80337308e-13  3.24480356e-16 -1.19796083e-03],0.0,0.0
1787053634.2547698,-9.852487179892712e-13,-3.762790482767689e-16,0.0012348496420258035,"[9.98643925e-03 1.04107688e-11 0.00000000e+00 0.00000000e+00
 0.00000000e+00 2.13863387e-08 1.04107688e-11 9.98641847e-03
 0.00000000e+00 0.00000000e+00 0.00000000e+00 1.07145797e-11
 0.00000000e+00 0.00000000e+00 0.00000000e+00 0.00000000e+00
 0.00000000e+00 0.00000000e+00 0.00000000e+00 0.00000000e+00
 0.00000000e+00 0.00000000e+00 0.00000000e+00 0.00000000e+00
 0.00000000e+00 0.00000000e+00 0.00000000e+00 0.00000000e+00
 0.00000000e+00 0.00000000e+00 2.13863387e-08 1.07145797e-11
 0.00000000e+00 0.00000000e+00 0.00000000e+00 9.98685284e-03]","[[9.98643925e-06 1.04107688e-14 2.13863387e-11]
 [1.04107688e-14 9.98641847e-06 1.07145797e-14]
 [2.13863387e-11 1.07145797e-14 9.98685284e-06]]",[ 9.58849117e-13  3.63051647e-16 -1.23486197e-03],0.0,0.0
1787053634.3054054,-1.0357184342424317e-12,-4.0195083734092033e-16,0.001120535165399783,"[9.98624010e-03 1.07775358e-11 0.00000000e+00 0.00000000e+00
 0.00000000e+00 2.16939757e-08 1.07775358e-11 9.98621902e-03
 0.00000000e+00 0.00000000e+00 0.00000000e+00 1.10920501e-11
 0.00000000e+00 0.00000000e+00 0.00000000e+00 0.00000000e+00
 0.00000000e+00 0.00000000e+00 0.00000000e+00 0.00000000e+00
 0.00000000e+00 0.00000000e+00 0.00000000e+00 0.00000000e+00
 0.00000000e+00 0.00000000e+00 0.00000000e+00 0.00000000e+00
 0.00000000e+00 0.00000000e+00 2.16939757e-08 1.10920501e-11
 0.00000000e+00 0.00000000e+00 0.00000000e+00 9.98665963e-03]","[[9.98624010e-06 1.07775358e-14 2.16939757e-11]
 [1.07775358e-14 9.98621902e-06 1.10920501e-14]
 [2.16939757e-11 1.10920501e-14 9.98665963e-06]]",[ 1.01141943e-12  3.89525571e-16 -1.12054636e-03],0.0,0.0
1787053634.3604228,-1.1012632109547989e-12,-4.361119676412884e-16,0.0009864210028891485,"[9.98594142e-03 1.12933112e-11 0.00000000e+00 0.00000000e+00
 0.00000000e+00 2.21921311e-08 1.12933112e-11 9.98591985e-03
 0.00000000e+00 0.00000000e+00 0.00000000e+00 1.16228772e-11
 0.00000000e+00 0.00000000e+00 0.00000000e+00 0.00000000e+00
 0.00000000e+00 0.00000000e+00 0.00000000e+00 0.00000000e+00
 0.00000000e+00 0.00000000e+00 0.00000000e+00 0.00000000e+00
 0.00000000e+00 0.00000000e+00 0.00000000e+00 0.00000000e+00
 0.00000000e+00 0.00000000e+00 2.21921311e-08 1.16228772e-11
 0.00000000e+00 0.00000000e+00 0.00000000e+00 9.98637058e-03]","[[9.98594142e-06 1.12933112e-14 2.21921311e-11]
 [1.12933112e-14 9.98591985e-06 1.16228772e-14]
 [2.21921311e-11 1.16228772e-14 9.98637058e-06]]",[ 1.07938299e-12  4.24651044e-16 -9.86430854e-04],0.0,0.0
1787053634.404481,-1.1701546487398403e-12,-4.72719824484855e-16,0.0010329154730404078,"[9.98564276e-03 1.17822185e-11 0.00000000e+00 0.00000000e+00
 0.00000000e+00 2.26944193e-08 1.17822185e-11 9.98562071e-03
 0.00000000e+00 0.00000000e+00 0.00000000e+00 1.21260520e-11
 0.00000000e+00 0.00000000e+00 0.00000000e+00 0.00000000e+00
 0.00000000e+00 0.00000000e+00 0.00000000e+00 0.00000000e+00
 0.00000000e+00 0.00000000e+00 0.00000000e+00 0.00000000e+00
 0.00000000e+00 0.00000000e+00 0.00000000e+00 0.00000000e+00
 0.00000000e+00 0.00000000e+00 2.26944193e-08 1.21260520e-11
 0.00000000e+00 0.00000000e+00 0.00000000e+00 9.98608164e-03]","[[9.98564276e-06 1.17822185e-14 2.26944193e-11]
 [1.17822185e-14 9.98562071e-06 1.21260520e-14]
 [2.26944193e-11 1.21260520e-14 9.98608164e-06]]",[ 1.14672445e-12  4.60199108e-16 -1.03292579e-03],0.0,0.0
1787053634.4551482,-1.2184544743490784e-12,-4.987471993796098e-16,0.0010631742511137965,"[9.98544361e-03 1.20660287e-11 0.00000000e+00 0.00000000e+00
 0.00000000e+00 2.29746087e-08 1.20660287e-11 9.98542128e-03
 0.00000000e+00 0.00000000e+00 0.00000000e+00 1.24181445e-11
 0.00000000e+00 0.00000000e+00 0.00000000e+00 0.00000000e+00
 0.00000000e+00 0.00000000e+00 0.00000000e+00 0.00000000e+00
 0.00000000e+00 0.00000000e+00 0.00000000e+00 0.00000000e+00
 0.00000000e+00 0.00000000e+00 0.00000000e+00 0.00000000e+00
 0.00000000e+00 0.00000000e+00 2.29746087e-08 1.24181445e-11
 0.00000000e+00 0.00000000e+00 0.00000000e+00 9.98588791e-03]","[[9.98544361e-06 1.20660287e-14 2.29746087e-11]
 [1.20660287e-14 9.98542128e-06 1.24181445e-14]
 [2.29746087e-11 1.24181445e-14 9.98588791e-06]]",[ 1.19404014e-12  4.85549264e-16 -1.06318487e-03],0.0,0.0
1787053634.505672,-1.2942589834222231e-12,-5.402765020703153e-16,0.0010961914473210934,"[9.98514495e-03 1.25574168e-11 0.00000000e+00 0.00000000e+00
 0.00000000e+00 2.34447946e-08 1.25574168e-11 9.98512217e-03
 0.00000000e+00 0.00000000e+00 0.00000000e+00 1.29238726e-11
 0.00000000e+00 0.00000000e+00 0.00000000e+00 0.00000000e+00
 0.00000000e+00 0.00000000e+00 0.00000000e+00 0.00000000e+00
 0.00000000e+00 0.00000000e+00 0.00000000e+00 0.00000000e+00
 0.00000000e+00 0.00000000e+00 0.00000000e+00 0.00000000e+00
 0.00000000e+00 0.00000000e+00 2.34447946e-08 1.29238726e-11
 0.00000000e+00 0.00000000e+00 0.00000000e+00 9.98559834e-03]","[[9.98514495e-06 1.25574168e-14 2.34447946e-11]
 [1.25574168e-14 9.98512217e-06 1.29238726e-14]
 [2.34447946e-11 1.29238726e-14 9.98559834e-06]]",[ 1.26857141e-12  5.26114575e-16 -1.09620239e-03],0.0,0.0
1787053634.5554593,-1.35011108579081e-12,-5.713737925803227e-16,0.0012075311584753836,"[9.98494584e-03 1.28853669e-11 0.00000000e+00 0.00000000e+00
 0.00000000e+00 2.37447217e-08 1.28853669e-11 9.98492277e-03
 0.00000000e+00 0.00000000e+00 0.00000000e+00 1.32613932e-11
 0.00000000e+00 0.00000000e+00 0.00000000e+00 0.00000000e+00
 0.00000000e+00 0.00000000e+00 0.00000000e+00 0.00000000e+00
 0.00000000e+00 0.00000000e+00 0.00000000e+00 0.00000000e+00
 0.00000000e+00 0.00000000e+00 0.00000000e+00 0.00000000e+00
 0.00000000e+00 0.00000000e+00 2.37447217e-08 1.32613932e-11
 0.00000000e+00 0.00000000e+00 0.00000000e+00 9.98540503e-03]","[[9.98494584e-06 1.28853669e-14 2.37447217e-11]
 [1.28853669e-14 9.98492277e-06 1.32613932e-14]
 [2.37447217e-11 1.32613932e-14 9.98540503e-06]]",[ 1.32145150e-12  5.55365633e-16 -1.20754322e-03],0.0,0.0
1787053634.6046536,-1.4405720884500064e-12,-6.226898086182279e-16,0.0012444433507514674,"[9.98464720e-03 1.34470058e-11 0.00000000e+00 0.00000000e+00
 0.00000000e+00 2.42093344e-08 1.34470058e-11 9.98462368e-03
 0.00000000e+00 0.00000000e+00 0.00000000e+00 1.38394223e-11
 0.00000000e+00 0.00000000e+00 0.00000000e+00 0.00000000e+00
 0.00000000e+00 0.00000000e+00 0.00000000e+00 0.00000000e+00
 0.00000000e+00 0.00000000e+00 0.00000000e+00 0.00000000e+00
 0.00000000e+00 0.00000000e+00 0.00000000e+00 0.00000000e+00
 0.00000000e+00 0.00000000e+00 2.42093344e-08 1.38394223e-11
 0.00000000e+00 0.00000000e+00 0.00000000e+00 9.98511538e-03]","[[9.98464720e-06 1.34470058e-14 2.42093344e-11]
 [1.34470058e-14 9.98462368e-06 1.38394223e-14]
 [2.42093344e-11 1.38394223e-14 9.98511538e-06]]",[ 1.41045873e-12  6.05473305e-16 -1.24445578e-03],0.0,0.0
1787053634.6545262,-1.4993021764925286e-12,-6.566718074546922e-16,0.001188561844024605,"[9.98444813e-03 1.38248003e-11 0.00000000e+00 0.00000000e+00
 0.00000000e+00 2.45243488e-08 1.38248003e-11 9.98442430e-03
 0.00000000e+00 0.00000000e+00 0.00000000e+00 1.42282420e-11
 0.00000000e+00 0.00000000e+00 0.00000000e+00 0.00000000e+00
 0.00000000e+00 0.00000000e+00 0.00000000e+00 0.00000000e+00
 0.00000000e+00 0.00000000e+00 0.00000000e+00 0.00000000e+00
 0.00000000e+00 0.00000000e+00 0.00000000e+00 0.00000000e+00
 0.00000000e+00 0.00000000e+00 2.45243488e-08 1.42282420e-11
 0.00000000e+00 0.00000000e+00 0.00000000e+00 9.98492240e-03]","[[9.98444813e-06 1.38248003e-14 2.45243488e-11]
 [1.38248003e-14 9.98442430e-06 1.42282420e-14]
 [2.45243488e-11 1.42282420e-14 9.98492240e-06]]",[ 1.47016786e-12  6.39766881e-16 -1.18857371e-03],0.0,0.0
1787053634.704437,-1.5858365437360529e-12,-7.075502586598166e-16,0.0011490385005354933,"[9.98414952e-03 1.43536675e-11 0.00000000e+00 0.00000000e+00
 0.00000000e+00 2.49864719e-08 1.43536675e-11 9.98412524e-03
 0.00000000e+00 0.00000000e+00 0.00000000e+00 1.47725430e-11
 0.00000000e+00 0.00000000e+00 0.00000000e+00 0.00000000e+00
 0.00000000e+00 0.00000000e+00 0.00000000e+00 0.00000000e+00
 0.00000000e+00 0.00000000e+00 0.00000000e+00 0.00000000e+00
 0.00000000e+00 0.00000000e+00 0.00000000e+00 0.00000000e+00
 0.00000000e+00 0.00000000e+00 2.49864719e-08 1.47725430e-11
 0.00000000e+00 0.00000000e+00 0.00000000e+00 9.98463273e-03]","[[9.98414952e-06 1.43536675e-14 2.49864719e-11]
 [1.43536675e-14 9.98412524e-06 1.47725430e-14]
 [2.49864719e-11 1.47725430e-14 9.98463273e-06]]",[ 1.55714139e-12  6.90582763e-16 -1.14904997e-03],0.0,0.0
1787053634.7547643,-1.6414426453416325e-12,-7.407116171573723e-16,0.0010883284955531813,"[9.98395045e-03 1.46904827e-11 0.00000000e+00 0.00000000e+00
 0.00000000e+00 2.52916052e-08 1.46904827e-11 9.98392588e-03
 0.00000000e+00 0.00000000e+00 0.00000000e+00 1.51191874e-11
 0.00000000e+00 0.00000000e+00 0.00000000e+00 0.00000000e+00
 0.00000000e+00 0.00000000e+00 0.00000000e+00 0.00000000e+00
 0.00000000e+00 0.00000000e+00 0.00000000e+00 0.00000000e+00
 0.00000000e+00 0.00000000e+00 0.00000000e+00 0.00000000e+00
 0.00000000e+00 0.00000000e+00 2.52916052e-08 1.51191874e-11
 0.00000000e+00 0.00000000e+00 0.00000000e+00 9.98443956e-03]","[[9.98395045e-06 1.46904827e-14 2.52916052e-11]
 [1.46904827e-14 9.98392588e-06 1.51191874e-14]
 [2.52916052e-11 1.51191874e-14 9.98443956e-06]]",[ 1.61393291e-12  7.24264041e-16 -1.08833936e-03],0.0,0.0
1787053634.8053968,-1.7167545816579381e-12,-7.861582318376216e-16,0.0009271562071977435,"[9.98365189e-03 1.51709233e-11 0.00000000e+00 0.00000000e+00
 0.00000000e+00 2.57690095e-08 1.51709233e-11 9.98362685e-03
 0.00000000e+00 0.00000000e+00 0.00000000e+00 1.56136485e-11
 0.00000000e+00 0.00000000e+00 0.00000000e+00 0.00000000e+00
 0.00000000e+00 0.00000000e+00 0.00000000e+00 0.00000000e+00
 0.00000000e+00 0.00000000e+00 0.00000000e+00 0.00000000e+00
 0.00000000e+00 0.00000000e+00 0.00000000e+00 0.00000000e+00
 0.00000000e+00 0.00000000e+00 2.57690095e-08 1.56136485e-11
 0.00000000e+00 0.00000000e+00 0.00000000e+00 9.98415023e-03]","[[9.98365189e-06 1.51709233e-14 2.57690095e-11]
 [1.51709233e-14 9.98362685e-06 1.56136485e-14]
 [2.57690095e-11 1.56136485e-14 9.98415023e-06]]",[ 1.69287935e-12  7.71689500e-16 -9.27165464e-04],0.0,0.0
1787053634.8570883,-1.7643730746823463e-12,-8.151522861086721e-16,0.0009128895192382914,"[9.98345284e-03 1.54437598e-11 0.00000000e+00 0.00000000e+00
 0.00000000e+00 2.60726410e-08 1.54437598e-11 9.98342751e-03
 0.00000000e+00 0.00000000e+00 0.00000000e+00 1.58944471e-11
 0.00000000e+00 0.00000000e+00 0.00000000e+00 0.00000000e+00
 0.00000000e+00 0.00000000e+00 0.00000000e+00 0.00000000e+00
 0.00000000e+00 0.00000000e+00 0.00000000e+00 0.00000000e+00
 0.00000000e+00 0.00000000e+00 0.00000000e+00 0.00000000e+00
 0.00000000e+00 0.00000000e+00 2.60726410e-08 1.58944471e-11
 0.00000000e+00 0.00000000e+00 0.00000000e+00 9.98395706e-03]","[[9.98345284e-06 1.54437598e-14 2.60726410e-11]
 [1.54437598e-14 9.98342751e-06 1.58944471e-14]
 [2.60726410e-11 1.58944471e-14 9.98395706e-06]]",[ 1.74058877e-12  8.00650260e-16 -9.12898634e-04],0.0,0.0
1787053634.9044638,-1.8510267394120992e-12,-8.68367105153291e-16,0.0011836576617878514,"[9.98315429e-03 1.58844936e-11 0.00000000e+00 0.00000000e+00
 0.00000000e+00 2.65251577e-08 1.58844936e-11 9.98312851e-03
 0.00000000e+00 0.00000000e+00 0.00000000e+00 1.63480426e-11
 0.00000000e+00 0.00000000e+00 0.00000000e+00 0.00000000e+00
 0.00000000e+00 0.00000000e+00 0.00000000e+00 0.00000000e+00
 0.00000000e+00 0.00000000e+00 0.00000000e+00 0.00000000e+00
 0.00000000e+00 0.00000000e+00 0.00000000e+00 0.00000000e+00
 0.00000000e+00 0.00000000e+00 2.65251577e-08 1.63480426e-11
 0.00000000e+00 0.00000000e+00 0.00000000e+00 9.98366725e-03]","[[9.98315429e-06 1.58844936e-14 2.65251577e-11]
 [1.58844936e-14 9.98312851e-06 1.63480426e-14]
 [2.65251577e-11 1.63480426e-14 9.98366725e-06]]",[ 1.81964789e-12  8.49024902e-16 -1.18366948e-03],0.0,0.0
1787053634.9546044,-1.914342045115643e-12,-9.077179041620888e-16,0.0011834444112914788,"[9.98295528e-03 1.62533723e-11 0.00000000e+00 0.00000000e+00
 0.00000000e+00 2.68454021e-08 1.62533723e-11 9.98292919e-03
 0.00000000e+00 0.00000000e+00 0.00000000e+00 1.67276862e-11
 0.00000000e+00 0.00000000e+00 0.00000000e+00 0.00000000e+00
 0.00000000e+00 0.00000000e+00 0.00000000e+00 0.00000000e+00
 0.00000000e+00 0.00000000e+00 0.00000000e+00 0.00000000e+00
 0.00000000e+00 0.00000000e+00 0.00000000e+00 0.00000000e+00
 0.00000000e+00 0.00000000e+00 2.68454021e-08 1.67276862e-11
 0.00000000e+00 0.00000000e+00 0.00000000e+00 9.98347443e-03]","[[9.98295528e-06 1.62533723e-14 2.68454021e-11]
 [1.62533723e-14 9.98292919e-06 1.67276862e-14]
 [2.68454021e-11 1.67276862e-14 9.98347443e-06]]",[ 1.88259048e-12  8.87930284e-16 -1.18345623e-03],0.0,0.0
1787053635.005874,-2.0078178526574823e-12,-9.665404450997239e-16,0.0011309185741041896,"[9.98265675e-03 1.67698403e-11 0.00000000e+00 0.00000000e+00
 0.00000000e+00 2.73005985e-08 1.67698403e-11 9.98263022e-03
 0.00000000e+00 0.00000000e+00 0.00000000e+00 1.72592261e-11
 0.00000000e+00 0.00000000e+00 0.00000000e+00 0.00000000e+00
 0.00000000e+00 0.00000000e+00 0.00000000e+00 0.00000000e+00
 0.00000000e+00 0.00000000e+00 0.00000000e+00 0.00000000e+00
 0.00000000e+00 0.00000000e+00 0.00000000e+00 0.00000000e+00
 0.00000000e+00 0.00000000e+00 2.73005985e-08 1.72592261e-11
 0.00000000e+00 0.00000000e+00 0.00000000e+00 9.98318471e-03]","[[9.98265675e-06 1.67698403e-14 2.73005985e-11]
 [1.67698403e-14 9.98263022e-06 1.72592261e-14]
 [2.73005985e-11 1.72592261e-14 9.98318471e-06]]",[ 1.97696253e-12  9.47030925e-16 -1.13092986e-03],0.0,0.0
1787053635.054821,-2.0078178526574823e-12,-9.665404450997239e-16,0.0011309185741041896,"[9.98265675e-03 1.67698403e-11 0.00000000e+00 0.00000000e+00
 0.00000000e+00 2.73005985e-08 1.67698403e-11 9.98263022e-03
 0.00000000e+00 0.00000000e+00 0.00000000e+00 1.72592261e-11
 0.00000000e+00 0.00000000e+00 0.00000000e+00 0.00000000e+00
 0.00000000e+00 0.00000000e+00 0.00000000e+00 0.00000000e+00
 0.00000000e+00 0.00000000e+00 0.00000000e+00 0.00000000e+00
 0.00000000e+00 0.00000000e+00 0.00000000e+00 0.00000000e+00
 0.00000000e+00 0.00000000e+00 2.73005985e-08 1.72592261e-11
 0.00000000e+00 0.00000000e+00 0.00000000e+00 9.98318471e-03]","[[9.98265675e-06 1.67698403e-14 2.73005985e-11]
 [1.67698403e-14 9.98263022e-06 1.72592261e-14]
 [2.73005985e-11 1.72592261e-14 9.98318471e-06]]",[ 1.97696253e-12  9.47030925e-16 -1.13092986e-03],0.0,0.0
1787053635.122032,-2.0078178526574823e-12,-9.665404450997239e-16,0.0011309185741041896,"[9.98265675e-03 1.67698403e-11 0.00000000e+00 0.00000000e+00
 0.00000000e+00 2.73005985e-08 1.67698403e-11 9.98263022e-03
 0.00000000e+00 0.00000000e+00 0.00000000e+00 1.72592261e-11
 0.00000000e+00 0.00000000e+00 0.00000000e+00 0.00000000e+00
 0.00000000e+00 0.00000000e+00 0.00000000e+00 0.00000000e+00
 0.00000000e+00 0.00000000e+00 0.00000000e+00 0.00000000e+00
 0.00000000e+00 0.00000000e+00 0.00000000e+00 0.00000000e+00
 0.00000000e+00 0.00000000e+00 2.73005985e-08 1.72592261e-11
 0.00000000e+00 0.00000000e+00 0.00000000e+00 9.98318471e-03]","[[9.98265675e-06 1.67698403e-14 2.73005985e-11]
 [1.67698403e-14 9.98263022e-06 1.72592261e-14]
 [2.73005985e-11 1.72592261e-14 9.98318471e-06]]",[ 1.97696253e-12  9.47030925e-16 -1.13092986e-03],0.0,0.0
1787053635.1615622,-2.0078178526574823e-12,-9.665404450997239e-16,0.0011309185741041896,"[9.98265675e-03 1.67698403e-11 0.00000000e+00 0.00000000e+00
 0.00000000e+00 2.73005985e-08 1.67698403e-11 9.98263022e-03
 0.00000000e+00 0.00000000e+00 0.00000000e+00 1.72592261e-11
 0.00000000e+00 0.00000000e+00 0.00000000e+00 0.00000000e+00
 0.00000000e+00 0.00000000e+00 0.00000000e+00 0.00000000e+00
 0.00000000e+00 0.00000000e+00 0.00000000e+00 0.00000000e+00
 0.00000000e+00 0.00000000e+00 0.00000000e+00 0.00000000e+00
 0.00000000e+00 0.00000000e+00 2.73005985e-08 1.72592261e-11
 0.00000000e+00 0.00000000e+00 0.00000000e+00 9.98318471e-03]","[[9.98265675e-06 1.67698403e-14 2.73005985e-11]
 [1.67698403e-14 9.98263022e-06 1.72592261e-14]
 [2.73005985e-11 1.72592261e-14 9.98318471e-06]]",[ 1.97696253e-12  9.47030925e-16 -1.13092986e-03],0.0,0.0
1787053635.2384148,-2.0078178526574823e-12,-9.665404450997239e-16,0.0011309185741041896,"[9.98265675e-03 1.67698403e-11 0.00000000e+00 0.00000000e+00
 0.00000000e+00 2.73005985e-08 1.67698403e-11 9.98263022e-03
 0.00000000e+00 0.00000000e+00 0.00000000e+00 1.72592261e-11
 0.00000000e+00 0.00000000e+00 0.00000000e+00 0.00000000e+00
 0.00000000e+00 0.00000000e+00 0.00000000e+00 0.00000000e+00
 0.00000000e+00 0.00000000e+00 0.00000000e+00 0.00000000e+00
 0.00000000e+00 0.00000000e+00 0.00000000e+00 0.00000000e+00
 0.00000000e+00 0.00000000e+00 2.73005985e-08 1.72592261e-11
 0.00000000e+00 0.00000000e+00 0.00000000e+00 9.98318471e-03]","[[9.98265675e-06 1.67698403e-14 2.73005985e-11]
 [1.67698403e-14 9.98263022e-06 1.72592261e-14]
 [2.73005985e-11 1.72592261e-14 9.98318471e-06]]",[ 1.97696253e-12  9.47030925e-16 -1.13092986e-03],0.0,0.0
1787053635.2559876,-2.0078178526574823e-12,-9.665404450997239e-16,0.0011309185741041896,"[9.98265675e-03 1.67698403e-11 0.00000000e+00 0.00000000e+00
 0.00000000e+00 2.73005985e-08 1.67698403e-11 9.98263022e-03
 0.00000000e+00 0.00000000e+00 0.00000000e+00 1.72592261e-11
 0.00000000e+00 0.00000000e+00 0.00000000e+00 0.00000000e+00
 0.00000000e+00 0.00000000e+00 0.00000000e+00 0.00000000e+00
 0.00000000e+00 0.00000000e+00 0.00000000e+00 0.00000000e+00
 0.00000000e+00 0.00000000e+00 0.00000000e+00 0.00000000e+00
 0.00000000e+00 0.00000000e+00 2.73005985e-08 1.72592261e-11
 0.00000000e+00 0.00000000e+00 0.00000000e+00 9.98318471e-03]","[[9.98265675e-06 1.67698403e-14 2.73005985e-11]
 [1.67698403e-14 9.98263022e-06 1.72592261e-14]
 [2.73005985e-11 1.72592261e-14 9.98318471e-06]]",[ 1.97696253e-12  9.47030925e-16 -1.13092986e-03],0.0,0.0
1787053635.3113165,-2.0078178526574823e-12,-9.665404450997239e-16,0.0011309185741041896,"[9.98265675e-03 1.67698403e-11 0.00000000e+00 0.00000000e+00
 0.00000000e+00 2.73005985e-08 1.67698403e-11 9.98263022e-03
 0.00000000e+00 0.00000000e+00 0.00000000e+00 1.72592261e-11
 0.00000000e+00 0.00000000e+00 0.00000000e+00 0.00000000e+00
 0.00000000e+00 0.00000000e+00 0.00000000e+00 0.00000000e+00
 0.00000000e+00 0.00000000e+00 0.00000000e+00 0.00000000e+00
 0.00000000e+00 0.00000000e+00 0.00000000e+00 0.00000000e+00
 0.00000000e+00 0.00000000e+00 2.73005985e-08 1.72592261e-11
 0.00000000e+00 0.00000000e+00 0.00000000e+00 9.98318471e-03]","[[9.98265675e-06 1.67698403e-14 2.73005985e-11]
 [1.67698403e-14 9.98263022e-06 1.72592261e-14]
 [2.73005985e-11 1.72592261e-14 9.98318471e-06]]",[ 1.97696253e-12  9.47030925e-16 -1.13092986e-03],0.0,0.0
1787053635.3548365,-2.0388763532829306e-12,-9.862679296847234e-16,0.001131819746997831,"[9.98255725e-03 1.69437711e-11 0.00000000e+00 0.00000000e+00
 0.00000000e+00 2.74586422e-08 1.69437711e-11 9.98253057e-03
 0.00000000e+00 0.00000000e+00 0.00000000e+00 1.74382327e-11
 0.00000000e+00 0.00000000e+00 0.00000000e+00 0.00000000e+00
 0.00000000e+00 0.00000000e+00 0.00000000e+00 0.00000000e+00
 0.00000000e+00 0.00000000e+00 0.00000000e+00 0.00000000e+00
 0.00000000e+00 0.00000000e+00 0.00000000e+00 0.00000000e+00
 0.00000000e+00 0.00000000e+00 2.74586422e-08 1.74382327e-11
 0.00000000e+00 0.00000000e+00 0.00000000e+00 9.98308827e-03]","[[9.98265675e-06 1.67698403e-14 2.73005985e-11]
 [1.67698403e-14 9.98263022e-06 1.72592261e-14]
 [2.73005985e-11 1.72592261e-14 9.98318471e-06]]",[ 1.97696253e-12  9.47030925e-16 -1.13092986e-03],0.0,0.0
1787053635.4046922,-2.3627931335507244e-12,-1.2907520553608385e-15,0.001126488011625959,"[9.98220118e-03 6.50697953e-11 0.00000000e+00 0.00000000e+00
 0.00000000e+00 7.12170352e-08 6.50697953e-11 9.98213198e-03
 0.00000000e+00 0.00000000e+00 0.00000000e+00 6.69687069e-11
 0.00000000e+00 0.00000000e+00 0.00000000e+00 0.00000000e+00
 0.00000000e+00 0.00000000e+00 0.00000000e+00 0.00000000e+00
 0.00000000e+00 0.00000000e+00 0.00000000e+00 0.00000000e+00
 0.00000000e+00 0.00000000e+00 0.00000000e+00 0.00000000e+00
 0.00000000e+00 0.00000000e+00 7.12170352e-08 6.69687069e-11
 0.00000000e+00 0.00000000e+00 0.00000000e+00 9.98357843e-03]","[[9.98220118e-06 6.50697953e-14 7.12170352e-11]
 [6.50697953e-14 9.98213198e-06 6.69687069e-14]
 [7.12170352e-11 6.69687069e-14 9.98357843e-06]]",[ 2.28258998e-12  1.21532399e-15 -1.12649926e-03],0.0,0.0
1787053635.4548285,-2.5241791151810028e-12,-1.4426281194674133e-15,0.0011307800143094404,"[9.98200220e-03 6.54082535e-11 0.00000000e+00 0.00000000e+00
 0.00000000e+00 7.15254913e-08 6.54082535e-11 9.98193270e-03
 0.00000000e+00 0.00000000e+00 0.00000000e+00 6.73170420e-11
 0.00000000e+00 0.00000000e+00 0.00000000e+00 0.00000000e+00
 0.00000000e+00 0.00000000e+00 0.00000000e+00 0.00000000e+00
 0.00000000e+00 0.00000000e+00 0.00000000e+00 0.00000000e+00
 0.00000000e+00 0.00000000e+00 0.00000000e+00 0.00000000e+00
 0.00000000e+00 0.00000000e+00 7.15254913e-08 6.73170420e-11
 0.00000000e+00 0.00000000e+00 0.00000000e+00 9.98338542e-03]","[[9.98200220e-06 6.54082535e-14 7.15254913e-11]
 [6.54082535e-14 9.98193270e-06 6.73170420e-14]
 [7.15254913e-11 6.73170420e-14 9.98338542e-06]]",[ 2.44332310e-12  1.36652023e-15 -1.13079130e-03],0.0,0.0
1787053635.5047204,-2.751972047714933e-12,-1.6572359650137968e-15,0.0009890192736401462,"[9.98170376e-03 6.59293971e-11 0.00000000e+00 0.00000000e+00
 0.00000000e+00 7.20068757e-08 6.59293971e-11 9.98163379e-03
 0.00000000e+00 0.00000000e+00 0.00000000e+00 6.78533937e-11
 0.00000000e+00 0.00000000e+00 0.00000000e+00 0.00000000e+00
 0.00000000e+00 0.00000000e+00 0.00000000e+00 0.00000000e+00
 0.00000000e+00 0.00000000e+00 0.00000000e+00 0.00000000e+00
 0.00000000e+00 0.00000000e+00 0.00000000e+00 0.00000000e+00
 0.00000000e+00 0.00000000e+00 7.20068757e-08 6.78533937e-11
 0.00000000e+00 0.00000000e+00 0.00000000e+00 9.98309629e-03]","[[9.98170376e-06 6.59293971e-14 7.20068757e-11]
 [6.59293971e-14 9.98163379e-06 6.78533937e-14]
 [7.20068757e-11 6.78533937e-14 9.98309629e-06]]",[ 2.68078191e-12  1.59014285e-15 -9.89029147e-04],0.0,0.0
1787053635.5547318,-2.8953389427792277e-12,-1.792373514305207e-15,0.000993894486204461,"[9.98150478e-03 6.62098566e-11 0.00000000e+00 0.00000000e+00
 0.00000000e+00 7.22982500e-08 6.62098566e-11 9.98143453e-03
 0.00000000e+00 0.00000000e+00 0.00000000e+00 6.81420376e-11
 0.00000000e+00 0.00000000e+00 0.00000000e+00 0.00000000e+00
 0.00000000e+00 0.00000000e+00 0.00000000e+00 0.00000000e+00
 0.00000000e+00 0.00000000e+00 0.00000000e+00 0.00000000e+00
 0.00000000e+00 0.00000000e+00 0.00000000e+00 0.00000000e+00
 0.00000000e+00 0.00000000e+00 7.22982500e-08 6.81420376e-11
 0.00000000e+00 0.00000000e+00 0.00000000e+00 9.98290294e-03]","[[9.98150478e-06 6.62098566e-14 7.22982500e-11]
 [6.62098566e-14 9.98143453e-06 6.81420376e-14]
 [7.22982500e-11 6.81420376e-14 9.98290294e-06]]",[ 2.82350958e-12  1.72466406e-15 -9.93904408e-04],0.0,0.0
1787053635.6047752,-3.0407482815674596e-12,-1.9294670058866015e-15,0.001005860818835469,"[9.98130582e-03 6.65044219e-11 0.00000000e+00 0.00000000e+00
 0.00000000e+00 7.26021974e-08 6.65044219e-11 9.98123528e-03
 0.00000000e+00 0.00000000e+00 0.00000000e+00 6.84451989e-11
 0.00000000e+00 0.00000000e+00 0.00000000e+00 0.00000000e+00
 0.00000000e+00 0.00000000e+00 0.00000000e+00 0.00000000e+00
 0.00000000e+00 0.00000000e+00 0.00000000e+00 0.00000000e+00
 0.00000000e+00 0.00000000e+00 0.00000000e+00 0.00000000e+00
 0.00000000e+00 0.00000000e+00 7.26021974e-08 6.84451989e-11
 0.00000000e+00 0.00000000e+00 0.00000000e+00 9.98270986e-03]","[[9.98130582e-06 6.65044219e-14 7.26021974e-11]
 [6.65044219e-14 9.98123528e-06 6.84451989e-14]
 [7.26021974e-11 6.84451989e-14 9.98270986e-06]]",[ 2.96774947e-12  1.86063855e-15 -1.00587086e-03],0.0,0.0
1787053635.6560824,-3.272929131513138e-12,-2.1484651315055277e-15,0.0011143384633043318,"[9.98100743e-03 6.69883634e-11 0.00000000e+00 0.00000000e+00
 0.00000000e+00 7.30888221e-08 6.69883634e-11 9.98093641e-03
 0.00000000e+00 0.00000000e+00 0.00000000e+00 6.89432628e-11
 0.00000000e+00 0.00000000e+00 0.00000000e+00 0.00000000e+00
 0.00000000e+00 0.00000000e+00 0.00000000e+00 0.00000000e+00
 0.00000000e+00 0.00000000e+00 0.00000000e+00 0.00000000e+00
 0.00000000e+00 0.00000000e+00 0.00000000e+00 0.00000000e+00
 0.00000000e+00 0.00000000e+00 7.30888221e-08 6.89432628e-11
 0.00000000e+00 0.00000000e+00 0.00000000e+00 9.98242088e-03]","[[9.98100743e-06 6.69883634e-14 7.30888221e-11]
 [6.69883634e-14 9.98093641e-06 6.89432628e-14]
 [7.30888221e-11 6.89432628e-14 9.98242088e-06]]",[ 3.19151449e-12  2.07165891e-15 -1.11434959e-03],0.0,0.0
1787053635.704783,-3.510549974724629e-12,-2.372838449817233e-15,0.0010631734779060762,"[9.98070910e-03 6.75634874e-11 0.00000000e+00 0.00000000e+00
 0.00000000e+00 7.36266606e-08 6.75634874e-11 9.98063756e-03
 0.00000000e+00 0.00000000e+00 0.00000000e+00 6.95351701e-11
 0.00000000e+00 0.00000000e+00 0.00000000e+00 0.00000000e+00
 0.00000000e+00 0.00000000e+00 0.00000000e+00 0.00000000e+00
 0.00000000e+00 0.00000000e+00 0.00000000e+00 0.00000000e+00
 0.00000000e+00 0.00000000e+00 0.00000000e+00 0.00000000e+00
 0.00000000e+00 0.00000000e+00 7.36266606e-08 6.95351701e-11
 0.00000000e+00 0.00000000e+00 0.00000000e+00 9.98213295e-03]","[[9.98070910e-06 6.75634874e-14 7.36266606e-11]
 [6.75634874e-14 9.98063756e-06 6.95351701e-14]
 [7.36266606e-11 6.95351701e-14 9.98213295e-06]]",[ 3.43230554e-12  2.29893271e-15 -1.06318409e-03],0.0,0.0
1787053635.7562985,-3.668226657659129e-12,-2.5218344422047114e-15,0.0010693962037233717,"[9.98051021e-03 6.79141975e-11 0.00000000e+00 0.00000000e+00
 0.00000000e+00 7.39653011e-08 6.79141975e-11 9.98043834e-03
 0.00000000e+00 0.00000000e+00 0.00000000e+00 6.98961147e-11
 0.00000000e+00 0.00000000e+00 0.00000000e+00 0.00000000e+00
 0.00000000e+00 0.00000000e+00 0.00000000e+00 0.00000000e+00
 0.00000000e+00 0.00000000e+00 0.00000000e+00 0.00000000e+00
 0.00000000e+00 0.00000000e+00 0.00000000e+00 0.00000000e+00
 0.00000000e+00 0.00000000e+00 7.39653011e-08 6.98961147e-11
 0.00000000e+00 0.00000000e+00 0.00000000e+00 9.98194061e-03]","[[9.98051021e-06 6.79141975e-14 7.39653011e-11]
 [6.79141975e-14 9.98043834e-06 6.98961147e-14]
 [7.39653011e-11 6.98961147e-14 9.98194061e-06]]",[ 3.58916348e-12  2.44711148e-15 -1.06940688e-03],0.0,0.0
1787053635.8054173,-3.895662906473687e-12,-2.7368783067939047e-15,0.0009771359353272226,"[9.98021178e-03 6.83227090e-11 0.00000000e+00 0.00000000e+00
 0.00000000e+00 7.43630212e-08 6.83227090e-11 9.98013952e-03
 0.00000000e+00 0.00000000e+00 0.00000000e+00 7.03165474e-11
 0.00000000e+00 0.00000000e+00 0.00000000e+00 0.00000000e+00
 0.00000000e+00 0.00000000e+00 0.00000000e+00 0.00000000e+00
 0.00000000e+00 0.00000000e+00 0.00000000e+00 0.00000000e+00
 0.00000000e+00 0.00000000e+00 0.00000000e+00 0.00000000e+00
 0.00000000e+00 0.00000000e+00 7.43630212e-08 7.03165474e-11
 0.00000000e+00 0.00000000e+00 0.00000000e+00 9.98164987e-03]","[[9.98021178e-06 6.83227090e-14 7.43630212e-11]
 [6.83227090e-14 9.98013952e-06 7.03165474e-14]
 [7.43630212e-11 7.03165474e-14 9.98164987e-06]]",[ 3.82303756e-12  2.66819542e-15 -9.77145689e-04],0.0,0.0
1787053635.8544326,-4.041793036301836e-12,-2.875098466965352e-15,0.000978714521512991,"[9.98001308e-03 6.88197089e-11 0.00000000e+00 0.00000000e+00
 0.00000000e+00 7.48861674e-08 6.88197089e-11 9.97994032e-03
 0.00000000e+00 0.00000000e+00 0.00000000e+00 7.08280508e-11
 0.00000000e+00 0.00000000e+00 0.00000000e+00 0.00000000e+00
 0.00000000e+00 0.00000000e+00 0.00000000e+00 0.00000000e+00
 0.00000000e+00 0.00000000e+00 0.00000000e+00 0.00000000e+00
 0.00000000e+00 0.00000000e+00 0.00000000e+00 0.00000000e+00
 0.00000000e+00 0.00000000e+00 7.48861674e-08 7.08280508e-11
 0.00000000e+00 0.00000000e+00 0.00000000e+00 9.98146129e-03]","[[9.98001308e-06 6.88197089e-14 7.48861674e-11]
 [6.88197089e-14 9.97994032e-06 7.08280508e-14]
 [7.48861674e-11 7.08280508e-14 9.98146129e-06]]",[ 3.96853973e-12  2.80580534e-15 -9.78724291e-04],0.0,0.0
1787053635.9057047,-4.263299052542093e-12,-3.0846547915151486e-15,0.0009857520076801407,"[9.97971467e-03 6.91873195e-11 0.00000000e+00 0.00000000e+00
 0.00000000e+00 7.52719089e-08 6.91873195e-11 9.97964153e-03
 0.00000000e+00 0.00000000e+00 0.00000000e+00 7.12063890e-11
 0.00000000e+00 0.00000000e+00 0.00000000e+00 0.00000000e+00
 0.00000000e+00 0.00000000e+00 0.00000000e+00 0.00000000e+00
 0.00000000e+00 0.00000000e+00 0.00000000e+00 0.00000000e+00
 0.00000000e+00 0.00000000e+00 0.00000000e+00 0.00000000e+00
 0.00000000e+00 0.00000000e+00 7.52719089e-08 7.12063890e-11
 0.00000000e+00 0.00000000e+00 0.00000000e+00 9.98117034e-03]","[[9.97971467e-06 6.91873195e-14 7.52719089e-11]
 [6.91873195e-14 9.97964153e-06 7.12063890e-14]
 [7.52719089e-11 7.12063890e-14 9.98117034e-06]]",[ 4.18914068e-12  3.01449233e-15 -9.85761847e-04],0.0,0.0
1787053635.954819,-4.418660526997981e-12,-3.2316694617586273e-15,0.0010441257813376128,"[9.97951581e-03 6.95095369e-11 0.00000000e+00 0.00000000e+00
 0.00000000e+00 7.56031454e-08 6.95095369e-11 9.97944235e-03
 0.00000000e+00 0.00000000e+00 0.00000000e+00 7.15380093e-11
 0.00000000e+00 0.00000000e+00 0.00000000e+00 0.00000000e+00
 0.00000000e+00 0.00000000e+00 0.00000000e+00 0.00000000e+00
 0.00000000e+00 0.00000000e+00 0.00000000e+00 0.00000000e+00
 0.00000000e+00 0.00000000e+00 0.00000000e+00 0.00000000e+00
 0.00000000e+00 0.00000000e+00 7.56031454e-08 7.15380093e-11
 0.00000000e+00 0.00000000e+00 0.00000000e+00 9.98097788e-03]","[[9.97951581e-06 6.95095369e-14 7.56031454e-11]
 [6.95095369e-14 9.97944235e-06 7.15380093e-14]
 [7.56031454e-11 7.15380093e-14 9.98097788e-06]]",[ 4.33976385e-12  3.15700554e-15 -1.04413620e-03],0.0,0.0
1787053636.0047984,-4.661821961494315e-12,-3.4619030779831784e-15,0.0010778535750146645,"[9.97921752e-03 7.00055052e-11 0.00000000e+00 0.00000000e+00
 0.00000000e+00 7.60870814e-08 7.00055052e-11 9.97914359e-03
 0.00000000e+00 0.00000000e+00 0.00000000e+00 7.20484510e-11
 0.00000000e+00 0.00000000e+00 0.00000000e+00 0.00000000e+00
 0.00000000e+00 0.00000000e+00 0.00000000e+00 0.00000000e+00
 0.00000000e+00 0.00000000e+00 0.00000000e+00 0.00000000e+00
 0.00000000e+00 0.00000000e+00 0.00000000e+00 0.00000000e+00
 0.00000000e+00 0.00000000e+00 7.60870814e-08 7.20484510e-11
 0.00000000e+00 0.00000000e+00 0.00000000e+00 9.98068895e-03]","[[9.97921752e-06 7.00055052e-14 7.60870814e-11]
 [7.00055052e-14 9.97914359e-06 7.20484510e-14]
 [7.60870814e-11 7.20484510e-14 9.98068895e-06]]",[ 4.57985611e-12  3.38427839e-15 -1.07786433e-03],0.0,0.0
1787053636.0550897,-4.838377278803848e-12,-3.629202117019238e-15,0.0011870749985911644,"[9.97901873e-03 7.04196165e-11 0.00000000e+00 0.00000000e+00
 0.00000000e+00 7.64714818e-08 7.04196165e-11 9.97894443e-03
 0.00000000e+00 0.00000000e+00 0.00000000e+00 7.24746469e-11
 0.00000000e+00 0.00000000e+00 0.00000000e+00 0.00000000e+00
 0.00000000e+00 0.00000000e+00 0.00000000e+00 0.00000000e+00
 0.00000000e+00 0.00000000e+00 0.00000000e+00 0.00000000e+00
 0.00000000e+00 0.00000000e+00 0.00000000e+00 0.00000000e+00
 0.00000000e+00 0.00000000e+00 7.64714818e-08 7.24746469e-11
 0.00000000e+00 0.00000000e+00 0.00000000e+00 9.98049760e-03]","[[9.97901873e-06 7.04196165e-14 7.64714818e-11]
 [7.04196165e-14 9.97894443e-06 7.24746469e-14]
 [7.64714818e-11 7.24746469e-14 9.98049760e-06]]",[ 4.74764637e-12  3.54320377e-15 -1.18708685e-03],0.0,0.0
1787053636.1106656,-5.028014566261013e-12,-3.809057095403996e-15,0.001251869042388609,"[9.97881982e-03 7.07195339e-11 0.00000000e+00 0.00000000e+00
 0.00000000e+00 7.67256125e-08 7.07195339e-11 9.97874527e-03
 0.00000000e+00 0.00000000e+00 0.00000000e+00 7.27833166e-11
 0.00000000e+00 0.00000000e+00 0.00000000e+00 0.00000000e+00
 0.00000000e+00 0.00000000e+00 0.00000000e+00 0.00000000e+00
 0.00000000e+00 0.00000000e+00 0.00000000e+00 0.00000000e+00
 0.00000000e+00 0.00000000e+00 0.00000000e+00 0.00000000e+00
 0.00000000e+00 0.00000000e+00 7.67256125e-08 7.27833166e-11
 0.00000000e+00 0.00000000e+00 0.00000000e+00 9.98030360e-03]","[[9.97881982e-06 7.07195339e-14 7.67256125e-11]
 [7.07195339e-14 9.97874527e-06 7.27833166e-14]
 [7.67256125e-11 7.27833166e-14 9.98030360e-06]]",[ 4.93201240e-12  3.71797811e-15 -1.25188154e-03],0.0,0.0
1787053636.1548362,-5.326576469727808e-12,-4.092801281726791e-15,0.001292768866258065,"[9.97852165e-03 7.14152001e-11 0.00000000e+00 0.00000000e+00
 0.00000000e+00 7.72883776e-08 7.14152001e-11 9.97844656e-03
 0.00000000e+00 0.00000000e+00 0.00000000e+00 7.34992840e-11
 0.00000000e+00 0.00000000e+00 0.00000000e+00 0.00000000e+00
 0.00000000e+00 0.00000000e+00 0.00000000e+00 0.00000000e+00
 0.00000000e+00 0.00000000e+00 0.00000000e+00 0.00000000e+00
 0.00000000e+00 0.00000000e+00 0.00000000e+00 0.00000000e+00
 0.00000000e+00 0.00000000e+00 7.72883776e-08 7.34992840e-11
 0.00000000e+00 0.00000000e+00 0.00000000e+00 9.98001632e-03]","[[9.97852165e-06 7.14152001e-14 7.72883776e-11]
 [7.14152001e-14 9.97844656e-06 7.34992840e-14]
 [7.72883776e-11 7.34992840e-14 9.98001632e-06]]",[ 5.22671162e-12  3.99782264e-15 -1.29278177e-03],0.0,0.0
1787053636.2050238,-5.593685750503356e-12,-4.347095453506063e-15,0.0010688851219726738,"[9.97822336e-03 7.19059775e-11 0.00000000e+00 0.00000000e+00
 0.00000000e+00 7.77034981e-08 7.19059775e-11 9.97814786e-03
 0.00000000e+00 0.00000000e+00 0.00000000e+00 7.40043833e-11
 0.00000000e+00 0.00000000e+00 0.00000000e+00 0.00000000e+00
 0.00000000e+00 0.00000000e+00 0.00000000e+00 0.00000000e+00
 0.00000000e+00 0.00000000e+00 0.00000000e+00 0.00000000e+00
 0.00000000e+00 0.00000000e+00 0.00000000e+00 0.00000000e+00
 0.00000000e+00 0.00000000e+00 7.77034981e-08 7.40043833e-11
 0.00000000e+00 0.00000000e+00 0.00000000e+00 9.97972605e-03]","[[9.97822336e-06 7.19059775e-14 7.77034981e-11]
 [7.19059775e-14 9.97814786e-06 7.40043833e-14]
 [7.77034981e-11 7.40043833e-14 9.97972605e-06]]",[ 5.51068380e-12  4.26803507e-15 -1.06889579e-03],0.0,0.0
1787053636.2549107,-5.753773987100119e-12,-4.4996327308844894e-15,0.0010133532004723556,"[9.97802454e-03 7.22287550e-11 0.00000000e+00 0.00000000e+00
 0.00000000e+00 7.80182342e-08 7.22287550e-11 9.97794873e-03
 0.00000000e+00 0.00000000e+00 0.00000000e+00 7.43365801e-11
 0.00000000e+00 0.00000000e+00 0.00000000e+00 0.00000000e+00
 0.00000000e+00 0.00000000e+00 0.00000000e+00 0.00000000e+00
 0.00000000e+00 0.00000000e+00 0.00000000e+00 0.00000000e+00
 0.00000000e+00 0.00000000e+00 0.00000000e+00 0.00000000e+00
 0.00000000e+00 0.00000000e+00 7.80182342e-08 7.43365801e-11
 0.00000000e+00 0.00000000e+00 0.00000000e+00 9.97953332e-03]","[[9.97802454e-06 7.22287550e-14 7.80182342e-11]
 [7.22287550e-14 9.97794873e-06 7.43365801e-14]
 [7.80182342e-11 7.43365801e-14 9.97953332e-06]]",[ 5.67476979e-12  4.42434691e-15 -1.01336331e-03],0.0,0.0
1787053636.3045895,-5.955631507217256e-12,-4.692001872338557e-15,0.0007845206697902898,"[9.97772632e-03 7.26519365e-11 0.00000000e+00 0.00000000e+00
 0.00000000e+00 7.84822490e-08 7.26519365e-11 9.97765006e-03
 0.00000000e+00 0.00000000e+00 0.00000000e+00 7.47721109e-11
 0.00000000e+00 0.00000000e+00 0.00000000e+00 0.00000000e+00
 0.00000000e+00 0.00000000e+00 0.00000000e+00 0.00000000e+00
 0.00000000e+00 0.00000000e+00 0.00000000e+00 0.00000000e+00
 0.00000000e+00 0.00000000e+00 0.00000000e+00 0.00000000e+00
 0.00000000e+00 0.00000000e+00 7.84822490e-08 7.47721109e-11
 0.00000000e+00 0.00000000e+00 0.00000000e+00 9.97924407e-03]","[[9.97772632e-06 7.26519365e-14 7.84822490e-11]
 [7.26519365e-14 9.97765006e-06 7.47721109e-14]
 [7.84822490e-11 7.47721109e-14 9.97924407e-06]]",[ 5.89411876e-12  4.63338725e-15 -7.84528499e-04],0.0,0.0
1787053636.355153,-6.067358766951364e-12,-4.7984022905267575e-15,0.0006835370443716292,"[9.97752755e-03 7.29031860e-11 0.00000000e+00 0.00000000e+00
 0.00000000e+00 7.88242337e-08 7.29031860e-11 9.97745096e-03
 0.00000000e+00 0.00000000e+00 0.00000000e+00 7.50306922e-11
 0.00000000e+00 0.00000000e+00 0.00000000e+00 0.00000000e+00
 0.00000000e+00 0.00000000e+00 0.00000000e+00 0.00000000e+00
 0.00000000e+00 0.00000000e+00 0.00000000e+00 0.00000000e+00
 0.00000000e+00 0.00000000e+00 0.00000000e+00 0.00000000e+00
 0.00000000e+00 0.00000000e+00 7.88242337e-08 7.50306922e-11
 0.00000000e+00 0.00000000e+00 0.00000000e+00 9.97905192e-03]","[[9.97752755e-06 7.29031860e-14 7.88242337e-11]
 [7.29031860e-14 9.97745096e-06 7.50306922e-14]
 [7.88242337e-11 7.50306922e-14 9.97905192e-06]]",[ 6.01353895e-12  4.74716289e-15 -6.83543865e-04],0.0,0.0
1787053636.4047792,-6.23077980216957e-12,-4.953825773016961e-15,0.000734607147146793,"[9.97722932e-03 7.31764862e-11 0.00000000e+00 0.00000000e+00
 0.00000000e+00 7.92458196e-08 7.31764862e-11 9.97715232e-03
 0.00000000e+00 0.00000000e+00 0.00000000e+00 7.53119676e-11
 0.00000000e+00 0.00000000e+00 0.00000000e+00 0.00000000e+00
 0.00000000e+00 0.00000000e+00 0.00000000e+00 0.00000000e+00
 0.00000000e+00 0.00000000e+00 0.00000000e+00 0.00000000e+00
 0.00000000e+00 0.00000000e+00 0.00000000e+00 0.00000000e+00
 0.00000000e+00 0.00000000e+00 7.92458196e-08 7.53119676e-11
 0.00000000e+00 0.00000000e+00 0.00000000e+00 9.97876184e-03]","[[9.97722932e-06 7.31764862e-14 7.92458196e-11]
 [7.31764862e-14 9.97715232e-06 7.53119676e-14]
 [7.92458196e-11 7.53119676e-14 9.97876184e-06]]",[ 6.17262626e-12  4.89854939e-15 -7.34614478e-04],0.0,0.0
1787053636.4551656,-6.352787709388574e-12,-5.069715684192945e-15,0.0007797826155515608,"[9.97703057e-03 7.34214169e-11 0.00000000e+00 0.00000000e+00
 0.00000000e+00 7.95844959e-08 7.34214169e-11 9.97695324e-03
 0.00000000e+00 0.00000000e+00 0.00000000e+00 7.55640457e-11
 0.00000000e+00 0.00000000e+00 0.00000000e+00 0.00000000e+00
 0.00000000e+00 0.00000000e+00 0.00000000e+00 0.00000000e+00
 0.00000000e+00 0.00000000e+00 0.00000000e+00 0.00000000e+00
 0.00000000e+00 0.00000000e+00 0.00000000e+00 0.00000000e+00
 0.00000000e+00 0.00000000e+00 7.95844959e-08 7.55640457e-11
 0.00000000e+00 0.00000000e+00 0.00000000e+00 9.97856963e-03]","[[9.97703057e-06 7.34214169e-14 7.95844959e-11]
 [7.34214169e-14 9.97695324e-06 7.55640457e-14]
 [7.95844959e-11 7.55640457e-14 9.97856963e-06]]",[ 6.29079125e-12  5.01084156e-15 -7.79790397e-04],0.0,0.0
1787053636.5048394,-6.566583843977213e-12,-5.272636959945334e-15,0.000949063147785978,"[9.97673237e-03 7.37682084e-11 0.00000000e+00 0.00000000e+00
 0.00000000e+00 8.00127507e-08 7.37682084e-11 9.97665463e-03
 0.00000000e+00 0.00000000e+00 0.00000000e+00 7.59209570e-11
 0.00000000e+00 0.00000000e+00 0.00000000e+00 0.00000000e+00
 0.00000000e+00 0.00000000e+00 0.00000000e+00 0.00000000e+00
 0.00000000e+00 0.00000000e+00 0.00000000e+00 0.00000000e+00
 0.00000000e+00 0.00000000e+00 0.00000000e+00 0.00000000e+00
 0.00000000e+00 0.00000000e+00 8.00127507e-08 7.59209570e-11
 0.00000000e+00 0.00000000e+00 0.00000000e+00 9.97827972e-03]","[[9.97673237e-06 7.37682084e-14 8.00127507e-11]
 [7.37682084e-14 9.97665463e-06 7.59209570e-14]
 [8.00127507e-11 7.59209570e-14 9.97827972e-06]]",[ 6.49071069e-12  5.20063434e-15 -9.49072618e-04],0.0,0.0
1787053636.554523,-6.715970979458154e-12,-5.414402098806739e-15,0.0009258808889045512,"[9.97653360e-03 7.40466064e-11 0.00000000e+00 0.00000000e+00
 0.00000000e+00 8.03165297e-08 7.40466064e-11 9.97645556e-03
 0.00000000e+00 0.00000000e+00 0.00000000e+00 7.62074792e-11
 0.00000000e+00 0.00000000e+00 0.00000000e+00 0.00000000e+00
 0.00000000e+00 0.00000000e+00 0.00000000e+00 0.00000000e+00
 0.00000000e+00 0.00000000e+00 0.00000000e+00 0.00000000e+00
 0.00000000e+00 0.00000000e+00 0.00000000e+00 0.00000000e+00
 0.00000000e+00 0.00000000e+00 8.03165297e-08 7.62074792e-11
 0.00000000e+00 0.00000000e+00 0.00000000e+00 9.97808683e-03]","[[9.97653360e-06 7.40466064e-14 8.03165297e-11]
 [7.40466064e-14 9.97645556e-06 7.62074792e-14]
 [8.03165297e-11 7.62074792e-14 9.97808683e-06]]",[ 6.64167296e-12  5.34389566e-15 -9.25890128e-04],0.0,0.0
1787053636.6051376,-6.94733155737304e-12,-5.633943544397794e-15,0.0009732434188154393,"[9.97623548e-03 7.44785627e-11 0.00000000e+00 0.00000000e+00
 0.00000000e+00 8.07885918e-08 7.44785627e-11 9.97615698e-03
 0.00000000e+00 0.00000000e+00 0.00000000e+00 7.66520407e-11
 0.00000000e+00 0.00000000e+00 0.00000000e+00 0.00000000e+00
 0.00000000e+00 0.00000000e+00 0.00000000e+00 0.00000000e+00
 0.00000000e+00 0.00000000e+00 0.00000000e+00 0.00000000e+00
 0.00000000e+00 0.00000000e+00 0.00000000e+00 0.00000000e+00
 0.00000000e+00 0.00000000e+00 8.07885918e-08 7.66520407e-11
 0.00000000e+00 0.00000000e+00 0.00000000e+00 9.97779784e-03]","[[9.97623548e-06 7.44785627e-14 8.07885918e-11]
 [7.44785627e-14 9.97615698e-06 7.66520407e-14]
 [8.07885918e-11 7.66520407e-14 9.97779784e-06]]",[ 6.86877233e-12  5.55939717e-15 -9.73253130e-04],0.0,0.0
1787053636.6558704,-7.1000587126171725e-12,-5.77887734317981e-15,0.0009321015151995127,"[9.97603677e-03 7.47934519e-11 0.00000000e+00 0.00000000e+00
 0.00000000e+00 8.11253549e-08 7.47934519e-11 9.97595794e-03
 0.00000000e+00 0.00000000e+00 0.00000000e+00 7.69761189e-11
 0.00000000e+00 0.00000000e+00 0.00000000e+00 0.00000000e+00
 0.00000000e+00 0.00000000e+00 0.00000000e+00 0.00000000e+00
 0.00000000e+00 0.00000000e+00 0.00000000e+00 0.00000000e+00
 0.00000000e+00 0.00000000e+00 0.00000000e+00 0.00000000e+00
 0.00000000e+00 0.00000000e+00 8.11253549e-08 7.69761189e-11
 0.00000000e+00 0.00000000e+00 0.00000000e+00 9.97760563e-03]","[[9.97603677e-06 7.47934519e-14 8.11253549e-11]
 [7.47934519e-14 9.97595794e-06 7.69761189e-14]
 [8.11253549e-11 7.69761189e-14 9.97760563e-06]]",[ 7.02451097e-12  5.70718401e-15 -9.32110815e-04],0.0,0.0
1787053636.7047806,-7.318684309304557e-12,-5.986326799083701e-15,0.0008792447144236881,"[9.97573863e-03 7.51727280e-11 0.00000000e+00 0.00000000e+00
 0.00000000e+00 8.15523401e-08 7.51727280e-11 9.97565939e-03
 0.00000000e+00 0.00000000e+00 0.00000000e+00 7.73664630e-11
 0.00000000e+00 0.00000000e+00 0.00000000e+00 0.00000000e+00
 0.00000000e+00 0.00000000e+00 0.00000000e+00 0.00000000e+00
 0.00000000e+00 0.00000000e+00 0.00000000e+00 0.00000000e+00
 0.00000000e+00 0.00000000e+00 0.00000000e+00 0.00000000e+00
 0.00000000e+00 0.00000000e+00 8.15523401e-08 7.73664630e-11
 0.00000000e+00 0.00000000e+00 0.00000000e+00 9.97731576e-03]","[[9.97573863e-06 7.51727280e-14 8.15523401e-11]
 [7.51727280e-14 9.97565939e-06 7.73664630e-14]
 [8.15523401e-11 7.73664630e-14 9.97731576e-06]]",[ 7.24705142e-12  5.91836111e-15 -8.79253487e-04],0.0,0.0
1787053636.7549047,-7.470866069611827e-12,-6.1306913774956774e-15,0.0009487772920264704,"[9.97553991e-03 7.54419731e-11 0.00000000e+00 0.00000000e+00
 0.00000000e+00 8.18615352e-08 7.54419731e-11 9.97546037e-03
 0.00000000e+00 0.00000000e+00 0.00000000e+00 7.76435650e-11
 0.00000000e+00 0.00000000e+00 0.00000000e+00 0.00000000e+00
 0.00000000e+00 0.00000000e+00 0.00000000e+00 0.00000000e+00
 0.00000000e+00 0.00000000e+00 0.00000000e+00 0.00000000e+00
 0.00000000e+00 0.00000000e+00 0.00000000e+00 0.00000000e+00
 0.00000000e+00 0.00000000e+00 8.18615352e-08 7.76435650e-11
 0.00000000e+00 0.00000000e+00 0.00000000e+00 9.97712301e-03]","[[9.97553991e-06 7.54419731e-14 8.18615352e-11]
 [7.54419731e-14 9.97546037e-06 7.76435650e-14]
 [8.18615352e-11 7.76435650e-14 9.97712301e-06]]",[ 7.39327068e-12  6.05708461e-15 -9.48786758e-04],0.0,0.0
1787053636.804547,-7.703554315372024e-12,-6.351417899550931e-15,0.0009427415605327561,"[9.97524184e-03 7.58671252e-11 0.00000000e+00 0.00000000e+00
 0.00000000e+00 8.23236409e-08 7.58671252e-11 9.97516185e-03
 0.00000000e+00 0.00000000e+00 0.00000000e+00 7.80811239e-11
 0.00000000e+00 0.00000000e+00 0.00000000e+00 0.00000000e+00
 0.00000000e+00 0.00000000e+00 0.00000000e+00 0.00000000e+00
 0.00000000e+00 0.00000000e+00 0.00000000e+00 0.00000000e+00
 0.00000000e+00 0.00000000e+00 0.00000000e+00 0.00000000e+00
 0.00000000e+00 0.00000000e+00 8.23236409e-08 7.80811239e-11
 0.00000000e+00 0.00000000e+00 0.00000000e+00 9.97683388e-03]","[[9.97524184e-06 7.58671252e-14 8.23236409e-11]
 [7.58671252e-14 9.97516185e-06 7.80811239e-14]
 [8.23236409e-11 7.80811239e-14 9.97683388e-06]]",[ 7.62601969e-12  6.27786947e-15 -9.42750966e-04],0.0,0.0
1787053636.8548315,-7.872566518609077e-12,-6.511744584973446e-15,0.0010497373541968893,"[9.97504313e-03 7.61587711e-11 0.00000000e+00 0.00000000e+00
 0.00000000e+00 8.26336811e-08 7.61587711e-11 9.97496284e-03
 0.00000000e+00 0.00000000e+00 0.00000000e+00 7.83812805e-11
 0.00000000e+00 0.00000000e+00 0.00000000e+00 0.00000000e+00
 0.00000000e+00 0.00000000e+00 0.00000000e+00 0.00000000e+00
 0.00000000e+00 0.00000000e+00 0.00000000e+00 0.00000000e+00
 0.00000000e+00 0.00000000e+00 0.00000000e+00 0.00000000e+00
 0.00000000e+00 0.00000000e+00 8.26336811e-08 7.83812805e-11
 0.00000000e+00 0.00000000e+00 0.00000000e+00 9.97664117e-03]","[[9.97504313e-06 7.61587711e-14 8.26336811e-11]
 [7.61587711e-14 9.97496284e-06 7.83812805e-14]
 [8.26336811e-11 7.83812805e-14 9.97664117e-06]]",[ 7.78589966e-12  6.42952814e-15 -1.04974783e-03],0.0,0.0
1787053636.9049044,-8.117574654336175e-12,-6.744278875115139e-15,0.0009602969531283811,"[9.97474523e-03 7.67598547e-11 0.00000000e+00 0.00000000e+00
 0.00000000e+00 8.32361301e-08 7.67598547e-11 9.97466435e-03
 0.00000000e+00 0.00000000e+00 0.00000000e+00 7.89999049e-11
 0.00000000e+00 0.00000000e+00 0.00000000e+00 0.00000000e+00
 0.00000000e+00 0.00000000e+00 0.00000000e+00 0.00000000e+00
 0.00000000e+00 0.00000000e+00 0.00000000e+00 0.00000000e+00
 0.00000000e+00 0.00000000e+00 0.00000000e+00 0.00000000e+00
 0.00000000e+00 0.00000000e+00 8.32361301e-08 7.89999049e-11
 0.00000000e+00 0.00000000e+00 0.00000000e+00 9.97635492e-03]","[[9.97474523e-06 7.67598547e-14 8.32361301e-11]
 [7.67598547e-14 9.97466435e-06 7.89999049e-14]
 [8.32361301e-11 7.89999049e-14 9.97635492e-06]]",[ 8.03772263e-12  6.66848127e-15 -9.60306533e-04],0.0,0.0
1787053636.955162,-8.276732597458682e-12,-6.895359916969917e-15,0.0009525735603919118,"[9.97454653e-03 7.70331587e-11 0.00000000e+00 0.00000000e+00
 0.00000000e+00 8.35296073e-08 7.70331587e-11 9.97446537e-03
 0.00000000e+00 0.00000000e+00 0.00000000e+00 7.92811843e-11
 0.00000000e+00 0.00000000e+00 0.00000000e+00 0.00000000e+00
 0.00000000e+00 0.00000000e+00 0.00000000e+00 0.00000000e+00
 0.00000000e+00 0.00000000e+00 0.00000000e+00 0.00000000e+00
 0.00000000e+00 0.00000000e+00 0.00000000e+00 0.00000000e+00
 0.00000000e+00 0.00000000e+00 8.35296073e-08 7.92811843e-11
 0.00000000e+00 0.00000000e+00 0.00000000e+00 9.97616189e-03]","[[9.97454653e-06 7.70331587e-14 8.35296073e-11]
 [7.70331587e-14 9.97446537e-06 7.92811843e-14]
 [8.35296073e-11 7.92811843e-14 9.97616189e-06]]",[ 8.19724547e-12  6.81990603e-15 -9.52583064e-04],0.0,0.0
1787053637.0056176,-8.485479057937419e-12,-7.093506527766221e-15,0.0007092766694234421,"[9.97424852e-03 7.74401505e-11 0.00000000e+00 0.00000000e+00
 0.00000000e+00 8.39894620e-08 7.74401505e-11 9.97416691e-03
 0.00000000e+00 0.00000000e+00 0.00000000e+00 7.97000528e-11
 0.00000000e+00 0.00000000e+00 0.00000000e+00 0.00000000e+00
 0.00000000e+00 0.00000000e+00 0.00000000e+00 0.00000000e+00
 0.00000000e+00 0.00000000e+00 0.00000000e+00 0.00000000e+00
 0.00000000e+00 0.00000000e+00 0.00000000e+00 0.00000000e+00
 0.00000000e+00 0.00000000e+00 8.39894620e-08 7.97000528e-11
 0.00000000e+00 0.00000000e+00 0.00000000e+00 9.97587277e-03]","[[9.97424852e-06 7.74401505e-14 8.39894620e-11]
 [7.74401505e-14 9.97416691e-06 7.97000528e-14]
 [8.39894620e-11 7.97000528e-14 9.97587277e-06]]",[ 8.42599074e-12  7.03704677e-15 -7.09283745e-04],0.0,0.0
1787053637.0548217,-8.59201627536095e-12,-7.194545349945e-15,0.0006081073630008761,"[9.97404986e-03 7.76493991e-11 0.00000000e+00 0.00000000e+00
 0.00000000e+00 8.43056477e-08 7.76493991e-11 9.97396794e-03
 0.00000000e+00 0.00000000e+00 0.00000000e+00 7.99154075e-11
 0.00000000e+00 0.00000000e+00 0.00000000e+00 0.00000000e+00
 0.00000000e+00 0.00000000e+00 0.00000000e+00 0.00000000e+00
 0.00000000e+00 0.00000000e+00 0.00000000e+00 0.00000000e+00
 0.00000000e+00 0.00000000e+00 0.00000000e+00 0.00000000e+00
 0.00000000e+00 0.00000000e+00 8.43056477e-08 7.99154075e-11
 0.00000000e+00 0.00000000e+00 0.00000000e+00 9.97568023e-03]","[[9.97404986e-06 7.76493991e-14 8.43056477e-11]
 [7.76493991e-14 9.97396794e-06 7.99154075e-14]
 [8.43056477e-11 7.99154075e-14 9.97568023e-06]]",[ 8.54083407e-12  7.14601899e-15 -6.08113429e-04],0.0,0.0
1787053637.1046865,-8.734582222879454e-12,-7.329540156866322e-15,0.0005399178541045657,"[9.97375186e-03 7.78992992e-11 0.00000000e+00 0.00000000e+00
 0.00000000e+00 8.47482005e-08 7.78992992e-11 9.97366951e-03
 0.00000000e+00 0.00000000e+00 0.00000000e+00 8.01725999e-11
 0.00000000e+00 0.00000000e+00 0.00000000e+00 0.00000000e+00
 0.00000000e+00 0.00000000e+00 0.00000000e+00 0.00000000e+00
 0.00000000e+00 0.00000000e+00 0.00000000e+00 0.00000000e+00
 0.00000000e+00 0.00000000e+00 0.00000000e+00 0.00000000e+00
 0.00000000e+00 0.00000000e+00 8.47482005e-08 8.01725999e-11
 0.00000000e+00 0.00000000e+00 0.00000000e+00 9.97539079e-03]","[[9.97375186e-06 7.78992992e-14 8.47482005e-11]
 [7.78992992e-14 9.97366951e-06 8.01725999e-14]
 [8.47482005e-11 8.01725999e-14 9.97539079e-06]]",[ 8.68891136e-12  7.28632578e-15 -5.39923240e-04],0.0,0.0
1787053637.1549535,-8.84503184953266e-12,-7.433928319853176e-15,0.0006878472699938242,"[9.97355321e-03 7.80692152e-11 0.00000000e+00 0.00000000e+00
 0.00000000e+00 8.50534918e-08 7.80692152e-11 9.97347057e-03
 0.00000000e+00 0.00000000e+00 0.00000000e+00 8.03474741e-11
 0.00000000e+00 0.00000000e+00 0.00000000e+00 0.00000000e+00
 0.00000000e+00 0.00000000e+00 0.00000000e+00 0.00000000e+00
 0.00000000e+00 0.00000000e+00 0.00000000e+00 0.00000000e+00
 0.00000000e+00 0.00000000e+00 0.00000000e+00 0.00000000e+00
 0.00000000e+00 0.00000000e+00 8.50534918e-08 8.03474741e-11
 0.00000000e+00 0.00000000e+00 0.00000000e+00 9.97519804e-03]","[[9.97355321e-06 7.80692152e-14 8.50534918e-11]
 [7.80692152e-14 9.97347057e-06 8.03474741e-14]
 [8.50534918e-11 8.03474741e-14 9.97519804e-06]]",[ 8.78661509e-12  7.37873457e-15 -6.87854131e-04],0.0,0.0
1787053637.2046874,-9.060665714172309e-12,-7.637483449770782e-15,0.000919852372123664,"[9.97325528e-03 7.84279167e-11 0.00000000e+00 0.00000000e+00
 0.00000000e+00 8.55376305e-08 7.84279167e-11 9.97317217e-03
 0.00000000e+00 0.00000000e+00 0.00000000e+00 8.07166430e-11
 0.00000000e+00 0.00000000e+00 0.00000000e+00 0.00000000e+00
 0.00000000e+00 0.00000000e+00 0.00000000e+00 0.00000000e+00
 0.00000000e+00 0.00000000e+00 0.00000000e+00 0.00000000e+00
 0.00000000e+00 0.00000000e+00 0.00000000e+00 0.00000000e+00
 0.00000000e+00 0.00000000e+00 8.55376305e-08 8.07166430e-11
 0.00000000e+00 0.00000000e+00 0.00000000e+00 9.97490947e-03]","[[9.97325528e-06 7.84279167e-14 8.55376305e-11]
 [7.84279167e-14 9.97317217e-06 8.07166430e-14]
 [8.55376305e-11 8.07166430e-14 9.97490947e-06]]",[ 8.98207252e-12  7.56331074e-15 -9.19861548e-04],0.0,0.0
1787053637.2552266,-9.234805592480282e-12,-7.80182725850312e-15,0.0010514652180138029,"[9.97305665e-03 7.87051845e-11 0.00000000e+00 0.00000000e+00
 0.00000000e+00 8.58365131e-08 7.87051845e-11 9.97297324e-03
 0.00000000e+00 0.00000000e+00 0.00000000e+00 8.10020019e-11
 0.00000000e+00 0.00000000e+00 0.00000000e+00 0.00000000e+00
 0.00000000e+00 0.00000000e+00 0.00000000e+00 0.00000000e+00
 0.00000000e+00 0.00000000e+00 0.00000000e+00 0.00000000e+00
 0.00000000e+00 0.00000000e+00 0.00000000e+00 0.00000000e+00
 0.00000000e+00 0.00000000e+00 8.58365131e-08 8.10020019e-11
 0.00000000e+00 0.00000000e+00 0.00000000e+00 9.97471662e-03]","[[9.97305665e-06 7.87051845e-14 8.58365131e-11]
 [7.87051845e-14 9.97297324e-06 8.10020019e-14]
 [8.58365131e-11 8.10020019e-14 9.97471662e-06]]",[ 9.14464178e-12  7.71673258e-15 -1.05147571e-03],0.0,0.0
1787053637.3048234,-9.525755921896346e-12,-8.07657599108332e-15,0.0011399466700128256,"[9.97275878e-03 7.92605276e-11 0.00000000e+00 0.00000000e+00
 0.00000000e+00 8.63540024e-08 7.92605276e-11 9.97267487e-03
 0.00000000e+00 0.00000000e+00 0.00000000e+00 8.15735510e-11
 0.00000000e+00 0.00000000e+00 0.00000000e+00 0.00000000e+00
 0.00000000e+00 0.00000000e+00 0.00000000e+00 0.00000000e+00
 0.00000000e+00 0.00000000e+00 0.00000000e+00 0.00000000e+00
 0.00000000e+00 0.00000000e+00 0.00000000e+00 0.00000000e+00
 0.00000000e+00 0.00000000e+00 8.63540024e-08 8.15735510e-11
 0.00000000e+00 0.00000000e+00 0.00000000e+00 9.97442876e-03]","[[9.97285801e-06 7.90115403e-14 8.61266953e-11]
 [7.90115403e-14 9.97277433e-06 8.13172978e-14]
 [8.61266953e-11 8.13172978e-14 9.97452360e-06]]",[ 9.33052609e-12  7.89218222e-15 -1.12598028e-03],0.0,0.0
1787053637.3553464,-9.720795835080034e-12,-8.260927661023009e-15,0.0011244450023828456,"[9.97256011e-03 7.95352505e-11 0.00000000e+00 0.00000000e+00
 0.00000000e+00 8.66021303e-08 7.95352505e-11 9.97247597e-03
 0.00000000e+00 0.00000000e+00 0.00000000e+00 8.18562909e-11
 0.00000000e+00 0.00000000e+00 0.00000000e+00 0.00000000e+00
 0.00000000e+00 0.00000000e+00 0.00000000e+00 0.00000000e+00
 0.00000000e+00 0.00000000e+00 0.00000000e+00 0.00000000e+00
 0.00000000e+00 0.00000000e+00 0.00000000e+00 0.00000000e+00
 0.00000000e+00 0.00000000e+00 8.66021303e-08 8.18562909e-11
 0.00000000e+00 0.00000000e+00 0.00000000e+00 9.97423489e-03]","[[9.97256011e-06 7.95352505e-14 8.66021303e-11]
 [7.95352505e-14 9.97247597e-06 8.18562909e-14]
 [8.66021303e-11 8.18562909e-14 9.97423489e-06]]",[ 9.62351150e-12  8.16896531e-15 -1.12445622e-03],0.0,0.0
1787053637.4062164,-9.964792251496739e-12,-8.491684511103181e-15,0.0008445553856089025,"[9.97226222e-03 8.00032987e-11 0.00000000e+00 0.00000000e+00
 0.00000000e+00 8.70684531e-08 8.00032987e-11 9.97217762e-03
 0.00000000e+00 0.00000000e+00 0.00000000e+00 8.23379976e-11
 0.00000000e+00 0.00000000e+00 0.00000000e+00 0.00000000e+00
 0.00000000e+00 0.00000000e+00 0.00000000e+00 0.00000000e+00
 0.00000000e+00 0.00000000e+00 0.00000000e+00 0.00000000e+00
 0.00000000e+00 0.00000000e+00 0.00000000e+00 0.00000000e+00
 0.00000000e+00 0.00000000e+00 8.70684531e-08 8.23379976e-11
 0.00000000e+00 0.00000000e+00 0.00000000e+00 9.97394602e-03]","[[9.97226222e-06 8.00032987e-14 8.70684531e-11]
 [8.00032987e-14 9.97217762e-06 8.23379976e-14]
 [8.70684531e-11 8.23379976e-14 9.97394602e-06]]",[ 9.89135603e-12  8.42222881e-15 -8.44563809e-04],0.0,0.0
1787053637.4553413,-1.009616913973112e-11,-8.61590147418332e-15,0.0007243646162473638,"[9.97206363e-03 8.02375048e-11 0.00000000e+00 0.00000000e+00
 0.00000000e+00 8.73646527e-08 8.02375048e-11 9.97197874e-03
 0.00000000e+00 0.00000000e+00 0.00000000e+00 8.25790380e-11
 0.00000000e+00 0.00000000e+00 0.00000000e+00 0.00000000e+00
 0.00000000e+00 0.00000000e+00 0.00000000e+00 0.00000000e+00
 0.00000000e+00 0.00000000e+00 0.00000000e+00 0.00000000e+00
 0.00000000e+00 0.00000000e+00 0.00000000e+00 0.00000000e+00
 0.00000000e+00 0.00000000e+00 8.73646527e-08 8.25790380e-11
 0.00000000e+00 0.00000000e+00 0.00000000e+00 9.97375315e-03]","[[9.97206363e-06 8.02375048e-14 8.73646527e-11]
 [8.02375048e-14 9.97197874e-06 8.25790380e-14]
 [8.73646527e-11 8.25790380e-14 9.97375315e-06]]",[ 1.00329847e-11  8.55616887e-15 -7.24371841e-04],0.0,0.0
1787053637.505689,-1.030279239126402e-11,-8.81105434356649e-15,0.0008117000489011872,"[9.97176580e-03 8.05972630e-11 0.00000000e+00 0.00000000e+00
 0.00000000e+00 8.78598850e-08 8.05972630e-11 9.97168043e-03
 0.00000000e+00 0.00000000e+00 0.00000000e+00 8.29492945e-11
 0.00000000e+00 0.00000000e+00 0.00000000e+00 0.00000000e+00
 0.00000000e+00 0.00000000e+00 0.00000000e+00 0.00000000e+00
 0.00000000e+00 0.00000000e+00 0.00000000e+00 0.00000000e+00
 0.00000000e+00 0.00000000e+00 0.00000000e+00 0.00000000e+00
 0.00000000e+00 0.00000000e+00 8.78598850e-08 8.29492945e-11
 0.00000000e+00 0.00000000e+00 0.00000000e+00 9.97346490e-03]","[[9.97176580e-06 8.05972630e-14 8.78598850e-11]
 [8.05972630e-14 9.97168043e-06 8.29492945e-14]
 [8.78598850e-11 8.29492945e-14 9.97346490e-06]]",[ 1.02315778e-11  8.74381092e-15 -8.11708144e-04],0.0,0.0
1787053637.5557985,-1.0461888089548977e-11,-8.961227189593571e-15,0.0009363389112446718,"[9.97156725e-03 8.08671607e-11 0.00000000e+00 0.00000000e+00
 0.00000000e+00 8.81894525e-08 8.08671607e-11 9.97148156e-03
 0.00000000e+00 0.00000000e+00 0.00000000e+00 8.32270682e-11
 0.00000000e+00 0.00000000e+00 0.00000000e+00 0.00000000e+00
 0.00000000e+00 0.00000000e+00 0.00000000e+00 0.00000000e+00
 0.00000000e+00 0.00000000e+00 0.00000000e+00 0.00000000e+00
 0.00000000e+00 0.00000000e+00 0.00000000e+00 0.00000000e+00
 0.00000000e+00 0.00000000e+00 8.81894525e-08 8.32270682e-11
 0.00000000e+00 0.00000000e+00 0.00000000e+00 9.97327273e-03]","[[9.97156725e-06 8.08671607e-14 8.81894525e-11]
 [8.08671607e-14 9.97148156e-06 8.32270682e-14]
 [8.81894525e-11 8.32270682e-14 9.97327273e-06]]",[ 1.03794155e-11  8.88338625e-15 -9.36348250e-04],0.0,0.0
1787053637.6046748,-1.074020804303692e-11,-9.223941693568426e-15,0.0011060351061469298,"[9.97126937e-03 8.12645758e-11 0.00000000e+00 0.00000000e+00
 0.00000000e+00 8.86011220e-08 8.12645758e-11 9.97118328e-03
 0.00000000e+00 0.00000000e+00 0.00000000e+00 8.36360804e-11
 0.00000000e+00 0.00000000e+00 0.00000000e+00 0.00000000e+00
 0.00000000e+00 0.00000000e+00 0.00000000e+00 0.00000000e+00
 0.00000000e+00 0.00000000e+00 0.00000000e+00 0.00000000e+00
 0.00000000e+00 0.00000000e+00 0.00000000e+00 0.00000000e+00
 0.00000000e+00 0.00000000e+00 8.86011220e-08 8.36360804e-11
 0.00000000e+00 0.00000000e+00 0.00000000e+00 9.97298281e-03]","[[9.97126937e-06 8.12645758e-14 8.86011220e-11]
 [8.12645758e-14 9.97118328e-06 8.36360804e-14]
 [8.86011220e-11 8.36360804e-14 9.97298281e-06]]",[ 1.06423172e-11  9.13152738e-15 -1.10604614e-03],0.0,0.0
1787053637.6598883,-1.0935582069536706e-11,-9.4084835036695e-15,0.001098227960715903,"[9.97107090e-03 8.16812725e-11 0.00000000e+00 0.00000000e+00
 0.00000000e+00 8.89890850e-08 8.16812725e-11 9.97098444e-03
 0.00000000e+00 0.00000000e+00 0.00000000e+00 8.40649372e-11
 0.00000000e+00 0.00000000e+00 0.00000000e+00 0.00000000e+00
 0.00000000e+00 0.00000000e+00 0.00000000e+00 0.00000000e+00
 0.00000000e+00 0.00000000e+00 0.00000000e+00 0.00000000e+00
 0.00000000e+00 0.00000000e+00 0.00000000e+00 0.00000000e+00
 0.00000000e+00 0.00000000e+00 8.89890850e-08 8.40649372e-11
 0.00000000e+00 0.00000000e+00 0.00000000e+00 9.97279184e-03]","[[9.97107090e-06 8.16812725e-14 8.89890850e-11]
 [8.16812725e-14 9.97098444e-06 8.40649372e-14]
 [8.89890850e-11 8.40649372e-14 9.97279184e-06]]",[ 1.08379589e-11  9.31625301e-15 -1.09823891e-03],0.0,0.0
1787053637.704686,-1.1227640983330642e-11,-9.684555970626096e-15,0.0010881172103331949,"[9.97077309e-03 8.21679637e-11 0.00000000e+00 0.00000000e+00
 0.00000000e+00 8.94458831e-08 8.21679637e-11 9.97068618e-03
 0.00000000e+00 0.00000000e+00 0.00000000e+00 8.45658309e-11
 0.00000000e+00 0.00000000e+00 0.00000000e+00 0.00000000e+00
 0.00000000e+00 0.00000000e+00 0.00000000e+00 0.00000000e+00
 0.00000000e+00 0.00000000e+00 0.00000000e+00 0.00000000e+00
 0.00000000e+00 0.00000000e+00 0.00000000e+00 0.00000000e+00
 0.00000000e+00 0.00000000e+00 8.94458831e-08 8.45658309e-11
 0.00000000e+00 0.00000000e+00 0.00000000e+00 9.97250287e-03]","[[9.97077309e-06 8.21679637e-14 8.94458831e-11]
 [8.21679637e-14 9.97068618e-06 8.45658309e-14]
 [8.94458831e-11 8.45658309e-14 9.97250287e-06]]",[ 1.11304234e-11  9.59263316e-15 -1.08812806e-03],0.0,0.0
1787053637.7549098,-1.1406745591398754e-11,-9.85395817607266e-15,0.0009593327771728609,"[9.97057461e-03 8.25339060e-11 0.00000000e+00 0.00000000e+00
 0.00000000e+00 8.98032819e-08 8.25339060e-11 9.97048736e-03
 0.00000000e+00 0.00000000e+00 0.00000000e+00 8.49424521e-11
 0.00000000e+00 0.00000000e+00 0.00000000e+00 0.00000000e+00
 0.00000000e+00 0.00000000e+00 0.00000000e+00 0.00000000e+00
 0.00000000e+00 0.00000000e+00 0.00000000e+00 0.00000000e+00
 0.00000000e+00 0.00000000e+00 0.00000000e+00 0.00000000e+00
 0.00000000e+00 0.00000000e+00 8.98032819e-08 8.49424521e-11
 0.00000000e+00 0.00000000e+00 0.00000000e+00 9.97231130e-03]","[[9.97057461e-06 8.25339060e-14 8.98032819e-11]
 [8.25339060e-14 9.97048736e-06 8.49424521e-14]
 [8.98032819e-11 8.49424521e-14 9.97231130e-06]]",[ 1.13207064e-11  9.77256672e-15 -9.59342344e-04],0.0,0.0
1787053637.8052585,-1.1665983114262038e-11,-1.0099202228357949e-14,0.0009614151368801951,"[9.97027675e-03 8.28761669e-11 0.00000000e+00 0.00000000e+00
 0.00000000e+00 9.01701327e-08 8.28761669e-11 9.97018913e-03
 0.00000000e+00 0.00000000e+00 0.00000000e+00 8.52947007e-11
 0.00000000e+00 0.00000000e+00 0.00000000e+00 0.00000000e+00
 0.00000000e+00 0.00000000e+00 0.00000000e+00 0.00000000e+00
 0.00000000e+00 0.00000000e+00 0.00000000e+00 0.00000000e+00
 0.00000000e+00 0.00000000e+00 0.00000000e+00 0.00000000e+00
 0.00000000e+00 0.00000000e+00 9.01701327e-08 8.52947007e-11
 0.00000000e+00 0.00000000e+00 0.00000000e+00 9.97202053e-03]","[[9.97027675e-06 8.28761669e-14 9.01701327e-11]
 [8.28761669e-14 9.97018913e-06 8.52947007e-14]
 [9.01701327e-11 8.52947007e-14 9.97202053e-06]]",[ 1.15794068e-11  1.00172977e-14 -9.61424724e-04],0.0,0.0
1787053637.862393,-1.1849335690818761e-11,-1.0272673353263289e-14,0.001030883637234581,"[9.97007826e-03 8.31872811e-11 0.00000000e+00 0.00000000e+00
 0.00000000e+00 9.04977461e-08 8.31872811e-11 9.96999033e-03
 0.00000000e+00 0.00000000e+00 0.00000000e+00 8.56148936e-11
 0.00000000e+00 0.00000000e+00 0.00000000e+00 0.00000000e+00
 0.00000000e+00 0.00000000e+00 0.00000000e+00 0.00000000e+00
 0.00000000e+00 0.00000000e+00 0.00000000e+00 0.00000000e+00
 0.00000000e+00 0.00000000e+00 0.00000000e+00 0.00000000e+00
 0.00000000e+00 0.00000000e+00 9.04977461e-08 8.56148936e-11
 0.00000000e+00 0.00000000e+00 0.00000000e+00 9.97182838e-03]","[[9.97007826e-06 8.31872811e-14 9.04977461e-11]
 [8.31872811e-14 9.96999033e-06 8.56148936e-14]
 [9.04977461e-11 8.56148936e-14 9.97182838e-06]]",[ 1.17561593e-11  1.01845150e-14 -1.03089392e-03],0.0,0.0
1787053637.9044669,-1.2153628696406457e-11,-1.0560693688083785e-14,0.0011590283500946263,"[9.96978050e-03 8.36517501e-11 0.00000000e+00 0.00000000e+00
 0.00000000e+00 9.09434461e-08 8.36517501e-11 9.96969214e-03
 0.00000000e+00 0.00000000e+00 0.00000000e+00 8.60929166e-11
 0.00000000e+00 0.00000000e+00 0.00000000e+00 0.00000000e+00
 0.00000000e+00 0.00000000e+00 0.00000000e+00 0.00000000e+00
 0.00000000e+00 0.00000000e+00 0.00000000e+00 0.00000000e+00
 0.00000000e+00 0.00000000e+00 0.00000000e+00 0.00000000e+00
 0.00000000e+00 0.00000000e+00 9.09434461e-08 8.60929166e-11
 0.00000000e+00 0.00000000e+00 0.00000000e+00 9.97153924e-03]","[[9.96978050e-06 8.36517501e-14 9.09434461e-11]
 [8.36517501e-14 9.96969214e-06 8.60929166e-14]
 [9.09434461e-11 8.60929166e-14 9.97153924e-06]]",[ 1.20483417e-11  1.04610129e-14 -1.15903991e-03],0.0,0.0
1787053637.9547281,-1.2371944567613916e-11,-1.0767511487574027e-14,0.0012121317837410217,"[9.96958203e-03 8.40170704e-11 0.00000000e+00 0.00000000e+00
 0.00000000e+00 9.12633732e-08 8.40170704e-11 9.96949335e-03
 0.00000000e+00 0.00000000e+00 0.00000000e+00 8.64688977e-11
 0.00000000e+00 0.00000000e+00 0.00000000e+00 0.00000000e+00
 0.00000000e+00 0.00000000e+00 0.00000000e+00 0.00000000e+00
 0.00000000e+00 0.00000000e+00 0.00000000e+00 0.00000000e+00
 0.00000000e+00 0.00000000e+00 0.00000000e+00 0.00000000e+00
 0.00000000e+00 0.00000000e+00 9.12633732e-08 8.64688977e-11
 0.00000000e+00 0.00000000e+00 0.00000000e+00 9.97134695e-03]","[[9.96958203e-06 8.40170704e-14 9.12633732e-11]
 [8.40170704e-14 9.96949335e-06 8.64688977e-14]
 [9.12633732e-11 8.64688977e-14 9.97134695e-06]]",[ 1.22614425e-11  1.06628050e-14 -1.21214387e-03],0.0,0.0
1787053638.0079696,-1.2589728170393e-11,-1.0974024426750642e-14,0.0011838662394647594,"[9.96938358e-03 8.44123315e-11 0.00000000e+00 0.00000000e+00
 0.00000000e+00 9.16002686e-08 8.44123315e-11 9.96929457e-03
 0.00000000e+00 0.00000000e+00 0.00000000e+00 8.68756933e-11
 0.00000000e+00 0.00000000e+00 0.00000000e+00 0.00000000e+00
 0.00000000e+00 0.00000000e+00 0.00000000e+00 0.00000000e+00
 0.00000000e+00 0.00000000e+00 0.00000000e+00 0.00000000e+00
 0.00000000e+00 0.00000000e+00 0.00000000e+00 0.00000000e+00
 0.00000000e+00 0.00000000e+00 9.16002686e-08 8.68756933e-11
 0.00000000e+00 0.00000000e+00 0.00000000e+00 9.97115501e-03]","[[9.96938358e-06 8.44123315e-14 9.16002686e-11]
 [8.44123315e-14 9.96929457e-06 8.68756933e-14]
 [9.16002686e-11 8.68756933e-14 9.97115501e-06]]",[ 1.24814091e-11  1.08712826e-14 -1.18387804e-03],0.0,0.0
1787053638.062592,-1.2911441217936341e-11,-1.1279447013543379e-14,0.0011692449808871077,"[9.96908586e-03 8.49241089e-11 0.00000000e+00 0.00000000e+00
 0.00000000e+00 9.20468626e-08 8.49241089e-11 9.96899642e-03
 0.00000000e+00 0.00000000e+00 0.00000000e+00 8.74024054e-11
 0.00000000e+00 0.00000000e+00 0.00000000e+00 0.00000000e+00
 0.00000000e+00 0.00000000e+00 0.00000000e+00 0.00000000e+00
 0.00000000e+00 0.00000000e+00 0.00000000e+00 0.00000000e+00
 0.00000000e+00 0.00000000e+00 0.00000000e+00 0.00000000e+00
 0.00000000e+00 0.00000000e+00 9.20468626e-08 8.74024054e-11
 0.00000000e+00 0.00000000e+00 0.00000000e+00 9.97086593e-03]","[[9.96908586e-06 8.49241089e-14 9.20468626e-11]
 [8.49241089e-14 9.96899642e-06 8.74024054e-14]
 [9.20468626e-11 8.74024054e-14 9.97086593e-06]]",[ 1.28039425e-11  1.11773626e-14 -1.16925664e-03],0.0,0.0
1787053638.1058772,-1.324180377960193e-11,-1.1593455556338556e-14,0.00120388549328343,"[9.96878819e-03 8.54802264e-11 0.00000000e+00 0.00000000e+00
 0.00000000e+00 9.25310322e-08 8.54802264e-11 9.96869829e-03
 0.00000000e+00 0.00000000e+00 0.00000000e+00 8.79747515e-11
 0.00000000e+00 0.00000000e+00 0.00000000e+00 0.00000000e+00
 0.00000000e+00 0.00000000e+00 0.00000000e+00 0.00000000e+00
 0.00000000e+00 0.00000000e+00 0.00000000e+00 0.00000000e+00
 0.00000000e+00 0.00000000e+00 0.00000000e+00 0.00000000e+00
 0.00000000e+00 0.00000000e+00 9.25310322e-08 8.79747515e-11
 0.00000000e+00 0.00000000e+00 0.00000000e+00 9.97057763e-03]","[[9.96878819e-06 8.54802264e-14 9.25310322e-11]
 [8.54802264e-14 9.96869829e-06 8.79747515e-14]
 [9.25310322e-11 8.79747515e-14 9.97057763e-06]]",[ 1.31305368e-11  1.14876575e-14 -1.20389750e-03],0.0,0.0
1787053638.1595156,-1.3449059651662145e-11,-1.1790639066026842e-14,0.0010898287236154045,"[9.96858973e-03 8.58121629e-11 0.00000000e+00 0.00000000e+00
 0.00000000e+00 9.28210811e-08 8.58121629e-11 9.96849954e-03
 0.00000000e+00 0.00000000e+00 0.00000000e+00 8.83163745e-11
 0.00000000e+00 0.00000000e+00 0.00000000e+00 0.00000000e+00
 0.00000000e+00 0.00000000e+00 0.00000000e+00 0.00000000e+00
 0.00000000e+00 0.00000000e+00 0.00000000e+00 0.00000000e+00
 0.00000000e+00 0.00000000e+00 0.00000000e+00 0.00000000e+00
 0.00000000e+00 0.00000000e+00 9.28210811e-08 8.83163745e-11
 0.00000000e+00 0.00000000e+00 0.00000000e+00 9.97038478e-03]","[[9.96858973e-06 8.58121629e-14 9.28210811e-11]
 [8.58121629e-14 9.96849954e-06 8.83163745e-14]
 [9.28210811e-11 8.83163745e-14 9.97038478e-06]]",[ 1.33480326e-11  1.16945050e-14 -1.08983959e-03],0.0,0.0
1787053638.2044349,-1.3739055623465e-11,-1.2066707067204793e-14,0.0010517473471831629,"[9.96829210e-03 8.63122240e-11 0.00000000e+00 0.00000000e+00
 0.00000000e+00 9.33089224e-08 8.63122240e-11 9.96820144e-03
 0.00000000e+00 0.00000000e+00 0.00000000e+00 8.88310283e-11
 0.00000000e+00 0.00000000e+00 0.00000000e+00 0.00000000e+00
 0.00000000e+00 0.00000000e+00 0.00000000e+00 0.00000000e+00
 0.00000000e+00 0.00000000e+00 0.00000000e+00 0.00000000e+00
 0.00000000e+00 0.00000000e+00 0.00000000e+00 0.00000000e+00
 0.00000000e+00 0.00000000e+00 9.33089224e-08 8.88310283e-11
 0.00000000e+00 0.00000000e+00 0.00000000e+00 9.97009658e-03]","[[9.96829210e-06 8.63122240e-14 9.33089224e-11]
 [8.63122240e-14 9.96820144e-06 8.88310283e-14]
 [9.33089224e-11 8.88310283e-14 9.97009658e-06]]",[ 1.36410532e-11  1.19733977e-14 -1.05175783e-03],0.0,0.0
1787053638.2548182,-1.3946421326261973e-11,-1.226420421603518e-14,0.001123525364185252,"[9.96809367e-03 8.66269155e-11 0.00000000e+00 0.00000000e+00
 0.00000000e+00 9.36127975e-08 8.66269155e-11 9.96800271e-03
 0.00000000e+00 0.00000000e+00 0.00000000e+00 8.91549030e-11
 0.00000000e+00 0.00000000e+00 0.00000000e+00 0.00000000e+00
 0.00000000e+00 0.00000000e+00 0.00000000e+00 0.00000000e+00
 0.00000000e+00 0.00000000e+00 0.00000000e+00 0.00000000e+00
 0.00000000e+00 0.00000000e+00 0.00000000e+00 0.00000000e+00
 0.00000000e+00 0.00000000e+00 9.36127975e-08 8.91549030e-11
 0.00000000e+00 0.00000000e+00 0.00000000e+00 9.96990403e-03]","[[9.96809367e-06 8.66269155e-14 9.36127975e-11]
 [8.66269155e-14 9.96800271e-06 8.91549030e-14]
 [9.36127975e-11 8.91549030e-14 9.96990403e-06]]",[ 1.38413819e-11  1.21641567e-14 -1.12353657e-03],0.0,0.0
1787053638.3064468,-1.4281874000564476e-11,-1.2583948503782893e-14,0.001222672817195125,"[9.96779606e-03 8.71673533e-11 0.00000000e+00 0.00000000e+00
 0.00000000e+00 9.40938743e-08 8.71673533e-11 9.96770464e-03
 0.00000000e+00 0.00000000e+00 0.00000000e+00 8.97111118e-11
 0.00000000e+00 0.00000000e+00 0.00000000e+00 0.00000000e+00
 0.00000000e+00 0.00000000e+00 0.00000000e+00 0.00000000e+00
 0.00000000e+00 0.00000000e+00 0.00000000e+00 0.00000000e+00
 0.00000000e+00 0.00000000e+00 0.00000000e+00 0.00000000e+00
 0.00000000e+00 0.00000000e+00 9.40938743e-08 8.97111118e-11
 0.00000000e+00 0.00000000e+00 0.00000000e+00 9.96961573e-03]","[[9.96779606e-06 8.71673533e-14 9.40938743e-11]
 [8.71673533e-14 9.96770464e-06 8.97111118e-14]
 [9.40938743e-11 8.97111118e-14 9.96961573e-06]]",[ 1.41669680e-11  1.24743844e-14 -1.22268501e-03],0.0,0.0
1787053638.3558745,-1.4521498228327087e-11,-1.2812584845643569e-14,0.0012889126248905038,"[9.96759763e-03 8.75112335e-11 0.00000000e+00 0.00000000e+00
 0.00000000e+00 9.43785177e-08 8.75112335e-11 9.96750593e-03
 0.00000000e+00 0.00000000e+00 0.00000000e+00 9.00650271e-11
 0.00000000e+00 0.00000000e+00 0.00000000e+00 0.00000000e+00
 0.00000000e+00 0.00000000e+00 0.00000000e+00 0.00000000e+00
 0.00000000e+00 0.00000000e+00 0.00000000e+00 0.00000000e+00
 0.00000000e+00 0.00000000e+00 0.00000000e+00 0.00000000e+00
 0.00000000e+00 0.00000000e+00 9.43785177e-08 9.00650271e-11
 0.00000000e+00 0.00000000e+00 0.00000000e+00 9.96942280e-03]","[[9.96759763e-06 8.75112335e-14 9.43785177e-11]
 [8.75112335e-14 9.96750593e-06 9.00650271e-14]
 [9.43785177e-11 9.00650271e-14 9.96942280e-06]]",[ 1.43999949e-11  1.26966243e-14 -1.28892547e-03],0.0,0.0
1787053638.4052784,-1.487636115358924e-11,-1.3151630999624656e-14,0.0012313786825255413,"[9.96730004e-03 8.80860917e-11 0.00000000e+00 0.00000000e+00
 0.00000000e+00 9.48431667e-08 8.80860917e-11 9.96720789e-03
 0.00000000e+00 0.00000000e+00 0.00000000e+00 9.06566608e-11
 0.00000000e+00 0.00000000e+00 0.00000000e+00 0.00000000e+00
 0.00000000e+00 0.00000000e+00 0.00000000e+00 0.00000000e+00
 0.00000000e+00 0.00000000e+00 0.00000000e+00 0.00000000e+00
 0.00000000e+00 0.00000000e+00 0.00000000e+00 0.00000000e+00
 0.00000000e+00 0.00000000e+00 9.48431667e-08 9.06566608e-11
 0.00000000e+00 0.00000000e+00 0.00000000e+00 9.96913419e-03]","[[9.96730004e-06 8.80860917e-14 9.48431667e-11]
 [8.80860917e-14 9.96720789e-06 9.06566608e-14]
 [9.48431667e-11 9.06566608e-14 9.96913419e-06]]",[ 1.47597193e-11  1.30401272e-14 -1.23139096e-03],0.0,0.0
1787053638.4552906,-1.510014387510968e-11,-1.3365712143660734e-14,0.001162548887048587,"[9.96710165e-03 8.84529495e-11 0.00000000e+00 0.00000000e+00
 0.00000000e+00 9.51528806e-08 8.84529495e-11 9.96700920e-03
 0.00000000e+00 0.00000000e+00 0.00000000e+00 9.10342243e-11
 0.00000000e+00 0.00000000e+00 0.00000000e+00 0.00000000e+00
 0.00000000e+00 0.00000000e+00 0.00000000e+00 0.00000000e+00
 0.00000000e+00 0.00000000e+00 0.00000000e+00 0.00000000e+00
 0.00000000e+00 0.00000000e+00 0.00000000e+00 0.00000000e+00
 0.00000000e+00 0.00000000e+00 9.51528806e-08 9.10342243e-11
 0.00000000e+00 0.00000000e+00 0.00000000e+00 9.96894180e-03]","[[9.96710165e-06 8.84529495e-14 9.51528806e-11]
 [8.84529495e-14 9.96700920e-06 9.10342243e-14]
 [9.51528806e-11 9.10342243e-14 9.96894180e-06]]",[ 1.49896723e-11  1.32600115e-14 -1.16256048e-03],0.0,0.0
1787053638.5064223,-1.5284392869277682e-11,-1.3542077342910314e-14,0.0008976816295866996,"[9.96690328e-03 8.87900243e-11 0.00000000e+00 0.00000000e+00
 0.00000000e+00 9.54697569e-08 8.87900243e-11 9.96681052e-03
 0.00000000e+00 0.00000000e+00 0.00000000e+00 9.13811355e-11
 0.00000000e+00 0.00000000e+00 0.00000000e+00 0.00000000e+00
 0.00000000e+00 0.00000000e+00 0.00000000e+00 0.00000000e+00
 0.00000000e+00 0.00000000e+00 0.00000000e+00 0.00000000e+00
 0.00000000e+00 0.00000000e+00 0.00000000e+00 0.00000000e+00
 0.00000000e+00 0.00000000e+00 9.54697569e-08 9.13811355e-11
 0.00000000e+00 0.00000000e+00 0.00000000e+00 9.96874955e-03]","[[9.96690328e-06 8.87900243e-14 9.54697569e-11]
 [8.87900243e-14 9.96681052e-06 9.13811355e-14]
 [9.54697569e-11 9.13811355e-14 9.96874955e-06]]",[ 1.51988421e-11  1.34601795e-14 -8.97690578e-04],0.0,0.0
1787053638.554698,-1.548754672057064e-11,-1.3736457168438782e-14,0.0006755395841988587,"[9.96660591e-03 8.92810862e-11 0.00000000e+00 0.00000000e+00
 0.00000000e+00 9.61134064e-08 8.92810862e-11 9.96651252e-03
 0.00000000e+00 0.00000000e+00 0.00000000e+00 9.18865273e-11
 0.00000000e+00 0.00000000e+00 0.00000000e+00 0.00000000e+00
 0.00000000e+00 0.00000000e+00 0.00000000e+00 0.00000000e+00
 0.00000000e+00 0.00000000e+00 0.00000000e+00 0.00000000e+00
 0.00000000e+00 0.00000000e+00 0.00000000e+00 0.00000000e+00
 0.00000000e+00 0.00000000e+00 9.61134064e-08 9.18865273e-11
 0.00000000e+00 0.00000000e+00 0.00000000e+00 9.96846462e-03]","[[9.96660591e-06 8.92810862e-14 9.61134064e-11]
 [8.92810862e-14 9.96651252e-06 9.18865273e-14]
 [9.61134064e-11 9.18865273e-14 9.96846462e-06]]",[ 1.54227714e-11  1.36745199e-14 -6.75546318e-04],0.0,0.0
1787053638.61185,-1.5621838552346876e-11,-1.3864815533860663e-14,0.0007108492121865596,"[9.96640745e-03 8.94161783e-11 0.00000000e+00 0.00000000e+00
 0.00000000e+00 9.63178667e-08 8.94161783e-11 9.96631386e-03
 0.00000000e+00 0.00000000e+00 0.00000000e+00 9.20255614e-11
 0.00000000e+00 0.00000000e+00 0.00000000e+00 0.00000000e+00
 0.00000000e+00 0.00000000e+00 0.00000000e+00 0.00000000e+00
 0.00000000e+00 0.00000000e+00 0.00000000e+00 0.00000000e+00
 0.00000000e+00 0.00000000e+00 0.00000000e+00 0.00000000e+00
 0.00000000e+00 0.00000000e+00 9.63178667e-08 9.20255614e-11
 0.00000000e+00 0.00000000e+00 0.00000000e+00 9.96827012e-03]","[[9.96640745e-06 8.94161783e-14 9.63178667e-11]
 [8.94161783e-14 9.96631386e-06 9.20255614e-14]
 [9.63178667e-11 9.20255614e-14 9.96827012e-06]]",[ 1.55535254e-11  1.37995361e-14 -7.10856298e-04],0.0,0.0
1787053638.655714,-1.5842030519305012e-11,-1.407496461955119e-14,0.000779369721265688,"[9.96611011e-03 8.98805908e-11 0.00000000e+00 0.00000000e+00
 0.00000000e+00 9.69756515e-08 8.98805908e-11 9.96601589e-03
 0.00000000e+00 0.00000000e+00 0.00000000e+00 9.25035260e-11
 0.00000000e+00 0.00000000e+00 0.00000000e+00 0.00000000e+00
 0.00000000e+00 0.00000000e+00 0.00000000e+00 0.00000000e+00
 0.00000000e+00 0.00000000e+00 0.00000000e+00 0.00000000e+00
 0.00000000e+00 0.00000000e+00 0.00000000e+00 0.00000000e+00
 0.00000000e+00 0.00000000e+00 9.69756515e-08 9.25035260e-11
 0.00000000e+00 0.00000000e+00 0.00000000e+00 9.96798550e-03]","[[9.96611011e-06 8.98805908e-14 9.69756515e-11]
 [8.98805908e-14 9.96601589e-06 9.25035260e-14]
 [9.69756515e-11 9.25035260e-14 9.96798550e-06]]",[ 1.5766607e-11  1.4003009e-14 -7.7937749e-04],0.0,0.0
1787053638.709734,-1.5994593204024977e-11,-1.4220464243029734e-14,0.0007901395608547191,"[9.96591174e-03 9.00882371e-11 0.00000000e+00 0.00000000e+00
 0.00000000e+00 9.72496595e-08 9.00882371e-11 9.96581725e-03
 0.00000000e+00 0.00000000e+00 0.00000000e+00 9.27172316e-11
 0.00000000e+00 0.00000000e+00 0.00000000e+00 0.00000000e+00
 0.00000000e+00 0.00000000e+00 0.00000000e+00 0.00000000e+00
 0.00000000e+00 0.00000000e+00 0.00000000e+00 0.00000000e+00
 0.00000000e+00 0.00000000e+00 0.00000000e+00 0.00000000e+00
 0.00000000e+00 0.00000000e+00 9.72496595e-08 9.27172316e-11
 0.00000000e+00 0.00000000e+00 0.00000000e+00 9.96779243e-03]","[[9.96591174e-06 9.00882371e-14 9.72496595e-11]
 [9.00882371e-14 9.96581725e-06 9.27172316e-14]
 [9.72496595e-11 9.27172316e-14 9.96779243e-06]]",[ 1.59179103e-11  1.41473450e-14 -7.90147437e-04],0.0,0.0
