time,x,y,yaw,cov_prop,K_gain,innovation
1786946954.4909933,9.600688773871352e-09,-2.214016621225553e-21,-4.605205106145149e-13,"[ 9.99970038e-03 -1.46974814e-22  0.00000000e+00  0.00000000e+00
  0.00000000e+00  3.83653017e-10 -1.46974814e-22  9.99970001e-03
  0.00000000e+00  0.00000000e+00  0.00000000e+00 -1.52544393e-22
  0.00000000e+00  0.00000000e+00  0.00000000e+00  0.00000000e+00
  0.00000000e+00  0.00000000e+00  0.00000000e+00  0.00000000e+00
  0.00000000e+00  0.00000000e+00  0.00000000e+00  0.00000000e+00
  0.00000000e+00  0.00000000e+00  0.00000000e+00  0.00000000e+00
  0.00000000e+00  0.00000000e+00  3.83653017e-10 -1.52544393e-22
  0.00000000e+00  0.00000000e+00  0.00000000e+00  9.99970780e-03]","[[ 9.99970038e-06 -1.46974814e-25  3.83653017e-13]
 [-1.46974814e-25  9.99970001e-06 -1.52544393e-25]
 [ 3.83653017e-13 -1.52544393e-25  9.99970780e-06]]",[-9.60078478e-09  2.21403876e-21  4.60520511e-13]
1786946954.5406187,9.60068877578846e-09,-2.214016621666992e-21,-4.605205106145149e-13,"[ 9.99950070e-03 -2.85874265e-22  0.00000000e+00  0.00000000e+00
  0.00000000e+00  6.94066579e-10 -2.85874265e-22  9.99950002e-03
  0.00000000e+00  0.00000000e+00  0.00000000e+00 -2.91052422e-22
  0.00000000e+00  0.00000000e+00  0.00000000e+00  0.00000000e+00
  0.00000000e+00  0.00000000e+00  0.00000000e+00  0.00000000e+00
  0.00000000e+00  0.00000000e+00  0.00000000e+00  0.00000000e+00
  0.00000000e+00  0.00000000e+00  0.00000000e+00  0.00000000e+00
  0.00000000e+00  0.00000000e+00  6.94066579e-10 -2.91052422e-22
  0.00000000e+00  0.00000000e+00  0.00000000e+00  9.99951412e-03]","[[ 9.99950070e-06 -2.85874265e-25  6.94066579e-13]
 [-2.85874265e-25  9.99950002e-06 -2.91052422e-25]
 [ 6.94066579e-13 -2.91052422e-25  9.99951412e-06]]",[-9.60078478e-09  2.21403876e-21  4.60520511e-13]
1786946954.6009536,9.600688777700525e-09,-2.214016622106128e-21,-4.605205106145149e-13,"[ 9.99930142e-03 -6.06165484e-22  0.00000000e+00  0.00000000e+00
  0.00000000e+00  1.40985872e-09 -6.06165484e-22  9.99930005e-03
  0.00000000e+00  0.00000000e+00  0.00000000e+00 -7.24195765e-22
  0.00000000e+00  0.00000000e+00  0.00000000e+00  0.00000000e+00
  0.00000000e+00  0.00000000e+00  0.00000000e+00  0.00000000e+00
  0.00000000e+00  0.00000000e+00  0.00000000e+00  0.00000000e+00
  0.00000000e+00  0.00000000e+00  0.00000000e+00  0.00000000e+00
  0.00000000e+00  0.00000000e+00  1.40985872e-09 -7.24195765e-22
  0.00000000e+00  0.00000000e+00  0.00000000e+00  9.99932868e-03]","[[ 9.99930142e-06 -6.06165484e-25  1.40985872e-12]
 [-6.06165484e-25  9.99930005e-06 -7.24195765e-25]
 [ 1.40985872e-12 -7.24195765e-25  9.99932868e-06]]",[-9.60078478e-09  2.21403876e-21  4.60520511e-13]
1786946954.6379728,9.600688779615993e-09,-2.2140166225468477e-21,-4.605205106145149e-13,"[ 9.99910178e-03 -7.58475996e-22  0.00000000e+00  0.00000000e+00
  0.00000000e+00  1.75024364e-09 -7.58475996e-22  9.99910008e-03
  0.00000000e+00  0.00000000e+00  0.00000000e+00 -8.96747737e-22
  0.00000000e+00  0.00000000e+00  0.00000000e+00  0.00000000e+00
  0.00000000e+00  0.00000000e+00  0.00000000e+00  0.00000000e+00
  0.00000000e+00  0.00000000e+00  0.00000000e+00  0.00000000e+00
  0.00000000e+00  0.00000000e+00  0.00000000e+00  0.00000000e+00
  0.00000000e+00  0.00000000e+00  1.75024364e-09 -8.96747737e-22
  0.00000000e+00  0.00000000e+00  0.00000000e+00  9.99913563e-03]","[[ 9.99910178e-06 -7.58475996e-25  1.75024364e-12]
 [-7.58475996e-25  9.99910008e-06 -8.96747737e-25]
 [ 1.75024364e-12 -8.96747737e-25  9.99913563e-06]]",[-9.60078478e-09  2.21403876e-21  4.60520511e-13]
1786946954.6909096,9.600688782490831e-09,-2.2140166232087116e-21,-4.605205106145149e-13,"[ 9.99880236e-03 -9.94138399e-22  0.00000000e+00  0.00000000e+00
  0.00000000e+00  2.27690420e-09 -9.94138399e-22  9.99880014e-03
  0.00000000e+00  0.00000000e+00  0.00000000e+00 -1.18980492e-21
  0.00000000e+00  0.00000000e+00  0.00000000e+00  0.00000000e+00
  0.00000000e+00  0.00000000e+00  0.00000000e+00  0.00000000e+00
  0.00000000e+00  0.00000000e+00  0.00000000e+00  0.00000000e+00
  0.00000000e+00  0.00000000e+00  0.00000000e+00  0.00000000e+00
  0.00000000e+00  0.00000000e+00  2.27690420e-09 -1.18980492e-21
  0.00000000e+00  0.00000000e+00  0.00000000e+00  9.99884639e-03]","[[ 9.99880236e-06 -9.94138399e-25  2.27690420e-12]
 [-9.94138399e-25  9.99880014e-06 -1.18980492e-24]
 [ 2.27690420e-12 -1.18980492e-24  9.99884639e-06]]",[-9.60078478e-09  2.21403876e-21  4.60520511e-13]
1786946954.7391272,9.60068878440779e-09,-2.214016623650162e-21,-4.605205106145149e-13,"[ 9.99860269e-03 -1.12353719e-21  0.00000000e+00  0.00000000e+00
  0.00000000e+00  2.56608547e-09 -1.12353719e-21  9.99860020e-03
  0.00000000e+00  0.00000000e+00  0.00000000e+00 -1.29536691e-21
  0.00000000e+00  0.00000000e+00  0.00000000e+00  0.00000000e+00
  0.00000000e+00  0.00000000e+00  0.00000000e+00  0.00000000e+00
  0.00000000e+00  0.00000000e+00  0.00000000e+00  0.00000000e+00
  0.00000000e+00  0.00000000e+00  0.00000000e+00  0.00000000e+00
  0.00000000e+00  0.00000000e+00  2.56608547e-09 -1.29536691e-21
  0.00000000e+00  0.00000000e+00  0.00000000e+00  9.99865231e-03]","[[ 9.99860269e-06 -1.12353719e-24  2.56608547e-12]
 [-1.12353719e-24  9.99860020e-06 -1.29536691e-24]
 [ 2.56608547e-12 -1.29536691e-24  9.99865231e-06]]",[-9.60078478e-09  2.21403876e-21  4.60520511e-13]
1786946954.7898715,9.600688787282028e-09,-2.2140166243118166e-21,-4.605205106145149e-13,"[ 9.99830331e-03 -1.36844587e-21  0.00000000e+00  0.00000000e+00
  0.00000000e+00  3.11340989e-09 -1.36844587e-21  9.99830029e-03
  0.00000000e+00  0.00000000e+00  0.00000000e+00 -1.49920745e-21
  0.00000000e+00  0.00000000e+00  0.00000000e+00  0.00000000e+00
  0.00000000e+00  0.00000000e+00  0.00000000e+00  0.00000000e+00
  0.00000000e+00  0.00000000e+00  0.00000000e+00  0.00000000e+00
  0.00000000e+00  0.00000000e+00  0.00000000e+00  0.00000000e+00
  0.00000000e+00  0.00000000e+00  3.11340989e-09 -1.49920745e-21
  0.00000000e+00  0.00000000e+00  0.00000000e+00  9.99836352e-03]","[[ 9.99830331e-06 -1.36844587e-24  3.11340989e-12]
 [-1.36844587e-24  9.99830029e-06 -1.49920745e-24]
 [ 3.11340989e-12 -1.49920745e-24  9.99836352e-06]]",[-9.60078478e-09  2.21403876e-21  4.60520511e-13]
1786946954.8379118,9.600688789198392e-09,-2.2140166247530362e-21,-4.605205106145149e-13,"[ 9.99810366e-03 -1.49271272e-21  0.00000000e+00  0.00000000e+00
  0.00000000e+00  3.39112220e-09 -1.49271272e-21  9.99810036e-03
  0.00000000e+00  0.00000000e+00  0.00000000e+00 -1.59426861e-21
  0.00000000e+00  0.00000000e+00  0.00000000e+00  0.00000000e+00
  0.00000000e+00  0.00000000e+00  0.00000000e+00  0.00000000e+00
  0.00000000e+00  0.00000000e+00  0.00000000e+00  0.00000000e+00
  0.00000000e+00  0.00000000e+00  0.00000000e+00  0.00000000e+00
  0.00000000e+00  0.00000000e+00  3.39112220e-09 -1.59426861e-21
  0.00000000e+00  0.00000000e+00  0.00000000e+00  9.99816924e-03]","[[ 9.99810366e-06 -1.49271272e-24  3.39112220e-12]
 [-1.49271272e-24  9.99810036e-06 -1.59426861e-24]
 [ 3.39112220e-12 -1.59426861e-24  9.99816924e-06]]",[-9.60078478e-09  2.21403876e-21  4.60520511e-13]
1786946954.9057178,9.600688792073732e-09,-2.214016625415262e-21,-4.605205106145149e-13,"[ 9.99780417e-03 -1.67341237e-21  0.00000000e+00  0.00000000e+00
  0.00000000e+00  3.79495074e-09 -1.67341237e-21  9.99780048e-03
  0.00000000e+00  0.00000000e+00  0.00000000e+00 -1.77601400e-21
  0.00000000e+00  0.00000000e+00  0.00000000e+00  0.00000000e+00
  0.00000000e+00  0.00000000e+00  0.00000000e+00  0.00000000e+00
  0.00000000e+00  0.00000000e+00  0.00000000e+00  0.00000000e+00
  0.00000000e+00  0.00000000e+00  0.00000000e+00  0.00000000e+00
  0.00000000e+00  0.00000000e+00  3.79495074e-09 -1.77601400e-21
  0.00000000e+00  0.00000000e+00  0.00000000e+00  9.99787756e-03]","[[ 9.99780417e-06 -1.67341237e-24  3.79495074e-12]
 [-1.67341237e-24  9.99780048e-06 -1.77601400e-24]
 [ 3.79495074e-12 -1.77601400e-24  9.99787756e-06]]",[-9.60078478e-09  2.21403876e-21  4.60520511e-13]
1786946954.9382205,9.600688793988486e-09,-2.2140166258557846e-21,-4.605205106145149e-13,"[ 9.99760473e-03 -1.88843155e-21  0.00000000e+00  0.00000000e+00
  0.00000000e+00  4.27547843e-09 -1.88843155e-21  9.99760058e-03
  0.00000000e+00  0.00000000e+00  0.00000000e+00 -2.04508342e-21
  0.00000000e+00  0.00000000e+00  0.00000000e+00  0.00000000e+00
  0.00000000e+00  0.00000000e+00  0.00000000e+00  0.00000000e+00
  0.00000000e+00  0.00000000e+00  0.00000000e+00  0.00000000e+00
  0.00000000e+00  0.00000000e+00  0.00000000e+00  0.00000000e+00
  0.00000000e+00  0.00000000e+00  4.27547843e-09 -2.04508342e-21
  0.00000000e+00  0.00000000e+00  0.00000000e+00  9.99768741e-03]","[[ 9.99760473e-06 -1.88843155e-24  4.27547843e-12]
 [-1.88843155e-24  9.99760058e-06 -2.04508342e-24]
 [ 4.27547843e-12 -2.04508342e-24  9.99768741e-06]]",[-9.60078478e-09  2.21403876e-21  4.60520511e-13]
1786946954.9910924,9.60068879590273e-09,-2.2140166262960905e-21,-4.605205106145149e-13,"[ 9.99740535e-03 -2.12598875e-21  0.00000000e+00  0.00000000e+00
  0.00000000e+00  4.80637460e-09 -2.12598875e-21  9.99740068e-03
  0.00000000e+00  0.00000000e+00  0.00000000e+00 -2.34402872e-21
  0.00000000e+00  0.00000000e+00  0.00000000e+00  0.00000000e+00
  0.00000000e+00  0.00000000e+00  0.00000000e+00  0.00000000e+00
  0.00000000e+00  0.00000000e+00  0.00000000e+00  0.00000000e+00
  0.00000000e+00  0.00000000e+00  0.00000000e+00  0.00000000e+00
  0.00000000e+00  0.00000000e+00  4.80637460e-09 -2.34402872e-21
  0.00000000e+00  0.00000000e+00  0.00000000e+00  9.99749830e-03]","[[ 9.99740535e-06 -2.12598875e-24  4.80637460e-12]
 [-2.12598875e-24  9.99740068e-06 -2.34402872e-24]
 [ 4.80637460e-12 -2.34402872e-24  9.99749830e-06]]",[-9.60078478e-09  2.21403876e-21  4.60520511e-13]
1786946955.0389917,9.600688799736614e-09,-2.2140166271792378e-21,-4.605205106145149e-13,"[ 9.99700604e-03 -2.34441216e-21  0.00000000e+00  0.00000000e+00
  0.00000000e+00  5.29450797e-09 -2.34441216e-21  9.99700090e-03
  0.00000000e+00  0.00000000e+00  0.00000000e+00 -2.56378186e-21
  0.00000000e+00  0.00000000e+00  0.00000000e+00  0.00000000e+00
  0.00000000e+00  0.00000000e+00  0.00000000e+00  0.00000000e+00
  0.00000000e+00  0.00000000e+00  0.00000000e+00  0.00000000e+00
  0.00000000e+00  0.00000000e+00  0.00000000e+00  0.00000000e+00
  0.00000000e+00  0.00000000e+00  5.29450797e-09 -2.56378186e-21
  0.00000000e+00  0.00000000e+00  0.00000000e+00  9.99710843e-03]","[[ 9.99700604e-06 -2.34441216e-24  5.29450797e-12]
 [-2.34441216e-24  9.99700090e-06 -2.56378186e-24]
 [ 5.29450797e-12 -2.56378186e-24  9.99710843e-06]]",[-9.60078478e-09  2.21403876e-21  4.60520511e-13]
1786946955.0872264,9.600688801652536e-09,-2.214016627620369e-21,-4.605205106145149e-13,"[ 9.99680649e-03 -2.49046607e-21  0.00000000e+00  0.00000000e+00
  0.00000000e+00  5.62091046e-09 -2.49046607e-21  9.99680102e-03
  0.00000000e+00  0.00000000e+00  0.00000000e+00 -2.74232683e-21
  0.00000000e+00  0.00000000e+00  0.00000000e+00  0.00000000e+00
  0.00000000e+00  0.00000000e+00  0.00000000e+00  0.00000000e+00
  0.00000000e+00  0.00000000e+00  0.00000000e+00  0.00000000e+00
  0.00000000e+00  0.00000000e+00  0.00000000e+00  0.00000000e+00
  0.00000000e+00  0.00000000e+00  5.62091046e-09 -2.74232683e-21
  0.00000000e+00  0.00000000e+00  0.00000000e+00  9.99691519e-03]","[[ 9.99680649e-06 -2.49046607e-24  5.62091046e-12]
 [-2.49046607e-24  9.99680102e-06 -2.74232683e-24]
 [ 5.62091046e-12 -2.74232683e-24  9.99691519e-06]]",[-9.60078478e-09  2.21403876e-21  4.60520511e-13]
1786946955.1368353,9.600688804526739e-09,-2.214016628282246e-21,-4.605205106145149e-13,"[ 9.99650715e-03 -2.70397542e-21  0.00000000e+00  0.00000000e+00
  0.00000000e+00  6.09806280e-09 -2.70397542e-21  9.99650122e-03
  0.00000000e+00  0.00000000e+00  0.00000000e+00 -3.03139961e-21
  0.00000000e+00  0.00000000e+00  0.00000000e+00  0.00000000e+00
  0.00000000e+00  0.00000000e+00  0.00000000e+00  0.00000000e+00
  0.00000000e+00  0.00000000e+00  0.00000000e+00  0.00000000e+00
  0.00000000e+00  0.00000000e+00  0.00000000e+00  0.00000000e+00
  0.00000000e+00  0.00000000e+00  6.09806280e-09 -3.03139961e-21
  0.00000000e+00  0.00000000e+00  0.00000000e+00  9.99662508e-03]","[[ 9.99650715e-06 -2.70397542e-24  6.09806280e-12]
 [-2.70397542e-24  9.99650122e-06 -3.03139961e-24]
 [ 6.09806280e-12 -3.03139961e-24  9.99662508e-06]]",[-9.60078478e-09  2.21403876e-21  4.60520511e-13]
1786946955.190718,9.6006888054809e-09,-2.2140166285010817e-21,-4.605205106145149e-13,"[ 9.99640777e-03 -2.95513107e-21  0.00000000e+00  0.00000000e+00
  0.00000000e+00  6.65935015e-09 -2.95513107e-21  9.99640130e-03
  0.00000000e+00  0.00000000e+00  0.00000000e+00 -3.37314546e-21
  0.00000000e+00  0.00000000e+00  0.00000000e+00  0.00000000e+00
  0.00000000e+00  0.00000000e+00  0.00000000e+00  0.00000000e+00
  0.00000000e+00  0.00000000e+00  0.00000000e+00  0.00000000e+00
  0.00000000e+00  0.00000000e+00  0.00000000e+00  0.00000000e+00
  0.00000000e+00  0.00000000e+00  6.65935015e-09 -3.37314546e-21
  0.00000000e+00  0.00000000e+00  0.00000000e+00  9.99653655e-03]","[[ 9.99640777e-06 -2.95513107e-24  6.65935015e-12]
 [-2.95513107e-24  9.99640130e-06 -3.37314546e-24]
 [ 6.65935015e-12 -3.37314546e-24  9.99653655e-06]]",[-9.60078478e-09  2.21403876e-21  4.60520511e-13]
1786946955.2369947,9.600688808351483e-09,-2.2140166291613447e-21,-4.605205106145149e-13,"[ 9.99610845e-03 -3.16683716e-21  0.00000000e+00  0.00000000e+00
  0.00000000e+00  7.13247270e-09 -3.16683716e-21  9.99610152e-03
  0.00000000e+00  0.00000000e+00  0.00000000e+00 -3.53040841e-21
  0.00000000e+00  0.00000000e+00  0.00000000e+00  0.00000000e+00
  0.00000000e+00  0.00000000e+00  0.00000000e+00  0.00000000e+00
  0.00000000e+00  0.00000000e+00  0.00000000e+00  0.00000000e+00
  0.00000000e+00  0.00000000e+00  0.00000000e+00  0.00000000e+00
  0.00000000e+00  0.00000000e+00  7.13247270e-09 -3.53040841e-21
  0.00000000e+00  0.00000000e+00  0.00000000e+00  9.99624638e-03]","[[ 9.99610845e-06 -3.16683716e-24  7.13247270e-12]
 [-3.16683716e-24  9.99610152e-06 -3.53040841e-24]
 [ 7.13247270e-12 -3.53040841e-24  9.99624638e-06]]",[-9.60078478e-09  2.21403876e-21  4.60520511e-13]
1786946955.3051484,9.600688809309414e-09,-2.2140166293819344e-21,-4.605205106145149e-13,"[ 9.99600867e-03 -3.23344832e-21  0.00000000e+00  0.00000000e+00
  0.00000000e+00  7.28133578e-09 -3.23344832e-21  9.99600160e-03
  0.00000000e+00  0.00000000e+00  0.00000000e+00 -3.59613500e-21
  0.00000000e+00  0.00000000e+00  0.00000000e+00  0.00000000e+00
  0.00000000e+00  0.00000000e+00  0.00000000e+00  0.00000000e+00
  0.00000000e+00  0.00000000e+00  0.00000000e+00  0.00000000e+00
  0.00000000e+00  0.00000000e+00  0.00000000e+00  0.00000000e+00
  0.00000000e+00  0.00000000e+00  7.28133578e-09 -3.59613500e-21
  0.00000000e+00  0.00000000e+00  0.00000000e+00  9.99614949e-03]","[[ 9.99600867e-06 -3.23344832e-24  7.28133578e-12]
 [-3.23344832e-24  9.99600160e-06 -3.59613500e-24]
 [ 7.28133578e-12 -3.59613500e-24  9.99614949e-06]]",[-9.60078478e-09  2.21403876e-21  4.60520511e-13]
1786946955.3425121,9.600688811224807e-09,-2.2140166298229084e-21,-4.605205106145149e-13,"[ 9.99580915e-03 -3.37494880e-21  0.00000000e+00  0.00000000e+00
  0.00000000e+00  7.59756217e-09 -3.37494880e-21  9.99580176e-03
  0.00000000e+00  0.00000000e+00  0.00000000e+00 -3.75229675e-21
  0.00000000e+00  0.00000000e+00  0.00000000e+00  0.00000000e+00
  0.00000000e+00  0.00000000e+00  0.00000000e+00  0.00000000e+00
  0.00000000e+00  0.00000000e+00  0.00000000e+00  0.00000000e+00
  0.00000000e+00  0.00000000e+00  0.00000000e+00  0.00000000e+00
  0.00000000e+00  0.00000000e+00  7.59756217e-09 -3.75229675e-21
  0.00000000e+00  0.00000000e+00  0.00000000e+00  9.99595607e-03]","[[ 9.99580915e-06 -3.37494880e-24  7.59756217e-12]
 [-3.37494880e-24  9.99580176e-06 -3.75229675e-24]
 [ 7.59756217e-12 -3.75229675e-24  9.99595607e-06]]",[-9.60078478e-09  2.21403876e-21  4.60520511e-13]
1786946955.3894353,9.600688814091193e-09,-2.2140166304813195e-21,-4.605205106145149e-13,"[ 9.99551049e-03 -3.87279921e-21  0.00000000e+00  0.00000000e+00
  0.00000000e+00  8.71016693e-09 -3.87279921e-21  9.99550202e-03
  0.00000000e+00  0.00000000e+00  0.00000000e+00 -4.14236458e-21
  0.00000000e+00  0.00000000e+00  0.00000000e+00  0.00000000e+00
  0.00000000e+00  0.00000000e+00  0.00000000e+00  0.00000000e+00
  0.00000000e+00  0.00000000e+00  0.00000000e+00  0.00000000e+00
  0.00000000e+00  0.00000000e+00  0.00000000e+00  0.00000000e+00
  0.00000000e+00  0.00000000e+00  8.71016693e-09 -4.14236458e-21
  0.00000000e+00  0.00000000e+00  0.00000000e+00  9.99567893e-03]","[[ 9.99551049e-06 -3.87279921e-24  8.71016693e-12]
 [-3.87279921e-24  9.99550202e-06 -4.14236458e-24]
 [ 8.71016693e-12 -4.14236458e-24  9.99567893e-06]]",[-9.60078478e-09  2.21403876e-21  4.60520511e-13]
1786946955.4583948,9.600688816965073e-09,-2.2140166311432225e-21,-4.605205106145149e-13,"[ 9.99521123e-03 -4.08765215e-21  0.00000000e+00  0.00000000e+00
  0.00000000e+00  9.19032198e-09 -4.08765215e-21  9.99520230e-03
  0.00000000e+00  0.00000000e+00  0.00000000e+00 -4.39325594e-21
  0.00000000e+00  0.00000000e+00  0.00000000e+00  0.00000000e+00
  0.00000000e+00  0.00000000e+00  0.00000000e+00  0.00000000e+00
  0.00000000e+00  0.00000000e+00  0.00000000e+00  0.00000000e+00
  0.00000000e+00  0.00000000e+00  0.00000000e+00  0.00000000e+00
  0.00000000e+00  0.00000000e+00  9.19032198e-09 -4.39325594e-21
  0.00000000e+00  0.00000000e+00  0.00000000e+00  9.99538896e-03]","[[ 9.99521123e-06 -4.08765215e-24  9.19032198e-12]
 [-4.08765215e-24  9.99520230e-06 -4.39325594e-24]
 [ 9.19032198e-12 -4.39325594e-24  9.99538896e-06]]",[-9.60078478e-09  2.21403876e-21  4.60520511e-13]
1786946955.4893327,9.600688817921868e-09,-2.2140166313633277e-21,-4.605205106145149e-13,"[ 9.99511157e-03 -4.20053943e-21  0.00000000e+00  0.00000000e+00
  0.00000000e+00  9.44260398e-09 -4.20053943e-21  9.99510240e-03
  0.00000000e+00  0.00000000e+00  0.00000000e+00 -4.52755966e-21
  0.00000000e+00  0.00000000e+00  0.00000000e+00  0.00000000e+00
  0.00000000e+00  0.00000000e+00  0.00000000e+00  0.00000000e+00
  0.00000000e+00  0.00000000e+00  0.00000000e+00  0.00000000e+00
  0.00000000e+00  0.00000000e+00  0.00000000e+00  0.00000000e+00
  0.00000000e+00  0.00000000e+00  9.44260398e-09 -4.52755966e-21
  0.00000000e+00  0.00000000e+00  0.00000000e+00  9.99529418e-03]","[[ 9.99511157e-06 -4.20053943e-24  9.44260398e-12]
 [-4.20053943e-24  9.99510240e-06 -4.52755966e-24]
 [ 9.44260398e-12 -4.52755966e-24  9.99529418e-06]]",[-9.60078478e-09  2.21403876e-21  4.60520511e-13]
1786946955.5370278,9.600688820791335e-09,-2.2140166320232465e-21,-4.605205106145149e-13,"[ 9.99481265e-03 -4.55484941e-21  0.00000000e+00  0.00000000e+00
  0.00000000e+00  1.02344207e-08 -4.55484941e-21  9.99480270e-03
  0.00000000e+00  0.00000000e+00  0.00000000e+00 -4.99433379e-21
  0.00000000e+00  0.00000000e+00  0.00000000e+00  0.00000000e+00
  0.00000000e+00  0.00000000e+00  0.00000000e+00  0.00000000e+00
  0.00000000e+00  0.00000000e+00  0.00000000e+00  0.00000000e+00
  0.00000000e+00  0.00000000e+00  0.00000000e+00  0.00000000e+00
  0.00000000e+00  0.00000000e+00  1.02344207e-08 -4.99433379e-21
  0.00000000e+00  0.00000000e+00  0.00000000e+00  9.99501057e-03]","[[ 9.99481265e-06 -4.55484941e-24  1.02344207e-11]
 [-4.55484941e-24  9.99480270e-06 -4.99433379e-24]
 [ 1.02344207e-11 -4.99433379e-24  9.99501057e-06]]",[-9.60078478e-09  2.21403876e-21  4.60520511e-13]
1786946955.5879138,9.600688822703991e-09,-2.214016632463068e-21,-4.605205106145149e-13,"[ 9.99461324e-03 -4.73107533e-21  0.00000000e+00  0.00000000e+00
  0.00000000e+00  1.06282522e-08 -4.73107533e-21  9.99460291e-03
  0.00000000e+00  0.00000000e+00  0.00000000e+00 -5.25722880e-21
  0.00000000e+00  0.00000000e+00  0.00000000e+00  0.00000000e+00
  0.00000000e+00  0.00000000e+00  0.00000000e+00  0.00000000e+00
  0.00000000e+00  0.00000000e+00  0.00000000e+00  0.00000000e+00
  0.00000000e+00  0.00000000e+00  0.00000000e+00  0.00000000e+00
  0.00000000e+00  0.00000000e+00  1.06282522e-08 -5.25722880e-21
  0.00000000e+00  0.00000000e+00  0.00000000e+00  9.99481878e-03]","[[ 9.99461324e-06 -4.73107533e-24  1.06282522e-11]
 [-4.73107533e-24  9.99460291e-06 -5.25722880e-24]
 [ 1.06282522e-11 -5.25722880e-24  9.99481878e-06]]",[-9.60078478e-09  2.21403876e-21  4.60520511e-13]
1786946955.6378465,9.600688825577478e-09,-2.2140166331249066e-21,-4.605205106145149e-13,"[ 9.99431394e-03 -4.90109987e-21  0.00000000e+00  0.00000000e+00
  0.00000000e+00  1.10082237e-08 -4.90109987e-21  9.99430325e-03
  0.00000000e+00  0.00000000e+00  0.00000000e+00 -5.43140030e-21
  0.00000000e+00  0.00000000e+00  0.00000000e+00  0.00000000e+00
  0.00000000e+00  0.00000000e+00  0.00000000e+00  0.00000000e+00
  0.00000000e+00  0.00000000e+00  0.00000000e+00  0.00000000e+00
  0.00000000e+00  0.00000000e+00  0.00000000e+00  0.00000000e+00
  0.00000000e+00  0.00000000e+00  1.10082237e-08 -5.43140030e-21
  0.00000000e+00  0.00000000e+00  0.00000000e+00  9.99452683e-03]","[[ 9.99431394e-06 -4.90109987e-24  1.10082237e-11]
 [-4.90109987e-24  9.99430325e-06 -5.43140030e-24]
 [ 1.10082237e-11 -5.43140030e-24  9.99452683e-06]]",[-9.60078478e-09  2.21403876e-21  4.60520511e-13]
1786946955.6878111,9.600688827492118e-09,-2.214016633565685e-21,-4.605205106145149e-13,"[ 9.99411448e-03 -5.04151762e-21  0.00000000e+00  0.00000000e+00
  0.00000000e+00  1.13220305e-08 -5.04151762e-21  9.99410348e-03
  0.00000000e+00  0.00000000e+00  0.00000000e+00 -5.54156273e-21
  0.00000000e+00  0.00000000e+00  0.00000000e+00  0.00000000e+00
  0.00000000e+00  0.00000000e+00  0.00000000e+00  0.00000000e+00
  0.00000000e+00  0.00000000e+00  0.00000000e+00  0.00000000e+00
  0.00000000e+00  0.00000000e+00  0.00000000e+00  0.00000000e+00
  0.00000000e+00  0.00000000e+00  1.13220305e-08 -5.54156273e-21
  0.00000000e+00  0.00000000e+00  0.00000000e+00  9.99433343e-03]","[[ 9.99411448e-06 -5.04151762e-24  1.13220305e-11]
 [-5.04151762e-24  9.99410348e-06 -5.54156273e-24]
 [ 1.13220305e-11 -5.54156273e-24  9.99433343e-06]]",[-9.60078478e-09  2.21403876e-21  4.60520511e-13]
1786946955.7427344,9.600688829405974e-09,-2.2140166340061234e-21,-4.605205106145149e-13,"[ 9.99391512e-03 -5.22377370e-21  0.00000000e+00  0.00000000e+00
  0.00000000e+00  1.17293384e-08 -5.22377370e-21  9.99390372e-03
  0.00000000e+00  0.00000000e+00  0.00000000e+00 -5.75352645e-21
  0.00000000e+00  0.00000000e+00  0.00000000e+00  0.00000000e+00
  0.00000000e+00  0.00000000e+00  0.00000000e+00  0.00000000e+00
  0.00000000e+00  0.00000000e+00  0.00000000e+00  0.00000000e+00
  0.00000000e+00  0.00000000e+00  0.00000000e+00  0.00000000e+00
  0.00000000e+00  0.00000000e+00  1.17293384e-08 -5.75352645e-21
  0.00000000e+00  0.00000000e+00  0.00000000e+00  9.99414195e-03]","[[ 9.99391512e-06 -5.22377370e-24  1.17293384e-11]
 [-5.22377370e-24  9.99390372e-06 -5.75352645e-24]
 [ 1.17293384e-11 -5.75352645e-24  9.99414195e-06]]",[-9.60078478e-09  2.21403876e-21  4.60520511e-13]
1786946955.7949605,9.600688832277915e-09,-2.2140166346673418e-21,-4.605205106145149e-13,"[ 9.99361598e-03 -5.44914933e-21  0.00000000e+00  0.00000000e+00
  0.00000000e+00  1.22330097e-08 -5.44914933e-21  9.99360409e-03
  0.00000000e+00  0.00000000e+00  0.00000000e+00 -6.06570253e-21
  0.00000000e+00  0.00000000e+00  0.00000000e+00  0.00000000e+00
  0.00000000e+00  0.00000000e+00  0.00000000e+00  0.00000000e+00
  0.00000000e+00  0.00000000e+00  0.00000000e+00  0.00000000e+00
  0.00000000e+00  0.00000000e+00  0.00000000e+00  0.00000000e+00
  0.00000000e+00  0.00000000e+00  1.22330097e-08 -6.06570253e-21
  0.00000000e+00  0.00000000e+00  0.00000000e+00  9.99385255e-03]","[[ 9.99361598e-06 -5.44914933e-24  1.22330097e-11]
 [-5.44914933e-24  9.99360409e-06 -6.06570253e-24]
 [ 1.22330097e-11 -6.06570253e-24  9.99385255e-06]]",[-9.60078478e-09  2.21403876e-21  4.60520511e-13]
1786946955.8371346,9.600688835149197e-09,-2.2140166353282957e-21,-4.605205106145149e-13,"[ 9.99331684e-03 -5.66579233e-21  0.00000000e+00  0.00000000e+00
  0.00000000e+00  1.27171653e-08 -5.66579233e-21  9.99330449e-03
  0.00000000e+00  0.00000000e+00  0.00000000e+00 -6.26365956e-21
  0.00000000e+00  0.00000000e+00  0.00000000e+00  0.00000000e+00
  0.00000000e+00  0.00000000e+00  0.00000000e+00  0.00000000e+00
  0.00000000e+00  0.00000000e+00  0.00000000e+00  0.00000000e+00
  0.00000000e+00  0.00000000e+00  0.00000000e+00  0.00000000e+00
  0.00000000e+00  0.00000000e+00  1.27171653e-08 -6.26365956e-21
  0.00000000e+00  0.00000000e+00  0.00000000e+00  9.99356278e-03]","[[ 9.99331684e-06 -5.66579233e-24  1.27171653e-11]
 [-5.66579233e-24  9.99330449e-06 -6.26365956e-24]
 [ 1.27171653e-11 -6.26365956e-24  9.99356278e-06]]",[-9.60078478e-09  2.21403876e-21  4.60520511e-13]
1786946955.8870196,9.600688837063612e-09,-2.214016635769059e-21,-4.605205106145149e-13,"[ 9.99311748e-03 -5.83446208e-21  0.00000000e+00  0.00000000e+00
  0.00000000e+00  1.30941103e-08 -5.83446208e-21  9.99310476e-03
  0.00000000e+00  0.00000000e+00  0.00000000e+00 -6.42645136e-21
  0.00000000e+00  0.00000000e+00  0.00000000e+00  0.00000000e+00
  0.00000000e+00  0.00000000e+00  0.00000000e+00  0.00000000e+00
  0.00000000e+00  0.00000000e+00  0.00000000e+00  0.00000000e+00
  0.00000000e+00  0.00000000e+00  0.00000000e+00  0.00000000e+00
  0.00000000e+00  0.00000000e+00  1.30941103e-08 -6.42645136e-21
  0.00000000e+00  0.00000000e+00  0.00000000e+00  9.99337070e-03]","[[ 9.99311748e-06 -5.83446208e-24  1.30941103e-11]
 [-5.83446208e-24  9.99310476e-06 -6.42645136e-24]
 [ 1.30941103e-11 -6.42645136e-24  9.99337070e-06]]",[-9.60078478e-09  2.21403876e-21  4.60520511e-13]
1786946955.9408937,9.600688838977584e-09,-2.2140166362096336e-21,-4.605205106145149e-13,"[ 9.99291800e-03 -5.94695341e-21  0.00000000e+00  0.00000000e+00
  0.00000000e+00  1.33455064e-08 -5.94695341e-21  9.99290504e-03
  0.00000000e+00  0.00000000e+00  0.00000000e+00 -6.54209488e-21
  0.00000000e+00  0.00000000e+00  0.00000000e+00  0.00000000e+00
  0.00000000e+00  0.00000000e+00  0.00000000e+00  0.00000000e+00
  0.00000000e+00  0.00000000e+00  0.00000000e+00  0.00000000e+00
  0.00000000e+00  0.00000000e+00  0.00000000e+00  0.00000000e+00
  0.00000000e+00  0.00000000e+00  1.33455064e-08 -6.54209488e-21
  0.00000000e+00  0.00000000e+00  0.00000000e+00  9.99317609e-03]","[[ 9.99291800e-06 -5.94695341e-24  1.33455064e-11]
 [-5.94695341e-24  9.99290504e-06 -6.54209488e-24]
 [ 1.33455064e-11 -6.54209488e-24  9.99317609e-06]]",[-9.60078478e-09  2.21403876e-21  4.60520511e-13]
1786946955.990958,9.600688840892034e-09,-2.2140166366504508e-21,-4.605205106145149e-13,"[ 9.99271858e-03 -6.08172233e-21  0.00000000e+00  0.00000000e+00
  0.00000000e+00  1.36466890e-08 -6.08172233e-21  9.99270533e-03
  0.00000000e+00  0.00000000e+00  0.00000000e+00 -6.64170382e-21
  0.00000000e+00  0.00000000e+00  0.00000000e+00  0.00000000e+00
  0.00000000e+00  0.00000000e+00  0.00000000e+00  0.00000000e+00
  0.00000000e+00  0.00000000e+00  0.00000000e+00  0.00000000e+00
  0.00000000e+00  0.00000000e+00  0.00000000e+00  0.00000000e+00
  0.00000000e+00  0.00000000e+00  1.36466890e-08 -6.64170382e-21
  0.00000000e+00  0.00000000e+00  0.00000000e+00  9.99298250e-03]","[[ 9.99271858e-06 -6.08172233e-24  1.36466890e-11]
 [-6.08172233e-24  9.99270533e-06 -6.64170382e-24]
 [ 1.36466890e-11 -6.64170382e-24  9.99298250e-06]]",[-9.60078478e-09  2.21403876e-21  4.60520511e-13]
1786946956.038399,9.600688843760862e-09,-2.2140166373103955e-21,-4.605205106145149e-13,"[ 9.99241972e-03 -6.39852228e-21  0.00000000e+00  0.00000000e+00
  0.00000000e+00  1.43546777e-08 -6.39852228e-21  9.99240577e-03
  0.00000000e+00  0.00000000e+00  0.00000000e+00 -6.96021285e-21
  0.00000000e+00  0.00000000e+00  0.00000000e+00  0.00000000e+00
  0.00000000e+00  0.00000000e+00  0.00000000e+00  0.00000000e+00
  0.00000000e+00  0.00000000e+00  0.00000000e+00  0.00000000e+00
  0.00000000e+00  0.00000000e+00  0.00000000e+00  0.00000000e+00
  0.00000000e+00  0.00000000e+00  1.43546777e-08 -6.96021285e-21
  0.00000000e+00  0.00000000e+00  0.00000000e+00  9.99269732e-03]","[[ 9.99241972e-06 -6.39852228e-24  1.43546777e-11]
 [-6.39852228e-24  9.99240577e-06 -6.96021285e-24]
 [ 1.43546777e-11 -6.96021285e-24  9.99269732e-06]]",[-9.60078478e-09  2.21403876e-21  4.60520511e-13]
1786946956.0909774,9.600688845673783e-09,-2.2140166377505514e-21,-4.605205106145149e-13,"[ 9.99222034e-03 -6.54444411e-21  0.00000000e+00  0.00000000e+00
  0.00000000e+00  1.46807850e-08 -6.54444411e-21  9.99220608e-03
  0.00000000e+00  0.00000000e+00  0.00000000e+00 -7.13734937e-21
  0.00000000e+00  0.00000000e+00  0.00000000e+00  0.00000000e+00
  0.00000000e+00  0.00000000e+00  0.00000000e+00  0.00000000e+00
  0.00000000e+00  0.00000000e+00  0.00000000e+00  0.00000000e+00
  0.00000000e+00  0.00000000e+00  0.00000000e+00  0.00000000e+00
  0.00000000e+00  0.00000000e+00  1.46807850e-08 -7.13734937e-21
  0.00000000e+00  0.00000000e+00  0.00000000e+00  9.99250425e-03]","[[ 9.99222034e-06 -6.54444411e-24  1.46807850e-11]
 [-6.54444411e-24  9.99220608e-06 -7.13734937e-24]
 [ 1.46807850e-11 -7.13734937e-24  9.99250425e-06]]",[-9.60078478e-09  2.21403876e-21  4.60520511e-13]
1786946956.1374536,9.600688848543393e-09,-2.2140166384109204e-21,-4.605205106145149e-13,"[ 9.99192128e-03 -6.75584979e-21  0.00000000e+00  0.00000000e+00
  0.00000000e+00  1.51532356e-08 -6.75584979e-21  9.99190656e-03
  0.00000000e+00  0.00000000e+00  0.00000000e+00 -7.48590827e-21
  0.00000000e+00  0.00000000e+00  0.00000000e+00  0.00000000e+00
  0.00000000e+00  0.00000000e+00  0.00000000e+00  0.00000000e+00
  0.00000000e+00  0.00000000e+00  0.00000000e+00  0.00000000e+00
  0.00000000e+00  0.00000000e+00  0.00000000e+00  0.00000000e+00
  0.00000000e+00  0.00000000e+00  1.51532356e-08 -7.48590827e-21
  0.00000000e+00  0.00000000e+00  0.00000000e+00  9.99221432e-03]","[[ 9.99192128e-06 -6.75584979e-24  1.51532356e-11]
 [-6.75584979e-24  9.99190656e-06 -7.48590827e-24]
 [ 1.51532356e-11 -7.48590827e-24  9.99221432e-06]]",[-9.60078478e-09  2.21403876e-21  4.60520511e-13]
1786946956.1881804,9.600688850452688e-09,-2.214016638849449e-21,-4.605205106145149e-13,"[ 9.99172241e-03 -7.12601008e-21  0.00000000e+00  0.00000000e+00
  0.00000000e+00  1.59804762e-08 -7.12601008e-21  9.99170688e-03
  0.00000000e+00  0.00000000e+00  0.00000000e+00 -7.91347236e-21
  0.00000000e+00  0.00000000e+00  0.00000000e+00  0.00000000e+00
  0.00000000e+00  0.00000000e+00  0.00000000e+00  0.00000000e+00
  0.00000000e+00  0.00000000e+00  0.00000000e+00  0.00000000e+00
  0.00000000e+00  0.00000000e+00  0.00000000e+00  0.00000000e+00
  0.00000000e+00  0.00000000e+00  1.59804762e-08 -7.91347236e-21
  0.00000000e+00  0.00000000e+00  0.00000000e+00  9.99203145e-03]","[[ 9.99172241e-06 -7.12601008e-24  1.59804762e-11]
 [-7.12601008e-24  9.99170688e-06 -7.91347236e-24]
 [ 1.59804762e-11 -7.91347236e-24  9.99203145e-06]]",[-9.60078478e-09  2.21403876e-21  4.60520511e-13]
1786946956.2383802,9.600688852366817e-09,-2.21401663929022e-21,-4.605205106145149e-13,"[ 9.99152301e-03 -7.24758056e-21  0.00000000e+00  0.00000000e+00
  0.00000000e+00  1.62521629e-08 -7.24758056e-21  9.99150722e-03
  0.00000000e+00  0.00000000e+00  0.00000000e+00 -7.94133722e-21
  0.00000000e+00  0.00000000e+00  0.00000000e+00  0.00000000e+00
  0.00000000e+00  0.00000000e+00  0.00000000e+00  0.00000000e+00
  0.00000000e+00  0.00000000e+00  0.00000000e+00  0.00000000e+00
  0.00000000e+00  0.00000000e+00  0.00000000e+00  0.00000000e+00
  0.00000000e+00  0.00000000e+00  1.62521629e-08 -7.94133722e-21
  0.00000000e+00  0.00000000e+00  0.00000000e+00  9.99183731e-03]","[[ 9.99152301e-06 -7.24758056e-24  1.62521629e-11]
 [-7.24758056e-24  9.99150722e-06 -7.94133722e-24]
 [ 1.62521629e-11 -7.94133722e-24  9.99183731e-06]]",[-9.60078478e-09  2.21403876e-21  4.60520511e-13]
1786946956.2879434,9.600688855236087e-09,-2.214016639950526e-21,-4.605205106145149e-13,"[ 9.99122396e-03 -7.44696486e-21  0.00000000e+00  0.00000000e+00
  0.00000000e+00  1.66977481e-08 -7.44696486e-21  9.99120774e-03
  0.00000000e+00  0.00000000e+00  0.00000000e+00 -8.21237034e-21
  0.00000000e+00  0.00000000e+00  0.00000000e+00  0.00000000e+00
  0.00000000e+00  0.00000000e+00  0.00000000e+00  0.00000000e+00
  0.00000000e+00  0.00000000e+00  0.00000000e+00  0.00000000e+00
  0.00000000e+00  0.00000000e+00  0.00000000e+00  0.00000000e+00
  0.00000000e+00  0.00000000e+00  1.66977481e-08 -8.21237034e-21
  0.00000000e+00  0.00000000e+00  0.00000000e+00  9.99154688e-03]","[[ 9.99122396e-06 -7.44696486e-24  1.66977481e-11]
 [-7.44696486e-24  9.99120774e-06 -8.21237034e-24]
 [ 1.66977481e-11 -8.21237034e-24  9.99154688e-06]]",[-9.60078478e-09  2.21403876e-21  4.60520511e-13]
1786946956.3371162,9.600688858106721e-09,-2.214016640611501e-21,-4.605205106145149e-13,"[ 9.99092497e-03 -7.66595053e-21  0.00000000e+00  0.00000000e+00
  0.00000000e+00  1.71871390e-08 -7.66595053e-21  9.99090827e-03
  0.00000000e+00  0.00000000e+00  0.00000000e+00 -8.47952842e-21
  0.00000000e+00  0.00000000e+00  0.00000000e+00  0.00000000e+00
  0.00000000e+00  0.00000000e+00  0.00000000e+00  0.00000000e+00
  0.00000000e+00  0.00000000e+00  0.00000000e+00  0.00000000e+00
  0.00000000e+00  0.00000000e+00  0.00000000e+00  0.00000000e+00
  0.00000000e+00  0.00000000e+00  1.71871390e-08 -8.47952842e-21
  0.00000000e+00  0.00000000e+00  0.00000000e+00  9.99125735e-03]","[[ 9.99092497e-06 -7.66595053e-24  1.71871390e-11]
 [-7.66595053e-24  9.99090827e-06 -8.47952842e-24]
 [ 1.71871390e-11 -8.47952842e-24  9.99125735e-06]]",[-9.60078478e-09  2.21403876e-21  4.60520511e-13]
1786946956.3879437,9.600688860018602e-09,-2.214016641051308e-21,-4.605205106145149e-13,"[ 9.99072575e-03 -7.85513035e-21  0.00000000e+00  0.00000000e+00
  0.00000000e+00  1.76099201e-08 -7.85513035e-21  9.99070864e-03
  0.00000000e+00  0.00000000e+00  0.00000000e+00 -8.72747688e-21
  0.00000000e+00  0.00000000e+00  0.00000000e+00  0.00000000e+00
  0.00000000e+00  0.00000000e+00  0.00000000e+00  0.00000000e+00
  0.00000000e+00  0.00000000e+00  0.00000000e+00  0.00000000e+00
  0.00000000e+00  0.00000000e+00  0.00000000e+00  0.00000000e+00
  0.00000000e+00  0.00000000e+00  1.76099201e-08 -8.72747688e-21
  0.00000000e+00  0.00000000e+00  0.00000000e+00  9.99106631e-03]","[[ 9.99072575e-06 -7.85513035e-24  1.76099201e-11]
 [-7.85513035e-24  9.99070864e-06 -8.72747688e-24]
 [ 1.76099201e-11 -8.72747688e-24  9.99106631e-06]]",[-9.60078478e-09  2.21403876e-21  4.60520511e-13]
1786946956.4630866,9.600688862887297e-09,-2.2140166417114573e-21,-4.605205106145149e-13,"[ 9.99042676e-03 -8.05739282e-21  0.00000000e+00  0.00000000e+00
  0.00000000e+00  1.80619374e-08 -8.05739282e-21  9.99040921e-03
  0.00000000e+00  0.00000000e+00  0.00000000e+00 -9.00169875e-21
  0.00000000e+00  0.00000000e+00  0.00000000e+00  0.00000000e+00
  0.00000000e+00  0.00000000e+00  0.00000000e+00  0.00000000e+00
  0.00000000e+00  0.00000000e+00  0.00000000e+00  0.00000000e+00
  0.00000000e+00  0.00000000e+00  0.00000000e+00  0.00000000e+00
  0.00000000e+00  0.00000000e+00  1.80619374e-08 -9.00169875e-21
  0.00000000e+00  0.00000000e+00  0.00000000e+00  9.99077605e-03]","[[ 9.99042676e-06 -8.05739282e-24  1.80619374e-11]
 [-8.05739282e-24  9.99040921e-06 -9.00169875e-24]
 [ 1.80619374e-11 -9.00169875e-24  9.99077605e-06]]",[-9.60078478e-09  2.21403876e-21  4.60520511e-13]
1786946956.4876375,9.600688864799605e-09,-2.2140166421515055e-21,-4.605205106145149e-13,"[ 9.99022757e-03 -8.25547397e-21  0.00000000e+00  0.00000000e+00
  0.00000000e+00  1.85046117e-08 -8.25547397e-21  9.99020959e-03
  0.00000000e+00  0.00000000e+00  0.00000000e+00 -9.19368710e-21
  0.00000000e+00  0.00000000e+00  0.00000000e+00  0.00000000e+00
  0.00000000e+00  0.00000000e+00  0.00000000e+00  0.00000000e+00
  0.00000000e+00  0.00000000e+00  0.00000000e+00  0.00000000e+00
  0.00000000e+00  0.00000000e+00  0.00000000e+00  0.00000000e+00
  0.00000000e+00  0.00000000e+00  1.85046117e-08 -9.19368710e-21
  0.00000000e+00  0.00000000e+00  0.00000000e+00  9.99058543e-03]","[[ 9.99022757e-06 -8.25547397e-24  1.85046117e-11]
 [-8.25547397e-24  9.99020959e-06 -9.19368710e-24]
 [ 1.85046117e-11 -9.19368710e-24  9.99058543e-06]]",[-9.60078478e-09  2.21403876e-21  4.60520511e-13]
1786946956.5470188,9.600688866712422e-09,-2.214016642591806e-21,-4.605205106145149e-13,"[ 9.99002830e-03 -8.40730904e-21  0.00000000e+00  0.00000000e+00
  0.00000000e+00  1.88439340e-08 -8.40730904e-21  9.99000999e-03
  0.00000000e+00  0.00000000e+00  0.00000000e+00 -9.36469583e-21
  0.00000000e+00  0.00000000e+00  0.00000000e+00  0.00000000e+00
  0.00000000e+00  0.00000000e+00  0.00000000e+00  0.00000000e+00
  0.00000000e+00  0.00000000e+00  0.00000000e+00  0.00000000e+00
  0.00000000e+00  0.00000000e+00  0.00000000e+00  0.00000000e+00
  0.00000000e+00  0.00000000e+00  1.88439340e-08 -9.36469583e-21
  0.00000000e+00  0.00000000e+00  0.00000000e+00  9.99039272e-03]","[[ 9.99002830e-06 -8.40730904e-24  1.88439340e-11]
 [-8.40730904e-24  9.99000999e-06 -9.36469583e-24]
 [ 1.88439340e-11 -9.36469583e-24  9.99039272e-06]]",[-9.60078478e-09  2.21403876e-21  4.60520511e-13]
1786946956.5874617,9.600688869581668e-09,-2.214016643252301e-21,-4.605205106145149e-13,"[ 9.98972936e-03 -8.61446243e-21  0.00000000e+00  0.00000000e+00
  0.00000000e+00  1.93068817e-08 -8.61446243e-21  9.98971060e-03
  0.00000000e+00  0.00000000e+00  0.00000000e+00 -9.64865828e-21
  0.00000000e+00  0.00000000e+00  0.00000000e+00  0.00000000e+00
  0.00000000e+00  0.00000000e+00  0.00000000e+00  0.00000000e+00
  0.00000000e+00  0.00000000e+00  0.00000000e+00  0.00000000e+00
  0.00000000e+00  0.00000000e+00  0.00000000e+00  0.00000000e+00
  0.00000000e+00  0.00000000e+00  1.93068817e-08 -9.64865828e-21
  0.00000000e+00  0.00000000e+00  0.00000000e+00  9.99010273e-03]","[[ 9.98972936e-06 -8.61446243e-24  1.93068817e-11]
 [-8.61446243e-24  9.98971060e-06 -9.64865828e-24]
 [ 1.93068817e-11 -9.64865828e-24  9.99010273e-06]]",[-9.60078478e-09  2.21403876e-21  4.60520511e-13]
1786946956.6426952,9.600688871495164e-09,-2.2140166436929567e-21,-4.605205106145149e-13,"[ 9.98953005e-03 -8.74279411e-21  0.00000000e+00  0.00000000e+00
  0.00000000e+00  1.95936783e-08 -8.74279411e-21  9.98951101e-03
  0.00000000e+00  0.00000000e+00  0.00000000e+00 -9.73193536e-21
  0.00000000e+00  0.00000000e+00  0.00000000e+00  0.00000000e+00
  0.00000000e+00  0.00000000e+00  0.00000000e+00  0.00000000e+00
  0.00000000e+00  0.00000000e+00  0.00000000e+00  0.00000000e+00
  0.00000000e+00  0.00000000e+00  0.00000000e+00  0.00000000e+00
  0.00000000e+00  0.00000000e+00  1.95936783e-08 -9.73193536e-21
  0.00000000e+00  0.00000000e+00  0.00000000e+00  9.98990897e-03]","[[ 9.98953005e-06 -8.74279411e-24  1.95936783e-11]
 [-8.74279411e-24  9.98951101e-06 -9.73193536e-24]
 [ 1.95936783e-11 -9.73193536e-24  9.98990897e-06]]",[-9.60078478e-09  2.21403876e-21  4.60520511e-13]
1786946956.6871789,9.60068887436516e-09,-2.214016644353861e-21,-4.605205106145149e-13,"[ 9.98923116e-03 -8.95864351e-21  0.00000000e+00  0.00000000e+00
  0.00000000e+00  2.00760603e-08 -8.95864351e-21  9.98921165e-03
  0.00000000e+00  0.00000000e+00  0.00000000e+00 -9.96343186e-21
  0.00000000e+00  0.00000000e+00  0.00000000e+00  0.00000000e+00
  0.00000000e+00  0.00000000e+00  0.00000000e+00  0.00000000e+00
  0.00000000e+00  0.00000000e+00  0.00000000e+00  0.00000000e+00
  0.00000000e+00  0.00000000e+00  0.00000000e+00  0.00000000e+00
  0.00000000e+00  0.00000000e+00  2.00760603e-08 -9.96343186e-21
  0.00000000e+00  0.00000000e+00  0.00000000e+00  9.98961940e-03]","[[ 9.98923116e-06 -8.95864351e-24  2.00760603e-11]
 [-8.95864351e-24  9.98921165e-06 -9.96343186e-24]
 [ 2.00760603e-11 -9.96343186e-24  9.98961940e-06]]",[-9.60078478e-09  2.21403876e-21  4.60520511e-13]
1786946956.759295,9.60068887627799e-09,-2.214016644794255e-21,-4.605205106145149e-13,"[ 9.98903186e-03 -9.08230753e-21  0.00000000e+00  0.00000000e+00
  0.00000000e+00  2.03524255e-08 -9.08230753e-21  9.98901209e-03
  0.00000000e+00  0.00000000e+00  0.00000000e+00 -1.00616953e-20
  0.00000000e+00  0.00000000e+00  0.00000000e+00  0.00000000e+00
  0.00000000e+00  0.00000000e+00  0.00000000e+00  0.00000000e+00
  0.00000000e+00  0.00000000e+00  0.00000000e+00  0.00000000e+00
  0.00000000e+00  0.00000000e+00  0.00000000e+00  0.00000000e+00
  0.00000000e+00  0.00000000e+00  2.03524255e-08 -1.00616953e-20
  0.00000000e+00  0.00000000e+00  0.00000000e+00  9.98942545e-03]","[[ 9.98903186e-06 -9.08230753e-24  2.03524255e-11]
 [-9.08230753e-24  9.98901209e-06 -1.00616953e-23]
 [ 2.03524255e-11 -1.00616953e-23  9.98942545e-06]]",[-9.60078478e-09  2.21403876e-21  4.60520511e-13]
1786946956.798056,9.60068887818523e-09,-2.2140166452320937e-21,-4.605205106145149e-13,"[ 9.98883319e-03 -9.48825222e-21  0.00000000e+00  0.00000000e+00
  0.00000000e+00  2.12596382e-08 -9.48825222e-21  9.98881253e-03
  0.00000000e+00  0.00000000e+00  0.00000000e+00 -1.04414433e-20
  0.00000000e+00  0.00000000e+00  0.00000000e+00  0.00000000e+00
  0.00000000e+00  0.00000000e+00  0.00000000e+00  0.00000000e+00
  0.00000000e+00  0.00000000e+00  0.00000000e+00  0.00000000e+00
  0.00000000e+00  0.00000000e+00  0.00000000e+00  0.00000000e+00
  0.00000000e+00  0.00000000e+00  2.12596382e-08 -1.04414433e-20
  0.00000000e+00  0.00000000e+00  0.00000000e+00  9.98924432e-03]","[[ 9.98883319e-06 -9.48825222e-24  2.12596382e-11]
 [-9.48825222e-24  9.98881253e-06 -1.04414433e-23]
 [ 2.12596382e-11 -1.04414433e-23  9.98924432e-06]]",[-9.60078478e-09  2.21403876e-21  4.60520511e-13]
1786946956.8369355,9.600688880097586e-09,-2.2140166456723045e-21,-4.605205106145149e-13,"[ 9.98863404e-03 -9.67168704e-21  0.00000000e+00  0.00000000e+00
  0.00000000e+00  2.16695800e-08 -9.67168704e-21  9.98861298e-03
  0.00000000e+00  0.00000000e+00  0.00000000e+00 -1.07277461e-20
  0.00000000e+00  0.00000000e+00  0.00000000e+00  0.00000000e+00
  0.00000000e+00  0.00000000e+00  0.00000000e+00  0.00000000e+00
  0.00000000e+00  0.00000000e+00  0.00000000e+00  0.00000000e+00
  0.00000000e+00  0.00000000e+00  0.00000000e+00  0.00000000e+00
  0.00000000e+00  0.00000000e+00  2.16695800e-08 -1.07277461e-20
  0.00000000e+00  0.00000000e+00  0.00000000e+00  9.98905310e-03]","[[ 9.98863404e-06 -9.67168704e-24  2.16695800e-11]
 [-9.67168704e-24  9.98861298e-06 -1.07277461e-23]
 [ 2.16695800e-11 -1.07277461e-23  9.98905310e-06]]",[-9.60078478e-09  2.21403876e-21  4.60520511e-13]
1786946956.8874574,9.600688882966102e-09,-2.2140166463326457e-21,-4.605205106145149e-13,"[ 9.98833510e-03 -9.84437483e-21  0.00000000e+00  0.00000000e+00
  0.00000000e+00  2.20555034e-08 -9.84437483e-21  9.98831367e-03
  0.00000000e+00  0.00000000e+00  0.00000000e+00 -1.09137852e-20
  0.00000000e+00  0.00000000e+00  0.00000000e+00  0.00000000e+00
  0.00000000e+00  0.00000000e+00  0.00000000e+00  0.00000000e+00
  0.00000000e+00  0.00000000e+00  0.00000000e+00  0.00000000e+00
  0.00000000e+00  0.00000000e+00  0.00000000e+00  0.00000000e+00
  0.00000000e+00  0.00000000e+00  2.20555034e-08 -1.09137852e-20
  0.00000000e+00  0.00000000e+00  0.00000000e+00  9.98876163e-03]","[[ 9.98833510e-06 -9.84437483e-24  2.20555034e-11]
 [-9.84437483e-24  9.98831367e-06 -1.09137852e-23]
 [ 2.20555034e-11 -1.09137852e-23  9.98876163e-06]]",[-9.60078478e-09  2.21403876e-21  4.60520511e-13]
1786946956.95306,9.60068888487714e-09,-2.2140166467722915e-21,-4.605205106145149e-13,"[ 9.98813587e-03 -9.98076588e-21  0.00000000e+00  0.00000000e+00
  0.00000000e+00  2.23603111e-08 -9.98076588e-21  9.98811414e-03
  0.00000000e+00  0.00000000e+00  0.00000000e+00 -1.10514980e-20
  0.00000000e+00  0.00000000e+00  0.00000000e+00  0.00000000e+00
  0.00000000e+00  0.00000000e+00  0.00000000e+00  0.00000000e+00
  0.00000000e+00  0.00000000e+00  0.00000000e+00  0.00000000e+00
  0.00000000e+00  0.00000000e+00  0.00000000e+00  0.00000000e+00
  0.00000000e+00  0.00000000e+00  2.23603111e-08 -1.10514980e-20
  0.00000000e+00  0.00000000e+00  0.00000000e+00  9.98856829e-03]","[[ 9.98813587e-06 -9.98076588e-24  2.23603111e-11]
 [-9.98076588e-24  9.98811414e-06 -1.10514980e-23]
 [ 2.23603111e-11 -1.10514980e-23  9.98856829e-06]]",[-9.60078478e-09  2.21403876e-21  4.60520511e-13]
1786946956.9873471,9.600688886784902e-09,-2.2140166472104458e-21,-4.605205106145149e-13,"[ 9.98793709e-03 -1.03227644e-20  0.00000000e+00  0.00000000e+00
  0.00000000e+00  2.31246154e-08 -1.03227644e-20  9.98791462e-03
  0.00000000e+00  0.00000000e+00  0.00000000e+00 -1.13496015e-20
  0.00000000e+00  0.00000000e+00  0.00000000e+00  0.00000000e+00
  0.00000000e+00  0.00000000e+00  0.00000000e+00  0.00000000e+00
  0.00000000e+00  0.00000000e+00  0.00000000e+00  0.00000000e+00
  0.00000000e+00  0.00000000e+00  0.00000000e+00  0.00000000e+00
  0.00000000e+00  0.00000000e+00  2.31246154e-08 -1.13496015e-20
  0.00000000e+00  0.00000000e+00  0.00000000e+00  9.98838429e-03]","[[ 9.98793709e-06 -1.03227644e-23  2.31246154e-11]
 [-1.03227644e-23  9.98791462e-06 -1.13496015e-23]
 [ 2.31246154e-11 -1.13496015e-23  9.98838429e-06]]",[-9.60078478e-09  2.21403876e-21  4.60520511e-13]
1786946957.0379632,9.600688889652711e-09,-2.2140166478705545e-21,-4.605205106145149e-13,"[ 9.98763827e-03 -1.05276258e-20  0.00000000e+00  0.00000000e+00
  0.00000000e+00  2.35824412e-08 -1.05276258e-20  9.98761536e-03
  0.00000000e+00  0.00000000e+00  0.00000000e+00 -1.15720606e-20
  0.00000000e+00  0.00000000e+00  0.00000000e+00  0.00000000e+00
  0.00000000e+00  0.00000000e+00  0.00000000e+00  0.00000000e+00
  0.00000000e+00  0.00000000e+00  0.00000000e+00  0.00000000e+00
  0.00000000e+00  0.00000000e+00  0.00000000e+00  0.00000000e+00
  0.00000000e+00  0.00000000e+00  2.35824412e-08 -1.15720606e-20
  0.00000000e+00  0.00000000e+00  0.00000000e+00  9.98809433e-03]","[[ 9.98763827e-06 -1.05276258e-23  2.35824412e-11]
 [-1.05276258e-23  9.98761536e-06 -1.15720606e-23]
 [ 2.35824412e-11 -1.15720606e-23  9.98809433e-06]]",[-9.60078478e-09  2.21403876e-21  4.60520511e-13]
1786946957.10619,9.600688891564178e-09,-2.214016648310461e-21,-4.605205106145149e-13,"[ 9.98743914e-03 -1.06981220e-20  0.00000000e+00  0.00000000e+00
  0.00000000e+00  2.39634681e-08 -1.06981220e-20  9.98741586e-03
  0.00000000e+00  0.00000000e+00  0.00000000e+00 -1.17319707e-20
  0.00000000e+00  0.00000000e+00  0.00000000e+00  0.00000000e+00
  0.00000000e+00  0.00000000e+00  0.00000000e+00  0.00000000e+00
  0.00000000e+00  0.00000000e+00  0.00000000e+00  0.00000000e+00
  0.00000000e+00  0.00000000e+00  0.00000000e+00  0.00000000e+00
  0.00000000e+00  0.00000000e+00  2.39634681e-08 -1.17319707e-20
  0.00000000e+00  0.00000000e+00  0.00000000e+00  9.98790256e-03]","[[ 9.98743914e-06 -1.06981220e-23  2.39634681e-11]
 [-1.06981220e-23  9.98741586e-06 -1.17319707e-23]
 [ 2.39634681e-11 -1.17319707e-23  9.98790256e-06]]",[-9.60078478e-09  2.21403876e-21  4.60520511e-13]
1786946957.1412036,9.600688894431178e-09,-2.2140166489702628e-21,-4.605205106145149e-13,"[ 9.98714052e-03 -1.09814003e-20  0.00000000e+00  0.00000000e+00
  0.00000000e+00  2.45965420e-08 -1.09814003e-20  9.98711662e-03
  0.00000000e+00  0.00000000e+00  0.00000000e+00 -1.19736451e-20
  0.00000000e+00  0.00000000e+00  0.00000000e+00  0.00000000e+00
  0.00000000e+00  0.00000000e+00  0.00000000e+00  0.00000000e+00
  0.00000000e+00  0.00000000e+00  0.00000000e+00  0.00000000e+00
  0.00000000e+00  0.00000000e+00  0.00000000e+00  0.00000000e+00
  0.00000000e+00  0.00000000e+00  2.45965420e-08 -1.19736451e-20
  0.00000000e+00  0.00000000e+00  0.00000000e+00  9.98761619e-03]","[[ 9.98714052e-06 -1.09814003e-23  2.45965420e-11]
 [-1.09814003e-23  9.98711662e-06 -1.19736451e-23]
 [ 2.45965420e-11 -1.19736451e-23  9.98761619e-06]]",[-9.60078478e-09  2.21403876e-21  4.60520511e-13]
1786946957.20518,9.600688896342496e-09,-2.214016649410146e-21,-4.605205106145149e-13,"[ 9.98694136e-03 -1.11289051e-20  0.00000000e+00  0.00000000e+00
  0.00000000e+00  2.49261863e-08 -1.11289051e-20  9.98691714e-03
  0.00000000e+00  0.00000000e+00  0.00000000e+00 -1.22351683e-20
  0.00000000e+00  0.00000000e+00  0.00000000e+00  0.00000000e+00
  0.00000000e+00  0.00000000e+00  0.00000000e+00  0.00000000e+00
  0.00000000e+00  0.00000000e+00  0.00000000e+00  0.00000000e+00
  0.00000000e+00  0.00000000e+00  0.00000000e+00  0.00000000e+00
  0.00000000e+00  0.00000000e+00  2.49261863e-08 -1.22351683e-20
  0.00000000e+00  0.00000000e+00  0.00000000e+00  9.98742340e-03]","[[ 9.98694136e-06 -1.11289051e-23  2.49261863e-11]
 [-1.11289051e-23  9.98691714e-06 -1.22351683e-23]
 [ 2.49261863e-11 -1.22351683e-23  9.98742340e-06]]",[-9.60078478e-09  2.21403876e-21  4.60520511e-13]
1786946957.2373133,9.600688898251467e-09,-2.2140166498489653e-21,-4.605205106145149e-13,"[ 9.98674252e-03 -1.14228231e-20  0.00000000e+00  0.00000000e+00
  0.00000000e+00  2.55830392e-08 -1.14228231e-20  9.98671767e-03
  0.00000000e+00  0.00000000e+00  0.00000000e+00 -1.25217011e-20
  0.00000000e+00  0.00000000e+00  0.00000000e+00  0.00000000e+00
  0.00000000e+00  0.00000000e+00  0.00000000e+00  0.00000000e+00
  0.00000000e+00  0.00000000e+00  0.00000000e+00  0.00000000e+00
  0.00000000e+00  0.00000000e+00  0.00000000e+00  0.00000000e+00
  0.00000000e+00  0.00000000e+00  2.55830392e-08 -1.25217011e-20
  0.00000000e+00  0.00000000e+00  0.00000000e+00  9.98723727e-03]","[[ 9.98684201e-06 -1.13097771e-23  2.53304024e-11]
 [-1.13097771e-23  9.98681740e-06 -1.24124071e-23]
 [ 2.53304024e-11 -1.24124071e-23  9.98733187e-06]]",[-9.60078478e-09  2.21403876e-21  4.60520511e-13]
1786946957.2908869,9.600688900161645e-09,-2.2140166502883557e-21,-4.605205106145149e-13,"[ 9.98654335e-03 -1.15563886e-20  0.00000000e+00  0.00000000e+00
  0.00000000e+00  2.58815323e-08 -1.15563886e-20  9.98651820e-03
  0.00000000e+00  0.00000000e+00  0.00000000e+00 -1.26504766e-20
  0.00000000e+00  0.00000000e+00  0.00000000e+00  0.00000000e+00
  0.00000000e+00  0.00000000e+00  0.00000000e+00  0.00000000e+00
  0.00000000e+00  0.00000000e+00  0.00000000e+00  0.00000000e+00
  0.00000000e+00  0.00000000e+00  0.00000000e+00  0.00000000e+00
  0.00000000e+00  0.00000000e+00  2.58815323e-08 -1.26504766e-20
  0.00000000e+00  0.00000000e+00  0.00000000e+00  9.98704387e-03]","[[ 9.98654335e-06 -1.15563886e-23  2.58815323e-11]
 [-1.15563886e-23  9.98651820e-06 -1.26504766e-23]
 [ 2.58815323e-11 -1.26504766e-23  9.98704387e-06]]",[-9.60078478e-09  2.21403876e-21  4.60520511e-13]
1786946957.3647695,9.600688903029496e-09,-2.2140166509486675e-21,-4.605205106145149e-13,"[ 9.98624463e-03 -1.17701453e-20  0.00000000e+00  0.00000000e+00
  0.00000000e+00  2.63592378e-08 -1.17701453e-20  9.98621902e-03
  0.00000000e+00  0.00000000e+00  0.00000000e+00 -1.27969543e-20
  0.00000000e+00  0.00000000e+00  0.00000000e+00  0.00000000e+00
  0.00000000e+00  0.00000000e+00  0.00000000e+00  0.00000000e+00
  0.00000000e+00  0.00000000e+00  0.00000000e+00  0.00000000e+00
  0.00000000e+00  0.00000000e+00  0.00000000e+00  0.00000000e+00
  0.00000000e+00  0.00000000e+00  2.63592378e-08 -1.27969543e-20
  0.00000000e+00  0.00000000e+00  0.00000000e+00  9.98675439e-03]","[[ 9.98624463e-06 -1.17701453e-23  2.63592378e-11]
 [-1.17701453e-23  9.98621902e-06 -1.27969543e-23]
 [ 2.63592378e-11 -1.27969543e-23  9.98675439e-06]]",[-9.60078478e-09  2.21403876e-21  4.60520511e-13]
1786946957.3888056,9.600688903982894e-09,-2.2140166511676036e-21,-4.605205106145149e-13,"[ 9.98614525e-03 -1.19265449e-20  0.00000000e+00  0.00000000e+00
  0.00000000e+00  2.67087622e-08 -1.19265449e-20  9.98611929e-03
  0.00000000e+00  0.00000000e+00  0.00000000e+00 -1.29755227e-20
  0.00000000e+00  0.00000000e+00  0.00000000e+00  0.00000000e+00
  0.00000000e+00  0.00000000e+00  0.00000000e+00  0.00000000e+00
  0.00000000e+00  0.00000000e+00  0.00000000e+00  0.00000000e+00
  0.00000000e+00  0.00000000e+00  0.00000000e+00  0.00000000e+00
  0.00000000e+00  0.00000000e+00  2.67087622e-08 -1.29755227e-20
  0.00000000e+00  0.00000000e+00  0.00000000e+00  9.98666176e-03]","[[ 9.98614525e-06 -1.19265449e-23  2.67087622e-11]
 [-1.19265449e-23  9.98611929e-06 -1.29755227e-23]
 [ 2.67087622e-11 -1.29755227e-23  9.98666176e-06]]",[-9.60078478e-09  2.21403876e-21  4.60520511e-13]
1786946957.447916,9.60068890589299e-09,-2.2140166516070113e-21,-4.605205106145149e-13,"[ 9.98594629e-03 -1.21518227e-20  0.00000000e+00  0.00000000e+00
  0.00000000e+00  2.72122161e-08 -1.21518227e-20  9.98591985e-03
  0.00000000e+00  0.00000000e+00  0.00000000e+00 -1.32106404e-20
  0.00000000e+00  0.00000000e+00  0.00000000e+00  0.00000000e+00
  0.00000000e+00  0.00000000e+00  0.00000000e+00  0.00000000e+00
  0.00000000e+00  0.00000000e+00  0.00000000e+00  0.00000000e+00
  0.00000000e+00  0.00000000e+00  0.00000000e+00  0.00000000e+00
  0.00000000e+00  0.00000000e+00  2.72122161e-08 -1.32106404e-20
  0.00000000e+00  0.00000000e+00  0.00000000e+00  9.98647254e-03]","[[ 9.98594629e-06 -1.21518227e-23  2.72122161e-11]
 [-1.21518227e-23  9.98591985e-06 -1.32106404e-23]
 [ 2.72122161e-11 -1.32106404e-23  9.98647254e-06]]",[-9.60078478e-09  2.21403876e-21  4.60520511e-13]
1786946957.5137427,9.60068890779931e-09,-2.2140166520446977e-21,-4.605205106145149e-13,"[ 9.98574766e-03 -1.25189695e-20  0.00000000e+00  0.00000000e+00
  0.00000000e+00  2.80327225e-08 -1.25189695e-20  9.98572042e-03
  0.00000000e+00  0.00000000e+00  0.00000000e+00 -1.35369547e-20
  0.00000000e+00  0.00000000e+00  0.00000000e+00  0.00000000e+00
  0.00000000e+00  0.00000000e+00  0.00000000e+00  0.00000000e+00
  0.00000000e+00  0.00000000e+00  0.00000000e+00  0.00000000e+00
  0.00000000e+00  0.00000000e+00  0.00000000e+00  0.00000000e+00
  0.00000000e+00  0.00000000e+00  2.80327225e-08 -1.35369547e-20
  0.00000000e+00  0.00000000e+00  0.00000000e+00  9.98628978e-03]","[[ 9.98574766e-06 -1.25189695e-23  2.80327225e-11]
 [-1.25189695e-23  9.98572042e-06 -1.35369547e-23]
 [ 2.80327225e-11 -1.35369547e-23  9.98628978e-06]]",[-9.60078478e-09  2.21403876e-21  4.60520511e-13]
1786946957.5384345,9.600688909710188e-09,-2.2140166524845015e-21,-4.605205106145149e-13,"[ 9.98554862e-03 -1.26993177e-20  0.00000000e+00  0.00000000e+00
  0.00000000e+00  2.84357669e-08 -1.26993177e-20  9.98552099e-03
  0.00000000e+00  0.00000000e+00  0.00000000e+00 -1.36829872e-20
  0.00000000e+00  0.00000000e+00  0.00000000e+00  0.00000000e+00
  0.00000000e+00  0.00000000e+00  0.00000000e+00  0.00000000e+00
  0.00000000e+00  0.00000000e+00  0.00000000e+00  0.00000000e+00
  0.00000000e+00  0.00000000e+00  0.00000000e+00  0.00000000e+00
  0.00000000e+00  0.00000000e+00  2.84357669e-08 -1.36829872e-20
  0.00000000e+00  0.00000000e+00  0.00000000e+00  9.98609854e-03]","[[ 9.98554862e-06 -1.26993177e-23  2.84357669e-11]
 [-1.26993177e-23  9.98552099e-06 -1.36829872e-23]
 [ 2.84357669e-11 -1.36829872e-23  9.98609854e-06]]",[-9.60078478e-09  2.21403876e-21  4.60520511e-13]
1786946957.5942218,9.600688912576707e-09,-2.2140166531443334e-21,-4.605205106145149e-13,"[ 9.98524995e-03 -1.29080625e-20  0.00000000e+00  0.00000000e+00
  0.00000000e+00  2.89022714e-08 -1.29080625e-20  9.98522187e-03
  0.00000000e+00  0.00000000e+00  0.00000000e+00 -1.39033775e-20
  0.00000000e+00  0.00000000e+00  0.00000000e+00  0.00000000e+00
  0.00000000e+00  0.00000000e+00  0.00000000e+00  0.00000000e+00
  0.00000000e+00  0.00000000e+00  0.00000000e+00  0.00000000e+00
  0.00000000e+00  0.00000000e+00  0.00000000e+00  0.00000000e+00
  0.00000000e+00  0.00000000e+00  2.89022714e-08 -1.39033775e-20
  0.00000000e+00  0.00000000e+00  0.00000000e+00  9.98580889e-03]","[[ 9.98524995e-06 -1.29080625e-23  2.89022714e-11]
 [-1.29080625e-23  9.98522187e-06 -1.39033775e-23]
 [ 2.89022714e-11 -1.39033775e-23  9.98580889e-06]]",[-9.60078478e-09  2.21403876e-21  4.60520511e-13]
1786946957.6601877,9.600688915443084e-09,-2.2140166538041374e-21,-4.605205106145149e-13,"[ 9.98495131e-03 -1.31212779e-20  0.00000000e+00  0.00000000e+00
  0.00000000e+00  2.93787667e-08 -1.31212779e-20  9.98492277e-03
  0.00000000e+00  0.00000000e+00  0.00000000e+00 -1.41444726e-20
  0.00000000e+00  0.00000000e+00  0.00000000e+00  0.00000000e+00
  0.00000000e+00  0.00000000e+00  0.00000000e+00  0.00000000e+00
  0.00000000e+00  0.00000000e+00  0.00000000e+00  0.00000000e+00
  0.00000000e+00  0.00000000e+00  0.00000000e+00  0.00000000e+00
  0.00000000e+00  0.00000000e+00  2.93787667e-08 -1.41444726e-20
  0.00000000e+00  0.00000000e+00  0.00000000e+00  9.98551946e-03]","[[ 9.98495131e-06 -1.31212779e-23  2.93787667e-11]
 [-1.31212779e-23  9.98492277e-06 -1.41444726e-23]
 [ 2.93787667e-11 -1.41444726e-23  9.98551946e-06]]",[-9.60078478e-09  2.21403876e-21  4.60520511e-13]
1786946957.6911414,9.600688917353423e-09,-2.214016654243761e-21,-4.605205106145149e-13,"[ 9.98475225e-03 -1.32750541e-20  0.00000000e+00  0.00000000e+00
  0.00000000e+00  2.97224269e-08 -1.32750541e-20  9.98472337e-03
  0.00000000e+00  0.00000000e+00  0.00000000e+00 -1.43273672e-20
  0.00000000e+00  0.00000000e+00  0.00000000e+00  0.00000000e+00
  0.00000000e+00  0.00000000e+00  0.00000000e+00  0.00000000e+00
  0.00000000e+00  0.00000000e+00  0.00000000e+00  0.00000000e+00
  0.00000000e+00  0.00000000e+00  0.00000000e+00  0.00000000e+00
  0.00000000e+00  0.00000000e+00  2.97224269e-08 -1.43273672e-20
  0.00000000e+00  0.00000000e+00  0.00000000e+00  9.98532705e-03]","[[ 9.98475225e-06 -1.32750541e-23  2.97224269e-11]
 [-1.32750541e-23  9.98472337e-06 -1.43273672e-23]
 [ 2.97224269e-11 -1.43273672e-23  9.98532705e-06]]",[-9.60078478e-09  2.21403876e-21  4.60520511e-13]
1786946957.7395344,9.600688919265148e-09,-2.2140166546840406e-21,-4.605205106145149e-13,"[ 9.98455315e-03 -1.34065608e-20  0.00000000e+00  0.00000000e+00
  0.00000000e+00  3.00163187e-08 -1.34065608e-20  9.98452399e-03
  0.00000000e+00  0.00000000e+00  0.00000000e+00 -1.45041719e-20
  0.00000000e+00  0.00000000e+00  0.00000000e+00  0.00000000e+00
  0.00000000e+00  0.00000000e+00  0.00000000e+00  0.00000000e+00
  0.00000000e+00  0.00000000e+00  0.00000000e+00  0.00000000e+00
  0.00000000e+00  0.00000000e+00  0.00000000e+00  0.00000000e+00
  0.00000000e+00  0.00000000e+00  3.00163187e-08 -1.45041719e-20
  0.00000000e+00  0.00000000e+00  0.00000000e+00  9.98513363e-03]","[[ 9.98455315e-06 -1.34065608e-23  3.00163187e-11]
 [-1.34065608e-23  9.98452399e-06 -1.45041719e-23]
 [ 3.00163187e-11 -1.45041719e-23  9.98513363e-06]]",[-9.60078478e-09  2.21403876e-21  4.60520511e-13]
1786946957.787337,9.600688922131971e-09,-2.214016655344143e-21,-4.605205106145149e-13,"[ 9.98425455e-03 -1.36185311e-20  0.00000000e+00  0.00000000e+00
  0.00000000e+00  3.04900309e-08 -1.36185311e-20  9.98422492e-03
  0.00000000e+00  0.00000000e+00  0.00000000e+00 -1.48301237e-20
  0.00000000e+00  0.00000000e+00  0.00000000e+00  0.00000000e+00
  0.00000000e+00  0.00000000e+00  0.00000000e+00  0.00000000e+00
  0.00000000e+00  0.00000000e+00  0.00000000e+00  0.00000000e+00
  0.00000000e+00  0.00000000e+00  0.00000000e+00  0.00000000e+00
  0.00000000e+00  0.00000000e+00  3.04900309e-08 -1.48301237e-20
  0.00000000e+00  0.00000000e+00  0.00000000e+00  9.98484419e-03]","[[ 9.98425455e-06 -1.36185311e-23  3.04900309e-11]
 [-1.36185311e-23  9.98422492e-06 -1.48301237e-23]
 [ 3.04900309e-11 -1.48301237e-23  9.98484419e-06]]",[-9.60078478e-09  2.21403876e-21  4.60520511e-13]
1786946957.8368404,9.600688924040801e-09,-2.2140166557831357e-21,-4.605205106145149e-13,"[ 9.98405550e-03 -1.37636558e-20  0.00000000e+00  0.00000000e+00
  0.00000000e+00  3.08143566e-08 -1.37636558e-20  9.98402556e-03
  0.00000000e+00  0.00000000e+00  0.00000000e+00 -1.49878921e-20
  0.00000000e+00  0.00000000e+00  0.00000000e+00  0.00000000e+00
  0.00000000e+00  0.00000000e+00  0.00000000e+00  0.00000000e+00
  0.00000000e+00  0.00000000e+00  0.00000000e+00  0.00000000e+00
  0.00000000e+00  0.00000000e+00  0.00000000e+00  0.00000000e+00
  0.00000000e+00  0.00000000e+00  3.08143566e-08 -1.49878921e-20
  0.00000000e+00  0.00000000e+00  0.00000000e+00  9.98465141e-03]","[[ 9.98405550e-06 -1.37636558e-23  3.08143566e-11]
 [-1.37636558e-23  9.98402556e-06 -1.49878921e-23]
 [ 3.08143566e-11 -1.49878921e-23  9.98465141e-06]]",[-9.60078478e-09  2.21403876e-21  4.60520511e-13]
1786946957.8884628,9.60068892690561e-09,-2.214016656442378e-21,-4.605205106145149e-13,"[ 9.98375691e-03 -1.39684376e-20  0.00000000e+00  0.00000000e+00
  0.00000000e+00  3.12720049e-08 -1.39684376e-20  9.98372653e-03
  0.00000000e+00  0.00000000e+00  0.00000000e+00 -1.51308023e-20
  0.00000000e+00  0.00000000e+00  0.00000000e+00  0.00000000e+00
  0.00000000e+00  0.00000000e+00  0.00000000e+00  0.00000000e+00
  0.00000000e+00  0.00000000e+00  0.00000000e+00  0.00000000e+00
  0.00000000e+00  0.00000000e+00  0.00000000e+00  0.00000000e+00
  0.00000000e+00  0.00000000e+00  3.12720049e-08 -1.51308023e-20
  0.00000000e+00  0.00000000e+00  0.00000000e+00  9.98436167e-03]","[[ 9.98375691e-06 -1.39684376e-23  3.12720049e-11]
 [-1.39684376e-23  9.98372653e-06 -1.51308023e-23]
 [ 3.12720049e-11 -1.51308023e-23  9.98436167e-06]]",[-9.60078478e-09  2.21403876e-21  4.60520511e-13]
1786946957.939757,9.60068892881607e-09,-2.2140166568821677e-21,-4.605205106145149e-13,"[ 9.98355786e-03 -1.41029724e-20  0.00000000e+00  0.00000000e+00
  0.00000000e+00  3.15726643e-08 -1.41029724e-20  9.98352718e-03
  0.00000000e+00  0.00000000e+00  0.00000000e+00 -1.52600156e-20
  0.00000000e+00  0.00000000e+00  0.00000000e+00  0.00000000e+00
  0.00000000e+00  0.00000000e+00  0.00000000e+00  0.00000000e+00
  0.00000000e+00  0.00000000e+00  0.00000000e+00  0.00000000e+00
  0.00000000e+00  0.00000000e+00  0.00000000e+00  0.00000000e+00
  0.00000000e+00  0.00000000e+00  3.15726643e-08 -1.52600156e-20
  0.00000000e+00  0.00000000e+00  0.00000000e+00  9.98416843e-03]","[[ 9.98355786e-06 -1.41029724e-23  3.15726643e-11]
 [-1.41029724e-23  9.98352718e-06 -1.52600156e-23]
 [ 3.15726643e-11 -1.52600156e-23  9.98416843e-06]]",[-9.60078478e-09  2.21403876e-21  4.60520511e-13]
1786946957.98799,9.600688931680833e-09,-2.2140166575414545e-21,-4.605205106145149e-13,"[ 9.98325941e-03 -1.43570919e-20  0.00000000e+00  0.00000000e+00
  0.00000000e+00  3.21405729e-08 -1.43570919e-20  9.98322818e-03
  0.00000000e+00  0.00000000e+00  0.00000000e+00 -1.55511851e-20
  0.00000000e+00  0.00000000e+00  0.00000000e+00  0.00000000e+00
  0.00000000e+00  0.00000000e+00  0.00000000e+00  0.00000000e+00
  0.00000000e+00  0.00000000e+00  0.00000000e+00  0.00000000e+00
  0.00000000e+00  0.00000000e+00  0.00000000e+00  0.00000000e+00
  0.00000000e+00  0.00000000e+00  3.21405729e-08 -1.55511851e-20
  0.00000000e+00  0.00000000e+00  0.00000000e+00  9.98388097e-03]","[[ 9.98325941e-06 -1.43570919e-23  3.21405729e-11]
 [-1.43570919e-23  9.98322818e-06 -1.55511851e-23]
 [ 3.21405729e-11 -1.55511851e-23  9.98388097e-06]]",[-9.60078478e-09  2.21403876e-21  4.60520511e-13]
1786946958.0387518,9.600688934547001e-09,-2.214016658201428e-21,-4.605205106145149e-13,"[ 9.98296081e-03 -1.45367765e-20  0.00000000e+00  0.00000000e+00
  0.00000000e+00  3.25421333e-08 -1.45367765e-20  9.98292919e-03
  0.00000000e+00  0.00000000e+00  0.00000000e+00 -1.57115861e-20
  0.00000000e+00  0.00000000e+00  0.00000000e+00  0.00000000e+00
  0.00000000e+00  0.00000000e+00  0.00000000e+00  0.00000000e+00
  0.00000000e+00  0.00000000e+00  0.00000000e+00  0.00000000e+00
  0.00000000e+00  0.00000000e+00  0.00000000e+00  0.00000000e+00
  0.00000000e+00  0.00000000e+00  3.25421333e-08 -1.57115861e-20
  0.00000000e+00  0.00000000e+00  0.00000000e+00  9.98359014e-03]","[[ 9.98296081e-06 -1.45367765e-23  3.25421333e-11]
 [-1.45367765e-23  9.98292919e-06 -1.57115861e-23]
 [ 3.25421333e-11 -1.57115861e-23  9.98359014e-06]]",[-9.60078478e-09  2.21403876e-21  4.60520511e-13]
1786946958.090992,9.600688936455247e-09,-2.2140166586402664e-21,-4.605205106145149e-13,"[ 9.98276196e-03 -1.47478557e-20  0.00000000e+00  0.00000000e+00
  0.00000000e+00  3.30138555e-08 -1.47478557e-20  9.98272988e-03
  0.00000000e+00  0.00000000e+00  0.00000000e+00 -1.59552813e-20
  0.00000000e+00  0.00000000e+00  0.00000000e+00  0.00000000e+00
  0.00000000e+00  0.00000000e+00  0.00000000e+00  0.00000000e+00
  0.00000000e+00  0.00000000e+00  0.00000000e+00  0.00000000e+00
  0.00000000e+00  0.00000000e+00  0.00000000e+00  0.00000000e+00
  0.00000000e+00  0.00000000e+00  3.30138555e-08 -1.59552813e-20
  0.00000000e+00  0.00000000e+00  0.00000000e+00  9.98340040e-03]","[[ 9.98276196e-06 -1.47478557e-23  3.30138555e-11]
 [-1.47478557e-23  9.98272988e-06 -1.59552813e-23]
 [ 3.30138555e-11 -1.59552813e-23  9.98340040e-06]]",[-9.60078478e-09  2.21403876e-21  4.60520511e-13]
1786946958.149261,9.600688939320412e-09,-2.2140166592998424e-21,-4.605205106145149e-13,"[ 9.98246335e-03 -1.49072818e-20  0.00000000e+00  0.00000000e+00
  0.00000000e+00  3.33701411e-08 -1.49072818e-20  9.98243092e-03
  0.00000000e+00  0.00000000e+00  0.00000000e+00 -1.61601750e-20
  0.00000000e+00  0.00000000e+00  0.00000000e+00  0.00000000e+00
  0.00000000e+00  0.00000000e+00  0.00000000e+00  0.00000000e+00
  0.00000000e+00  0.00000000e+00  0.00000000e+00  0.00000000e+00
  0.00000000e+00  0.00000000e+00  0.00000000e+00  0.00000000e+00
  0.00000000e+00  0.00000000e+00  3.33701411e-08 -1.61601750e-20
  0.00000000e+00  0.00000000e+00  0.00000000e+00  9.98310868e-03]","[[ 9.98246335e-06 -1.49072818e-23  3.33701411e-11]
 [-1.49072818e-23  9.98243092e-06 -1.61601750e-23]
 [ 3.33701411e-11 -1.61601750e-23  9.98310868e-06]]",[-9.60078478e-09  2.21403876e-21  4.60520511e-13]
1786946958.1913075,9.60068894123033e-09,-2.214016659739494e-21,-4.605205106145149e-13,"[ 9.98226441e-03 -1.50731767e-20  0.00000000e+00  0.00000000e+00
  0.00000000e+00  3.37408844e-08 -1.50731767e-20  9.98223163e-03
  0.00000000e+00  0.00000000e+00  0.00000000e+00 -1.63788113e-20
  0.00000000e+00  0.00000000e+00  0.00000000e+00  0.00000000e+00
  0.00000000e+00  0.00000000e+00  0.00000000e+00  0.00000000e+00
  0.00000000e+00  0.00000000e+00  0.00000000e+00  0.00000000e+00
  0.00000000e+00  0.00000000e+00  0.00000000e+00  0.00000000e+00
  0.00000000e+00  0.00000000e+00  3.37408844e-08 -1.63788113e-20
  0.00000000e+00  0.00000000e+00  0.00000000e+00  9.98291692e-03]","[[ 9.98226441e-06 -1.50731767e-23  3.37408844e-11]
 [-1.50731767e-23  9.98223163e-06 -1.63788113e-23]
 [ 3.37408844e-11 -1.63788113e-23  9.98291692e-06]]",[-9.60078478e-09  2.21403876e-21  4.60520511e-13]
1786946958.2422338,9.600688943141298e-09,-2.2140166601796456e-21,-4.605205106145149e-13,"[ 9.98206537e-03 -1.51846865e-20  0.00000000e+00  0.00000000e+00
  0.00000000e+00  3.39900869e-08 -1.51846865e-20  9.98203234e-03
  0.00000000e+00  0.00000000e+00  0.00000000e+00 -1.65024437e-20
  0.00000000e+00  0.00000000e+00  0.00000000e+00  0.00000000e+00
  0.00000000e+00  0.00000000e+00  0.00000000e+00  0.00000000e+00
  0.00000000e+00  0.00000000e+00  0.00000000e+00  0.00000000e+00
  0.00000000e+00  0.00000000e+00  0.00000000e+00  0.00000000e+00
  0.00000000e+00  0.00000000e+00  3.39900869e-08 -1.65024437e-20
  0.00000000e+00  0.00000000e+00  0.00000000e+00  9.98272270e-03]","[[ 9.98206537e-06 -1.51846865e-23  3.39900869e-11]
 [-1.51846865e-23  9.98203234e-06 -1.65024437e-23]
 [ 3.39900869e-11 -1.65024437e-23  9.98272270e-06]]",[-9.60078478e-09  2.21403876e-21  4.60520511e-13]
1786946958.2948098,9.60068894600578e-09,-2.2140166608390016e-21,-4.605205106145149e-13,"[ 9.98176697e-03 -1.54214117e-20  0.00000000e+00  0.00000000e+00
  0.00000000e+00  3.45191219e-08 -1.54214117e-20  9.98173343e-03
  0.00000000e+00  0.00000000e+00  0.00000000e+00 -1.68318744e-20
  0.00000000e+00  0.00000000e+00  0.00000000e+00  0.00000000e+00
  0.00000000e+00  0.00000000e+00  0.00000000e+00  0.00000000e+00
  0.00000000e+00  0.00000000e+00  0.00000000e+00  0.00000000e+00
  0.00000000e+00  0.00000000e+00  0.00000000e+00  0.00000000e+00
  0.00000000e+00  0.00000000e+00  3.45191219e-08 -1.68318744e-20
  0.00000000e+00  0.00000000e+00  0.00000000e+00  9.98243453e-03]","[[ 9.98176697e-06 -1.54214117e-23  3.45191219e-11]
 [-1.54214117e-23  9.98173343e-06 -1.68318744e-23]
 [ 3.45191219e-11 -1.68318744e-23  9.98243453e-06]]",[-9.60078478e-09  2.21403876e-21  4.60520511e-13]
1786946958.3554633,9.600688947915163e-09,-2.2140166612784673e-21,-4.605205106145149e-13,"[ 9.98156799e-03 -1.55560232e-20  0.00000000e+00  0.00000000e+00
  0.00000000e+00  3.48199527e-08 -1.55560232e-20  9.98153416e-03
  0.00000000e+00  0.00000000e+00  0.00000000e+00 -1.69568425e-20
  0.00000000e+00  0.00000000e+00  0.00000000e+00  0.00000000e+00
  0.00000000e+00  0.00000000e+00  0.00000000e+00  0.00000000e+00
  0.00000000e+00  0.00000000e+00  0.00000000e+00  0.00000000e+00
  0.00000000e+00  0.00000000e+00  0.00000000e+00  0.00000000e+00
  0.00000000e+00  0.00000000e+00  3.48199527e-08 -1.69568425e-20
  0.00000000e+00  0.00000000e+00  0.00000000e+00  9.98224137e-03]","[[ 9.98156799e-06 -1.55560232e-23  3.48199527e-11]
 [-1.55560232e-23  9.98153416e-06 -1.69568425e-23]
 [ 3.48199527e-11 -1.69568425e-23  9.98224137e-06]]",[-9.60078478e-09  2.21403876e-21  4.60520511e-13]
1786946958.387433,9.60068894886086e-09,-2.214016661494066e-21,-4.605205106145149e-13,"[ 9.98146936e-03 -1.60134432e-20  0.00000000e+00  0.00000000e+00
  0.00000000e+00  3.58422054e-08 -1.60134432e-20  9.98143453e-03
  0.00000000e+00  0.00000000e+00  0.00000000e+00 -1.73302405e-20
  0.00000000e+00  0.00000000e+00  0.00000000e+00  0.00000000e+00
  0.00000000e+00  0.00000000e+00  0.00000000e+00  0.00000000e+00
  0.00000000e+00  0.00000000e+00  0.00000000e+00  0.00000000e+00
  0.00000000e+00  0.00000000e+00  0.00000000e+00  0.00000000e+00
  0.00000000e+00  0.00000000e+00  3.58422054e-08 -1.73302405e-20
  0.00000000e+00  0.00000000e+00  0.00000000e+00  9.98216250e-03]","[[ 9.98146936e-06 -1.60134432e-23  3.58422054e-11]
 [-1.60134432e-23  9.98143453e-06 -1.73302405e-23]
 [ 3.58422054e-11 -1.73302405e-23  9.98216250e-06]]",[-9.60078478e-09  2.21403876e-21  4.60520511e-13]
1786946958.4371915,9.600688951727913e-09,-2.214016662154682e-21,-4.605205106145149e-13,"[ 9.98117079e-03 -1.61567845e-20  0.00000000e+00  0.00000000e+00
  0.00000000e+00  3.61625450e-08 -1.61567845e-20  9.98113565e-03
  0.00000000e+00  0.00000000e+00  0.00000000e+00 -1.74044171e-20
  0.00000000e+00  0.00000000e+00  0.00000000e+00  0.00000000e+00
  0.00000000e+00  0.00000000e+00  0.00000000e+00  0.00000000e+00
  0.00000000e+00  0.00000000e+00  0.00000000e+00  0.00000000e+00
  0.00000000e+00  0.00000000e+00  0.00000000e+00  0.00000000e+00
  0.00000000e+00  0.00000000e+00  3.61625450e-08 -1.74044171e-20
  0.00000000e+00  0.00000000e+00  0.00000000e+00  9.98187013e-03]","[[ 9.98117079e-06 -1.61567845e-23  3.61625450e-11]
 [-1.61567845e-23  9.98113565e-06 -1.74044171e-23]
 [ 3.61625450e-11 -1.74044171e-23  9.98187013e-06]]",[-9.60078478e-09  2.21403876e-21  4.60520511e-13]
1786946958.5034547,9.600688954592984e-09,-2.2140166628144257e-21,-4.605205106145149e-13,"[ 9.98087240e-03 -1.63707054e-20  0.00000000e+00  0.00000000e+00
  0.00000000e+00  3.66406164e-08 -1.63707054e-20  9.98083679e-03
  0.00000000e+00  0.00000000e+00  0.00000000e+00 -1.77074157e-20
  0.00000000e+00  0.00000000e+00  0.00000000e+00  0.00000000e+00
  0.00000000e+00  0.00000000e+00  0.00000000e+00  0.00000000e+00
  0.00000000e+00  0.00000000e+00  0.00000000e+00  0.00000000e+00
  0.00000000e+00  0.00000000e+00  0.00000000e+00  0.00000000e+00
  0.00000000e+00  0.00000000e+00  3.66406164e-08 -1.77074157e-20
  0.00000000e+00  0.00000000e+00  0.00000000e+00  9.98158098e-03]","[[ 9.98087240e-06 -1.63707054e-23  3.66406164e-11]
 [-1.63707054e-23  9.98083679e-06 -1.77074157e-23]
 [ 3.66406164e-11 -1.77074157e-23  9.98158098e-06]]",[-9.60078478e-09  2.21403876e-21  4.60520511e-13]
1786946958.539619,9.600688957456772e-09,-2.214016663473617e-21,-4.605205106145149e-13,"[ 9.98057411e-03 -1.66273088e-20  0.00000000e+00  0.00000000e+00
  0.00000000e+00  3.72140766e-08 -1.66273088e-20  9.98053795e-03
  0.00000000e+00  0.00000000e+00  0.00000000e+00 -1.79560622e-20
  0.00000000e+00  0.00000000e+00  0.00000000e+00  0.00000000e+00
  0.00000000e+00  0.00000000e+00  0.00000000e+00  0.00000000e+00
  0.00000000e+00  0.00000000e+00  0.00000000e+00  0.00000000e+00
  0.00000000e+00  0.00000000e+00  0.00000000e+00  0.00000000e+00
  0.00000000e+00  0.00000000e+00  3.72140766e-08 -1.79560622e-20
  0.00000000e+00  0.00000000e+00  0.00000000e+00  9.98129378e-03]","[[ 9.98057411e-06 -1.66273088e-23  3.72140766e-11]
 [-1.66273088e-23  9.98053795e-06 -1.79560622e-23]
 [ 3.72140766e-11 -1.79560622e-23  9.98129378e-06]]",[-9.60078478e-09  2.21403876e-21  4.60520511e-13]
1786946958.587008,9.600688959366287e-09,-2.2140166639132485e-21,-4.605205106145149e-13,"[ 9.98037519e-03 -1.67651451e-20  0.00000000e+00  0.00000000e+00
  0.00000000e+00  3.75221139e-08 -1.67651451e-20  9.98033873e-03
  0.00000000e+00  0.00000000e+00  0.00000000e+00 -1.81351209e-20
  0.00000000e+00  0.00000000e+00  0.00000000e+00  0.00000000e+00
  0.00000000e+00  0.00000000e+00  0.00000000e+00  0.00000000e+00
  0.00000000e+00  0.00000000e+00  0.00000000e+00  0.00000000e+00
  0.00000000e+00  0.00000000e+00  0.00000000e+00  0.00000000e+00
  0.00000000e+00  0.00000000e+00  3.75221139e-08 -1.81351209e-20
  0.00000000e+00  0.00000000e+00  0.00000000e+00  9.98110082e-03]","[[ 9.98037519e-06 -1.67651451e-23  3.75221139e-11]
 [-1.67651451e-23  9.98033873e-06 -1.81351209e-23]
 [ 3.75221139e-11 -1.81351209e-23  9.98110082e-06]]",[-9.60078478e-09  2.21403876e-21  4.60520511e-13]
1786946958.6447883,9.600688961274424e-09,-2.2140166643522654e-21,-4.605205106145149e-13,"[ 9.98017640e-03 -1.69602850e-20  0.00000000e+00  0.00000000e+00
  0.00000000e+00  3.79582141e-08 -1.69602850e-20  9.98013952e-03
  0.00000000e+00  0.00000000e+00  0.00000000e+00 -1.84298910e-20
  0.00000000e+00  0.00000000e+00  0.00000000e+00  0.00000000e+00
  0.00000000e+00  0.00000000e+00  0.00000000e+00  0.00000000e+00
  0.00000000e+00  0.00000000e+00  0.00000000e+00  0.00000000e+00
  0.00000000e+00  0.00000000e+00  0.00000000e+00  0.00000000e+00
  0.00000000e+00  0.00000000e+00  3.79582141e-08 -1.84298910e-20
  0.00000000e+00  0.00000000e+00  0.00000000e+00  9.98091047e-03]","[[ 9.98017640e-06 -1.69602850e-23  3.79582141e-11]
 [-1.69602850e-23  9.98013952e-06 -1.84298910e-23]
 [ 3.79582141e-11 -1.84298910e-23  9.98091047e-06]]",[-9.60078478e-09  2.21403876e-21  4.60520511e-13]
1786946958.6872532,9.600688963181363e-09,-2.2140166647907466e-21,-4.605205106145149e-13,"[ 9.97997778e-03 -1.72270078e-20  0.00000000e+00  0.00000000e+00
  0.00000000e+00  3.85542907e-08 -1.72270078e-20  9.97994032e-03
  0.00000000e+00  0.00000000e+00  0.00000000e+00 -1.86409018e-20
  0.00000000e+00  0.00000000e+00  0.00000000e+00  0.00000000e+00
  0.00000000e+00  0.00000000e+00  0.00000000e+00  0.00000000e+00
  0.00000000e+00  0.00000000e+00  0.00000000e+00  0.00000000e+00
  0.00000000e+00  0.00000000e+00  0.00000000e+00  0.00000000e+00
  0.00000000e+00  0.00000000e+00  3.85542907e-08 -1.86409018e-20
  0.00000000e+00  0.00000000e+00  0.00000000e+00  9.98072337e-03]","[[ 9.97997778e-06 -1.72270078e-23  3.85542907e-11]
 [-1.72270078e-23  9.97994032e-06 -1.86409018e-23]
 [ 3.85542907e-11 -1.86409018e-23  9.98072337e-06]]",[-9.60078478e-09  2.21403876e-21  4.60520511e-13]
1786946958.7371085,9.600688966043896e-09,-2.214016665449477e-21,-4.605205106145149e-13,"[ 9.97967948e-03 -1.74520818e-20  0.00000000e+00  0.00000000e+00
  0.00000000e+00  3.90572883e-08 -1.74520818e-20  9.97964153e-03
  0.00000000e+00  0.00000000e+00  0.00000000e+00 -1.88448167e-20
  0.00000000e+00  0.00000000e+00  0.00000000e+00  0.00000000e+00
  0.00000000e+00  0.00000000e+00  0.00000000e+00  0.00000000e+00
  0.00000000e+00  0.00000000e+00  0.00000000e+00  0.00000000e+00
  0.00000000e+00  0.00000000e+00  0.00000000e+00  0.00000000e+00
  0.00000000e+00  0.00000000e+00  3.90572883e-08 -1.88448167e-20
  0.00000000e+00  0.00000000e+00  0.00000000e+00  9.98043480e-03]","[[ 9.97967948e-06 -1.74520818e-23  3.90572883e-11]
 [-1.74520818e-23  9.97964153e-06 -1.88448167e-23]
 [ 3.90572883e-11 -1.88448167e-23  9.98043480e-06]]",[-9.60078478e-09  2.21403876e-21  4.60520511e-13]
1786946958.8011692,9.600688967953436e-09,-2.2140166658891992e-21,-4.605205106145149e-13,"[ 9.97948057e-03 -1.75758616e-20  0.00000000e+00  0.00000000e+00
  0.00000000e+00  3.93339115e-08 -1.75758616e-20  9.97944235e-03
  0.00000000e+00  0.00000000e+00  0.00000000e+00 -1.90333711e-20
  0.00000000e+00  0.00000000e+00  0.00000000e+00  0.00000000e+00
  0.00000000e+00  0.00000000e+00  0.00000000e+00  0.00000000e+00
  0.00000000e+00  0.00000000e+00  0.00000000e+00  0.00000000e+00
  0.00000000e+00  0.00000000e+00  0.00000000e+00  0.00000000e+00
  0.00000000e+00  0.00000000e+00  3.93339115e-08 -1.90333711e-20
  0.00000000e+00  0.00000000e+00  0.00000000e+00  9.98024124e-03]","[[ 9.97948057e-06 -1.75758616e-23  3.93339115e-11]
 [-1.75758616e-23  9.97944235e-06 -1.90333711e-23]
 [ 3.93339115e-11 -1.90333711e-23  9.98024124e-06]]",[-9.60078478e-09  2.21403876e-21  4.60520511e-13]
1786946958.8373046,9.600688970816189e-09,-2.2140166665481e-21,-4.605205106145149e-13,"[ 9.97918233e-03 -1.78164740e-20  0.00000000e+00  0.00000000e+00
  0.00000000e+00  3.98716339e-08 -1.78164740e-20  9.97914359e-03
  0.00000000e+00  0.00000000e+00  0.00000000e+00 -1.93428741e-20
  0.00000000e+00  0.00000000e+00  0.00000000e+00  0.00000000e+00
  0.00000000e+00  0.00000000e+00  0.00000000e+00  0.00000000e+00
  0.00000000e+00  0.00000000e+00  0.00000000e+00  0.00000000e+00
  0.00000000e+00  0.00000000e+00  0.00000000e+00  0.00000000e+00
  0.00000000e+00  0.00000000e+00  3.98716339e-08 -1.93428741e-20
  0.00000000e+00  0.00000000e+00  0.00000000e+00  9.97995340e-03]","[[ 9.97918233e-06 -1.78164740e-23  3.98716339e-11]
 [-1.78164740e-23  9.97914359e-06 -1.93428741e-23]
 [ 3.98716339e-11 -1.93428741e-23  9.97995340e-06]]",[-9.60078478e-09  2.21403876e-21  4.60520511e-13]
1786946958.8970554,9.600688972725377e-09,-2.2140166669877045e-21,-4.605205106145149e-13,"[ 9.97898347e-03 -1.79570424e-20  0.00000000e+00  0.00000000e+00
  0.00000000e+00  4.01857772e-08 -1.79570424e-20  9.97894443e-03
  0.00000000e+00  0.00000000e+00  0.00000000e+00 -1.94814687e-20
  0.00000000e+00  0.00000000e+00  0.00000000e+00  0.00000000e+00
  0.00000000e+00  0.00000000e+00  0.00000000e+00  0.00000000e+00
  0.00000000e+00  0.00000000e+00  0.00000000e+00  0.00000000e+00
  0.00000000e+00  0.00000000e+00  0.00000000e+00  0.00000000e+00
  0.00000000e+00  0.00000000e+00  4.01857772e-08 -1.94814687e-20
  0.00000000e+00  0.00000000e+00  0.00000000e+00  9.97976062e-03]","[[ 9.97898347e-06 -1.79570424e-23  4.01857772e-11]
 [-1.79570424e-23  9.97894443e-06 -1.94814687e-23]
 [ 4.01857772e-11 -1.94814687e-23  9.97976062e-06]]",[-9.60078478e-09  2.21403876e-21  4.60520511e-13]
1786946958.937542,9.600688974633413e-09,-2.214016667426796e-21,-4.605205106145149e-13,"[ 9.97878474e-03 -1.81492108e-20  0.00000000e+00  0.00000000e+00
  0.00000000e+00  4.06152380e-08 -1.81492108e-20  9.97874527e-03
  0.00000000e+00  0.00000000e+00  0.00000000e+00 -1.96185927e-20
  0.00000000e+00  0.00000000e+00  0.00000000e+00  0.00000000e+00
  0.00000000e+00  0.00000000e+00  0.00000000e+00  0.00000000e+00
  0.00000000e+00  0.00000000e+00  0.00000000e+00  0.00000000e+00
  0.00000000e+00  0.00000000e+00  0.00000000e+00  0.00000000e+00
  0.00000000e+00  0.00000000e+00  4.06152380e-08 -1.96185927e-20
  0.00000000e+00  0.00000000e+00  0.00000000e+00  9.97957019e-03]","[[ 9.97878474e-06 -1.81492108e-23  4.06152380e-11]
 [-1.81492108e-23  9.97874527e-06 -1.96185927e-23]
 [ 4.06152380e-11 -1.96185927e-23  9.97957019e-06]]",[-9.60078478e-09  2.21403876e-21  4.60520511e-13]
1786946958.988258,9.60068897749613e-09,-2.2140166680857724e-21,-4.605205106145149e-13,"[ 9.97848638e-03 -1.83173413e-20  0.00000000e+00  0.00000000e+00
  0.00000000e+00  4.09909761e-08 -1.83173413e-20  9.97844656e-03
  0.00000000e+00  0.00000000e+00  0.00000000e+00 -1.98565467e-20
  0.00000000e+00  0.00000000e+00  0.00000000e+00  0.00000000e+00
  0.00000000e+00  0.00000000e+00  0.00000000e+00  0.00000000e+00
  0.00000000e+00  0.00000000e+00  0.00000000e+00  0.00000000e+00
  0.00000000e+00  0.00000000e+00  0.00000000e+00  0.00000000e+00
  0.00000000e+00  0.00000000e+00  4.09909761e-08 -1.98565467e-20
  0.00000000e+00  0.00000000e+00  0.00000000e+00  9.97927910e-03]","[[ 9.97848638e-06 -1.83173413e-23  4.09909761e-11]
 [-1.83173413e-23  9.97844656e-06 -1.98565467e-23]
 [ 4.09909761e-11 -1.98565467e-23  9.97927910e-06]]",[-9.60078478e-09  2.21403876e-21  4.60520511e-13]
1786946959.0380936,9.600688980359398e-09,-2.2140166687450434e-21,-4.605205106145149e-13,"[ 9.97818816e-03 -1.85378799e-20  0.00000000e+00  0.00000000e+00
  0.00000000e+00  4.14838375e-08 -1.85378799e-20  9.97814786e-03
  0.00000000e+00  0.00000000e+00  0.00000000e+00 -2.00886477e-20
  0.00000000e+00  0.00000000e+00  0.00000000e+00  0.00000000e+00
  0.00000000e+00  0.00000000e+00  0.00000000e+00  0.00000000e+00
  0.00000000e+00  0.00000000e+00  0.00000000e+00  0.00000000e+00
  0.00000000e+00  0.00000000e+00  0.00000000e+00  0.00000000e+00
  0.00000000e+00  0.00000000e+00  4.14838375e-08 -2.00886477e-20
  0.00000000e+00  0.00000000e+00  0.00000000e+00  9.97899041e-03]","[[ 9.97818816e-06 -1.85378799e-23  4.14838375e-11]
 [-1.85378799e-23  9.97814786e-06 -2.00886477e-23]
 [ 4.14838375e-11 -2.00886477e-23  9.97899041e-06]]",[-9.60078478e-09  2.21403876e-21  4.60520511e-13]
1786946959.087136,9.600688982266503e-09,-2.214016669183777e-21,-4.605205106145149e-13,"[ 9.97798942e-03 -1.87114612e-20  0.00000000e+00  0.00000000e+00
  0.00000000e+00  4.18717586e-08 -1.87114612e-20  9.97794873e-03
  0.00000000e+00  0.00000000e+00  0.00000000e+00 -2.02906890e-20
  0.00000000e+00  0.00000000e+00  0.00000000e+00  0.00000000e+00
  0.00000000e+00  0.00000000e+00  0.00000000e+00  0.00000000e+00
  0.00000000e+00  0.00000000e+00  0.00000000e+00  0.00000000e+00
  0.00000000e+00  0.00000000e+00  0.00000000e+00  0.00000000e+00
  0.00000000e+00  0.00000000e+00  4.18717586e-08 -2.02906890e-20
  0.00000000e+00  0.00000000e+00  0.00000000e+00  9.97879917e-03]","[[ 9.97798942e-06 -1.87114612e-23  4.18717586e-11]
 [-1.87114612e-23  9.97794873e-06 -2.02906890e-23]
 [ 4.18717586e-11 -2.02906890e-23  9.97879917e-06]]",[-9.60078478e-09  2.21403876e-21  4.60520511e-13]
1786946959.1374798,9.6006889851295e-09,-2.214016669842989e-21,-4.605205106145149e-13,"[ 9.97769120e-03 -1.89214773e-20  0.00000000e+00  0.00000000e+00
  0.00000000e+00  4.23411045e-08 -1.89214773e-20  9.97765006e-03
  0.00000000e+00  0.00000000e+00  0.00000000e+00 -2.04766108e-20
  0.00000000e+00  0.00000000e+00  0.00000000e+00  0.00000000e+00
  0.00000000e+00  0.00000000e+00  0.00000000e+00  0.00000000e+00
  0.00000000e+00  0.00000000e+00  0.00000000e+00  0.00000000e+00
  0.00000000e+00  0.00000000e+00  0.00000000e+00  0.00000000e+00
  0.00000000e+00  0.00000000e+00  4.23411045e-08 -2.04766108e-20
  0.00000000e+00  0.00000000e+00  0.00000000e+00  9.97851003e-03]","[[ 9.97769120e-06 -1.89214773e-23  4.23411045e-11]
 [-1.89214773e-23  9.97765006e-06 -2.04766108e-23]
 [ 4.23411045e-11 -2.04766108e-23  9.97851003e-06]]",[-9.60078478e-09  2.21403876e-21  4.60520511e-13]
1786946959.1989496,9.600688987036114e-09,-2.214016670281539e-21,-4.605205106145149e-13,"[ 9.97749249e-03 -1.90989575e-20  0.00000000e+00  0.00000000e+00
  0.00000000e+00  4.27377392e-08 -1.90989575e-20  9.97745096e-03
  0.00000000e+00  0.00000000e+00  0.00000000e+00 -2.06425675e-20
  0.00000000e+00  0.00000000e+00  0.00000000e+00  0.00000000e+00
  0.00000000e+00  0.00000000e+00  0.00000000e+00  0.00000000e+00
  0.00000000e+00  0.00000000e+00  0.00000000e+00  0.00000000e+00
  0.00000000e+00  0.00000000e+00  0.00000000e+00  0.00000000e+00
  0.00000000e+00  0.00000000e+00  4.27377392e-08 -2.06425675e-20
  0.00000000e+00  0.00000000e+00  0.00000000e+00  9.97831898e-03]","[[ 9.97749249e-06 -1.90989575e-23  4.27377392e-11]
 [-1.90989575e-23  9.97745096e-06 -2.06425675e-23]
 [ 4.27377392e-11 -2.06425675e-23  9.97831898e-06]]",[-9.60078478e-09  2.21403876e-21  4.60520511e-13]
1786946959.241032,9.600688989899155e-09,-2.2140166709408345e-21,-4.605205106145149e-13,"[ 9.97719428e-03 -1.92972955e-20  0.00000000e+00  0.00000000e+00
  0.00000000e+00  4.31809859e-08 -1.92972955e-20  9.97715232e-03
  0.00000000e+00  0.00000000e+00  0.00000000e+00 -2.08942552e-20
  0.00000000e+00  0.00000000e+00  0.00000000e+00  0.00000000e+00
  0.00000000e+00  0.00000000e+00  0.00000000e+00  0.00000000e+00
  0.00000000e+00  0.00000000e+00  0.00000000e+00  0.00000000e+00
  0.00000000e+00  0.00000000e+00  0.00000000e+00  0.00000000e+00
  0.00000000e+00  0.00000000e+00  4.31809859e-08 -2.08942552e-20
  0.00000000e+00  0.00000000e+00  0.00000000e+00  9.97802935e-03]","[[ 9.97729379e-06 -1.92840914e-23  4.31514783e-11]
 [-1.92840914e-23  9.97725187e-06 -2.08732383e-23]
 [ 4.31514783e-11 -2.08732383e-23  9.97812829e-06]]",[-9.60078478e-09  2.21403876e-21  4.60520511e-13]
1786946959.2876928,9.600688991807068e-09,-2.2140166713800304e-21,-4.605205106145149e-13,"[ 9.97699550e-03 -1.94357028e-20  0.00000000e+00  0.00000000e+00
  0.00000000e+00  4.34902990e-08 -1.94357028e-20  9.97695324e-03
  0.00000000e+00  0.00000000e+00  0.00000000e+00 -2.10830465e-20
  0.00000000e+00  0.00000000e+00  0.00000000e+00  0.00000000e+00
  0.00000000e+00  0.00000000e+00  0.00000000e+00  0.00000000e+00
  0.00000000e+00  0.00000000e+00  0.00000000e+00  0.00000000e+00
  0.00000000e+00  0.00000000e+00  0.00000000e+00  0.00000000e+00
  0.00000000e+00  0.00000000e+00  4.34902990e-08 -2.10830465e-20
  0.00000000e+00  0.00000000e+00  0.00000000e+00  9.97783654e-03]","[[ 9.97699550e-06 -1.94357028e-23  4.34902990e-11]
 [-1.94357028e-23  9.97695324e-06 -2.10830465e-23]
 [ 4.34902990e-11 -2.10830465e-23  9.97783654e-06]]",[-9.60078478e-09  2.21403876e-21  4.60520511e-13]
1786946959.337231,9.600688993714939e-09,-2.2140166718192207e-21,-4.605205106145149e-13,"[ 9.97679674e-03 -1.95819614e-20  0.00000000e+00  0.00000000e+00
  0.00000000e+00  4.38171586e-08 -1.95819614e-20  9.97675416e-03
  0.00000000e+00  0.00000000e+00  0.00000000e+00 -2.12689717e-20
  0.00000000e+00  0.00000000e+00  0.00000000e+00  0.00000000e+00
  0.00000000e+00  0.00000000e+00  0.00000000e+00  0.00000000e+00
  0.00000000e+00  0.00000000e+00  0.00000000e+00  0.00000000e+00
  0.00000000e+00  0.00000000e+00  0.00000000e+00  0.00000000e+00
  0.00000000e+00  0.00000000e+00  4.38171586e-08 -2.12689717e-20
  0.00000000e+00  0.00000000e+00  0.00000000e+00  9.97764411e-03]","[[ 9.97679674e-06 -1.95819614e-23  4.38171586e-11]
 [-1.95819614e-23  9.97675416e-06 -2.12689717e-23]
 [ 4.38171586e-11 -2.12689717e-23  9.97764411e-06]]",[-9.60078478e-09  2.21403876e-21  4.60520511e-13]
1786946959.387005,9.600688996576516e-09,-2.2140166724779335e-21,-4.605205106145149e-13,"[ 9.97649863e-03 -1.98084773e-20  0.00000000e+00  0.00000000e+00
  0.00000000e+00  4.43233777e-08 -1.98084773e-20  9.97645556e-03
  0.00000000e+00  0.00000000e+00  0.00000000e+00 -2.15636652e-20
  0.00000000e+00  0.00000000e+00  0.00000000e+00  0.00000000e+00
  0.00000000e+00  0.00000000e+00  0.00000000e+00  0.00000000e+00
  0.00000000e+00  0.00000000e+00  0.00000000e+00  0.00000000e+00
  0.00000000e+00  0.00000000e+00  0.00000000e+00  0.00000000e+00
  0.00000000e+00  0.00000000e+00  4.43233777e-08 -2.15636652e-20
  0.00000000e+00  0.00000000e+00  0.00000000e+00  9.97735579e-03]","[[ 9.97649863e-06 -1.98084773e-23  4.43233777e-11]
 [-1.98084773e-23  9.97645556e-06 -2.15636652e-23]
 [ 4.43233777e-11 -2.15636652e-23  9.97735579e-06]]",[-9.60078478e-09  2.21403876e-21  4.60520511e-13]
1786946959.4371383,9.600688999439133e-09,-2.214016673137165e-21,-4.605205106145149e-13,"[ 9.97620051e-03 -2.00212301e-20  0.00000000e+00  0.00000000e+00
  0.00000000e+00  4.47988389e-08 -2.00212301e-20  9.97615698e-03
  0.00000000e+00  0.00000000e+00  0.00000000e+00 -2.18047855e-20
  0.00000000e+00  0.00000000e+00  0.00000000e+00  0.00000000e+00
  0.00000000e+00  0.00000000e+00  0.00000000e+00  0.00000000e+00
  0.00000000e+00  0.00000000e+00  0.00000000e+00  0.00000000e+00
  0.00000000e+00  0.00000000e+00  0.00000000e+00  0.00000000e+00
  0.00000000e+00  0.00000000e+00  4.47988389e-08 -2.18047855e-20
  0.00000000e+00  0.00000000e+00  0.00000000e+00  9.97706687e-03]","[[ 9.97629992e-06 -1.99685714e-23  4.46811576e-11]
 [-1.99685714e-23  9.97625651e-06 -2.17090970e-23]
 [ 4.46811576e-11 -2.17090970e-23  9.97716400e-06]]",[-9.60078478e-09  2.21403876e-21  4.60520511e-13]
1786946959.5064352,9.600689001345885e-09,-2.2140166735759103e-21,-4.605205106145149e-13,"[ 9.97600178e-03 -2.01635953e-20  0.00000000e+00  0.00000000e+00
  0.00000000e+00  4.51169979e-08 -2.01635953e-20  9.97595794e-03
  0.00000000e+00  0.00000000e+00  0.00000000e+00 -2.19523835e-20
  0.00000000e+00  0.00000000e+00  0.00000000e+00  0.00000000e+00
  0.00000000e+00  0.00000000e+00  0.00000000e+00  0.00000000e+00
  0.00000000e+00  0.00000000e+00  0.00000000e+00  0.00000000e+00
  0.00000000e+00  0.00000000e+00  0.00000000e+00  0.00000000e+00
  0.00000000e+00  0.00000000e+00  4.51169979e-08 -2.19523835e-20
  0.00000000e+00  0.00000000e+00  0.00000000e+00  9.97687429e-03]","[[ 9.97600178e-06 -2.01635953e-23  4.51169979e-11]
 [-2.01635953e-23  9.97595794e-06 -2.19523835e-23]
 [ 4.51169979e-11 -2.19523835e-23  9.97687429e-06]]",[-9.60078478e-09  2.21403876e-21  4.60520511e-13]
1786946959.537016,9.600689004206198e-09,-2.2140166742341453e-21,-4.605205106145149e-13,"[ 9.97570382e-03 -2.04356807e-20  0.00000000e+00  0.00000000e+00
  0.00000000e+00  4.57250582e-08 -2.04356807e-20  9.97565939e-03
  0.00000000e+00  0.00000000e+00  0.00000000e+00 -2.21398131e-20
  0.00000000e+00  0.00000000e+00  0.00000000e+00  0.00000000e+00
  0.00000000e+00  0.00000000e+00  0.00000000e+00  0.00000000e+00
  0.00000000e+00  0.00000000e+00  0.00000000e+00  0.00000000e+00
  0.00000000e+00  0.00000000e+00  0.00000000e+00  0.00000000e+00
  0.00000000e+00  0.00000000e+00  4.57250582e-08 -2.21398131e-20
  0.00000000e+00  0.00000000e+00  0.00000000e+00  9.97658809e-03]","[[ 9.97570382e-06 -2.04356807e-23  4.57250582e-11]
 [-2.04356807e-23  9.97565939e-06 -2.21398131e-23]
 [ 4.57250582e-11 -2.21398131e-23  9.97658809e-06]]",[-9.60078478e-09  2.21403876e-21  4.60520511e-13]
1786946959.5920982,9.600689006113665e-09,-2.214016674673265e-21,-4.605205106145149e-13,"[ 9.97550514e-03 -2.05946838e-20  0.00000000e+00  0.00000000e+00
  0.00000000e+00  4.60804001e-08 -2.05946838e-20  9.97546037e-03
  0.00000000e+00  0.00000000e+00  0.00000000e+00 -2.22785866e-20
  0.00000000e+00  0.00000000e+00  0.00000000e+00  0.00000000e+00
  0.00000000e+00  0.00000000e+00  0.00000000e+00  0.00000000e+00
  0.00000000e+00  0.00000000e+00  0.00000000e+00  0.00000000e+00
  0.00000000e+00  0.00000000e+00  0.00000000e+00  0.00000000e+00
  0.00000000e+00  0.00000000e+00  4.60804001e-08 -2.22785866e-20
  0.00000000e+00  0.00000000e+00  0.00000000e+00  9.97639628e-03]","[[ 9.97550514e-06 -2.05946838e-23  4.60804001e-11]
 [-2.05946838e-23  9.97546037e-06 -2.22785866e-23]
 [ 4.60804001e-11 -2.22785866e-23  9.97639628e-06]]",[-9.60078478e-09  2.21403876e-21  4.60520511e-13]
1786946959.6417158,9.600689007065828e-09,-2.2140166748921077e-21,-4.605205106145149e-13,"[ 9.97540578e-03 -2.06621526e-20  0.00000000e+00  0.00000000e+00
  0.00000000e+00  4.62311796e-08 -2.06621526e-20  9.97536086e-03
  0.00000000e+00  0.00000000e+00  0.00000000e+00 -2.23587356e-20
  0.00000000e+00  0.00000000e+00  0.00000000e+00  0.00000000e+00
  0.00000000e+00  0.00000000e+00  0.00000000e+00  0.00000000e+00
  0.00000000e+00  0.00000000e+00  0.00000000e+00  0.00000000e+00
  0.00000000e+00  0.00000000e+00  0.00000000e+00  0.00000000e+00
  0.00000000e+00  0.00000000e+00  4.62311796e-08 -2.23587356e-20
  0.00000000e+00  0.00000000e+00  0.00000000e+00  9.97629983e-03]","[[ 9.97540578e-06 -2.06621526e-23  4.62311796e-11]
 [-2.06621526e-23  9.97536086e-06 -2.23587356e-23]
 [ 4.62311796e-11 -2.23587356e-23  9.97629983e-06]]",[-9.60078478e-09  2.21403876e-21  4.60520511e-13]
1786946959.690235,9.60068901087958e-09,-2.214016675769874e-21,-4.605205106145149e-13,"[ 9.97500844e-03 -2.09722368e-20  0.00000000e+00  0.00000000e+00
  0.00000000e+00  4.69241591e-08 -2.09722368e-20  9.97496284e-03
  0.00000000e+00  0.00000000e+00  0.00000000e+00 -2.26375172e-20
  0.00000000e+00  0.00000000e+00  0.00000000e+00  0.00000000e+00
  0.00000000e+00  0.00000000e+00  0.00000000e+00  0.00000000e+00
  0.00000000e+00  0.00000000e+00  0.00000000e+00  0.00000000e+00
  0.00000000e+00  0.00000000e+00  0.00000000e+00  0.00000000e+00
  0.00000000e+00  0.00000000e+00  4.69241591e-08 -2.26375172e-20
  0.00000000e+00  0.00000000e+00  0.00000000e+00  9.97591589e-03]","[[ 9.97500844e-06 -2.09722368e-23  4.69241591e-11]
 [-2.09722368e-23  9.97496284e-06 -2.26375172e-23]
 [ 4.69241591e-11 -2.26375172e-23  9.97591589e-06]]",[-9.60078478e-09  2.21403876e-21  4.60520511e-13]
1786946959.7377305,9.600689013739129e-09,-2.2140166764278898e-21,-4.605205106145149e-13,"[ 9.97471045e-03 -2.12039833e-20  0.00000000e+00  0.00000000e+00
  0.00000000e+00  4.74420685e-08 -2.12039833e-20  9.97466435e-03
  0.00000000e+00  0.00000000e+00  0.00000000e+00 -2.28495224e-20
  0.00000000e+00  0.00000000e+00  0.00000000e+00  0.00000000e+00
  0.00000000e+00  0.00000000e+00  0.00000000e+00  0.00000000e+00
  0.00000000e+00  0.00000000e+00  0.00000000e+00  0.00000000e+00
  0.00000000e+00  0.00000000e+00  0.00000000e+00  0.00000000e+00
  0.00000000e+00  0.00000000e+00  4.74420685e-08 -2.28495224e-20
  0.00000000e+00  0.00000000e+00  0.00000000e+00  9.97562792e-03]","[[ 9.97471045e-06 -2.12039833e-23  4.74420685e-11]
 [-2.12039833e-23  9.97466435e-06 -2.28495224e-23]
 [ 4.74420685e-11 -2.28495224e-23  9.97562792e-06]]",[-9.60078478e-09  2.21403876e-21  4.60520511e-13]
1786946959.7903233,9.60068901469388e-09,-2.2140166766479577e-21,-4.605205106145149e-13,"[ 9.97461107e-03 -2.12569167e-20  0.00000000e+00  0.00000000e+00
  0.00000000e+00  4.75603640e-08 -2.12569167e-20  9.97456486e-03
  0.00000000e+00  0.00000000e+00  0.00000000e+00 -2.29264735e-20
  0.00000000e+00  0.00000000e+00  0.00000000e+00  0.00000000e+00
  0.00000000e+00  0.00000000e+00  0.00000000e+00  0.00000000e+00
  0.00000000e+00  0.00000000e+00  0.00000000e+00  0.00000000e+00
  0.00000000e+00  0.00000000e+00  0.00000000e+00  0.00000000e+00
  0.00000000e+00  0.00000000e+00  4.75603640e-08 -2.29264735e-20
  0.00000000e+00  0.00000000e+00  0.00000000e+00  9.97553083e-03]","[[ 9.97461107e-06 -2.12569167e-23  4.75603640e-11]
 [-2.12569167e-23  9.97456486e-06 -2.29264735e-23]
 [ 4.75603640e-11 -2.29264735e-23  9.97553083e-06]]",[-9.60078478e-09  2.21403876e-21  4.60520511e-13]
1786946959.8431835,9.600689018506225e-09,-2.214016677525212e-21,-4.605205106145149e-13,"[ 9.97421386e-03 -2.16000083e-20  0.00000000e+00  0.00000000e+00
  0.00000000e+00  4.83271090e-08 -2.16000083e-20  9.97416691e-03
  0.00000000e+00  0.00000000e+00  0.00000000e+00 -2.32410310e-20
  0.00000000e+00  0.00000000e+00  0.00000000e+00  0.00000000e+00
  0.00000000e+00  0.00000000e+00  0.00000000e+00  0.00000000e+00
  0.00000000e+00  0.00000000e+00  0.00000000e+00  0.00000000e+00
  0.00000000e+00  0.00000000e+00  0.00000000e+00  0.00000000e+00
  0.00000000e+00  0.00000000e+00  4.83271090e-08 -2.32410310e-20
  0.00000000e+00  0.00000000e+00  0.00000000e+00  9.97514845e-03]","[[ 9.97421386e-06 -2.16000083e-23  4.83271090e-11]
 [-2.16000083e-23  9.97416691e-06 -2.32410310e-23]
 [ 4.83271090e-11 -2.32410310e-23  9.97514845e-06]]",[-9.60078478e-09  2.21403876e-21  4.60520511e-13]
1786946959.9046772,9.600689020412524e-09,-2.2140166779639246e-21,-4.605205106145149e-13,"[ 9.97401522e-03 -2.17473209e-20  0.00000000e+00  0.00000000e+00
  0.00000000e+00  4.86563243e-08 -2.17473209e-20  9.97396794e-03
  0.00000000e+00  0.00000000e+00  0.00000000e+00 -2.33978712e-20
  0.00000000e+00  0.00000000e+00  0.00000000e+00  0.00000000e+00
  0.00000000e+00  0.00000000e+00  0.00000000e+00  0.00000000e+00
  0.00000000e+00  0.00000000e+00  0.00000000e+00  0.00000000e+00
  0.00000000e+00  0.00000000e+00  0.00000000e+00  0.00000000e+00
  0.00000000e+00  0.00000000e+00  4.86563243e-08 -2.33978712e-20
  0.00000000e+00  0.00000000e+00  0.00000000e+00  9.97495617e-03]","[[ 9.97401522e-06 -2.17473209e-23  4.86563243e-11]
 [-2.17473209e-23  9.97396794e-06 -2.33978712e-23]
 [ 4.86563243e-11 -2.33978712e-23  9.97495617e-06]]",[-9.60078478e-09  2.21403876e-21  4.60520511e-13]
1786946959.9385874,9.600689023271699e-09,-2.2140166786219e-21,-4.605205106145149e-13,"[ 9.97371741e-03 -2.20350512e-20  0.00000000e+00  0.00000000e+00
  0.00000000e+00  4.92993489e-08 -2.20350512e-20  9.97366951e-03
  0.00000000e+00  0.00000000e+00  0.00000000e+00 -2.35500035e-20
  0.00000000e+00  0.00000000e+00  0.00000000e+00  0.00000000e+00
  0.00000000e+00  0.00000000e+00  0.00000000e+00  0.00000000e+00
  0.00000000e+00  0.00000000e+00  0.00000000e+00  0.00000000e+00
  0.00000000e+00  0.00000000e+00  0.00000000e+00  0.00000000e+00
  0.00000000e+00  0.00000000e+00  4.92993489e-08 -2.35500035e-20
  0.00000000e+00  0.00000000e+00  0.00000000e+00  9.97467080e-03]","[[ 9.97371741e-06 -2.20350512e-23  4.92993489e-11]
 [-2.20350512e-23  9.97366951e-06 -2.35500035e-23]
 [ 4.92993489e-11 -2.35500035e-23  9.97467080e-06]]",[-9.60078478e-09  2.21403876e-21  4.60520511e-13]
1786946959.9914696,9.600689025178477e-09,-2.2140166790608752e-21,-4.605205106145149e-13,"[ 9.97351884e-03 -2.22053577e-20  0.00000000e+00  0.00000000e+00
  0.00000000e+00  4.96799519e-08 -2.22053577e-20  9.97347057e-03
  0.00000000e+00  0.00000000e+00  0.00000000e+00 -2.36915038e-20
  0.00000000e+00  0.00000000e+00  0.00000000e+00  0.00000000e+00
  0.00000000e+00  0.00000000e+00  0.00000000e+00  0.00000000e+00
  0.00000000e+00  0.00000000e+00  0.00000000e+00  0.00000000e+00
  0.00000000e+00  0.00000000e+00  0.00000000e+00  0.00000000e+00
  0.00000000e+00  0.00000000e+00  4.96799519e-08 -2.36915038e-20
  0.00000000e+00  0.00000000e+00  0.00000000e+00  9.97447959e-03]","[[ 9.97351884e-06 -2.22053577e-23  4.96799519e-11]
 [-2.22053577e-23  9.97347057e-06 -2.36915038e-23]
 [ 4.96799519e-11 -2.36915038e-23  9.97447959e-06]]",[-9.60078478e-09  2.21403876e-21  4.60520511e-13]
1786946960.0455928,9.600689027085613e-09,-2.214016679500035e-21,-4.605205106145149e-13,"[ 9.97332016e-03 -2.23250882e-20  0.00000000e+00  0.00000000e+00
  0.00000000e+00  4.99475265e-08 -2.23250882e-20  9.97327163e-03
  0.00000000e+00  0.00000000e+00  0.00000000e+00 -2.37923982e-20
  0.00000000e+00  0.00000000e+00  0.00000000e+00  0.00000000e+00
  0.00000000e+00  0.00000000e+00  0.00000000e+00  0.00000000e+00
  0.00000000e+00  0.00000000e+00  0.00000000e+00  0.00000000e+00
  0.00000000e+00  0.00000000e+00  0.00000000e+00  0.00000000e+00
  0.00000000e+00  0.00000000e+00  4.99475265e-08 -2.37923982e-20
  0.00000000e+00  0.00000000e+00  0.00000000e+00  9.97428609e-03]","[[ 9.97332016e-06 -2.23250882e-23  4.99475265e-11]
 [-2.23250882e-23  9.97327163e-06 -2.37923982e-23]
 [ 4.99475265e-11 -2.37923982e-23  9.97428609e-06]]",[-9.60078478e-09  2.21403876e-21  4.60520511e-13]
1786946960.0881536,9.600689029944934e-09,-2.2140166801581697e-21,-4.605205106145149e-13,"[ 9.97302234e-03 -2.25866794e-20  0.00000000e+00  0.00000000e+00
  0.00000000e+00  5.05321323e-08 -2.25866794e-20  9.97297324e-03
  0.00000000e+00  0.00000000e+00  0.00000000e+00 -2.41411271e-20
  0.00000000e+00  0.00000000e+00  0.00000000e+00  0.00000000e+00
  0.00000000e+00  0.00000000e+00  0.00000000e+00  0.00000000e+00
  0.00000000e+00  0.00000000e+00  0.00000000e+00  0.00000000e+00
  0.00000000e+00  0.00000000e+00  0.00000000e+00  0.00000000e+00
  0.00000000e+00  0.00000000e+00  5.05321323e-08 -2.41411271e-20
  0.00000000e+00  0.00000000e+00  0.00000000e+00  9.97399957e-03]","[[ 9.97302234e-06 -2.25866794e-23  5.05321323e-11]
 [-2.25866794e-23  9.97297324e-06 -2.41411271e-23]
 [ 5.05321323e-11 -2.41411271e-23  9.97399957e-06]]",[-9.60078478e-09  2.21403876e-21  4.60520511e-13]
1786946960.1609364,9.600689031848245e-09,-2.2140166805956104e-21,-4.605205106145149e-13,"[ 9.97282403e-03 -2.28654268e-20  0.00000000e+00  0.00000000e+00
  0.00000000e+00  5.11550807e-08 -2.28654268e-20  9.97277433e-03
  0.00000000e+00  0.00000000e+00  0.00000000e+00 -2.44788689e-20
  0.00000000e+00  0.00000000e+00  0.00000000e+00  0.00000000e+00
  0.00000000e+00  0.00000000e+00  0.00000000e+00  0.00000000e+00
  0.00000000e+00  0.00000000e+00  0.00000000e+00  0.00000000e+00
  0.00000000e+00  0.00000000e+00  0.00000000e+00  0.00000000e+00
  0.00000000e+00  0.00000000e+00  5.11550807e-08 -2.44788689e-20
  0.00000000e+00  0.00000000e+00  0.00000000e+00  9.97381331e-03]","[[ 9.97282403e-06 -2.28654268e-23  5.11550807e-11]
 [-2.28654268e-23  9.97277433e-06 -2.44788689e-23]
 [ 5.11550807e-11 -2.44788689e-23  9.97381331e-06]]",[-9.60078478e-09  2.21403876e-21  4.60520511e-13]
1786946960.1885748,9.600689034708366e-09,-2.2140166812541807e-21,-4.605205106145149e-13,"[ 9.97252597e-03 -2.30043606e-20  0.00000000e+00  0.00000000e+00
  0.00000000e+00  5.14655693e-08 -2.30043606e-20  9.97247597e-03
  0.00000000e+00  0.00000000e+00  0.00000000e+00 -2.46619492e-20
  0.00000000e+00  0.00000000e+00  0.00000000e+00  0.00000000e+00
  0.00000000e+00  0.00000000e+00  0.00000000e+00  0.00000000e+00
  0.00000000e+00  0.00000000e+00  0.00000000e+00  0.00000000e+00
  0.00000000e+00  0.00000000e+00  0.00000000e+00  0.00000000e+00
  0.00000000e+00  0.00000000e+00  5.14655693e-08 -2.46619492e-20
  0.00000000e+00  0.00000000e+00  0.00000000e+00  9.97352125e-03]","[[ 9.97252597e-06 -2.30043606e-23  5.14655693e-11]
 [-2.30043606e-23  9.97247597e-06 -2.46619492e-23]
 [ 5.14655693e-11 -2.46619492e-23  9.97352125e-06]]",[-9.60078478e-09  2.21403876e-21  4.60520511e-13]
1786946960.261885,9.60068903756621e-09,-2.2140166819117394e-21,-4.605205106145149e-13,"[ 9.97222819e-03 -2.32622450e-20  0.00000000e+00  0.00000000e+00
  0.00000000e+00  5.20418918e-08 -2.32622450e-20  9.97217762e-03
  0.00000000e+00  0.00000000e+00  0.00000000e+00 -2.49567963e-20
  0.00000000e+00  0.00000000e+00  0.00000000e+00  0.00000000e+00
  0.00000000e+00  0.00000000e+00  0.00000000e+00  0.00000000e+00
  0.00000000e+00  0.00000000e+00  0.00000000e+00  0.00000000e+00
  0.00000000e+00  0.00000000e+00  0.00000000e+00  0.00000000e+00
  0.00000000e+00  0.00000000e+00  5.20418918e-08 -2.49567963e-20
  0.00000000e+00  0.00000000e+00  0.00000000e+00  9.97323462e-03]","[[ 9.97222819e-06 -2.32622450e-23  5.20418918e-11]
 [-2.32622450e-23  9.97217762e-06 -2.49567963e-23]
 [ 5.20418918e-11 -2.49567963e-23  9.97323462e-06]]",[-9.60078478e-09  2.21403876e-21  4.60520511e-13]
1786946960.296395,9.600689039471889e-09,-2.2140166823503414e-21,-4.605205106145149e-13,"[ 9.97202970e-03 -2.34431094e-20  0.00000000e+00  0.00000000e+00
  0.00000000e+00  5.24460889e-08 -2.34431094e-20  9.97197874e-03
  0.00000000e+00  0.00000000e+00  0.00000000e+00 -2.51902698e-20
  0.00000000e+00  0.00000000e+00  0.00000000e+00  0.00000000e+00
  0.00000000e+00  0.00000000e+00  0.00000000e+00  0.00000000e+00
  0.00000000e+00  0.00000000e+00  0.00000000e+00  0.00000000e+00
  0.00000000e+00  0.00000000e+00  0.00000000e+00  0.00000000e+00
  0.00000000e+00  0.00000000e+00  5.24460889e-08 -2.51902698e-20
  0.00000000e+00  0.00000000e+00  0.00000000e+00  9.97304394e-03]","[[ 9.97202970e-06 -2.34431094e-23  5.24460889e-11]
 [-2.34431094e-23  9.97197874e-06 -2.51902698e-23]
 [ 5.24460889e-11 -2.51902698e-23  9.97304394e-06]]",[-9.60078478e-09  2.21403876e-21  4.60520511e-13]
1786946960.337448,9.600689041377346e-09,-2.214016682788858e-21,-4.605205106145149e-13,"[ 9.97183116e-03 -2.35967050e-20  0.00000000e+00  0.00000000e+00
  0.00000000e+00  5.27893454e-08 -2.35967050e-20  9.97177986e-03
  0.00000000e+00  0.00000000e+00  0.00000000e+00 -2.53720806e-20
  0.00000000e+00  0.00000000e+00  0.00000000e+00  0.00000000e+00
  0.00000000e+00  0.00000000e+00  0.00000000e+00  0.00000000e+00
  0.00000000e+00  0.00000000e+00  0.00000000e+00  0.00000000e+00
  0.00000000e+00  0.00000000e+00  0.00000000e+00  0.00000000e+00
  0.00000000e+00  0.00000000e+00  5.27893454e-08 -2.53720806e-20
  0.00000000e+00  0.00000000e+00  0.00000000e+00  9.97285204e-03]","[[ 9.97183116e-06 -2.35967050e-23  5.27893454e-11]
 [-2.35967050e-23  9.97177986e-06 -2.53720806e-23]
 [ 5.27893454e-11 -2.53720806e-23  9.97285204e-06]]",[-9.60078478e-09  2.21403876e-21  4.60520511e-13]
1786946960.3870828,9.600689044234947e-09,-2.2140166834463975e-21,-4.605205106145149e-13,"[ 9.97153342e-03 -2.38583658e-20  0.00000000e+00  0.00000000e+00
  0.00000000e+00  5.33741079e-08 -2.38583658e-20  9.97148156e-03
  0.00000000e+00  0.00000000e+00  0.00000000e+00 -2.56202234e-20
  0.00000000e+00  0.00000000e+00  0.00000000e+00  0.00000000e+00
  0.00000000e+00  0.00000000e+00  0.00000000e+00  0.00000000e+00
  0.00000000e+00  0.00000000e+00  0.00000000e+00  0.00000000e+00
  0.00000000e+00  0.00000000e+00  0.00000000e+00  0.00000000e+00
  0.00000000e+00  0.00000000e+00  5.33741079e-08 -2.56202234e-20
  0.00000000e+00  0.00000000e+00  0.00000000e+00  9.97256561e-03]","[[ 9.97153342e-06 -2.38583658e-23  5.33741079e-11]
 [-2.38583658e-23  9.97148156e-06 -2.56202234e-23]
 [ 5.33741079e-11 -2.56202234e-23  9.97256561e-06]]",[-9.60078478e-09  2.21403876e-21  4.60520511e-13]
1786946960.4375365,9.600689047093016e-09,-2.214016684104193e-21,-4.605205106145149e-13,"[ 9.97123557e-03 -2.40557602e-20  0.00000000e+00  0.00000000e+00
  0.00000000e+00  5.38152460e-08 -2.40557602e-20  9.97118328e-03
  0.00000000e+00  0.00000000e+00  0.00000000e+00 -2.58266656e-20
  0.00000000e+00  0.00000000e+00  0.00000000e+00  0.00000000e+00
  0.00000000e+00  0.00000000e+00  0.00000000e+00  0.00000000e+00
  0.00000000e+00  0.00000000e+00  0.00000000e+00  0.00000000e+00
  0.00000000e+00  0.00000000e+00  0.00000000e+00  0.00000000e+00
  0.00000000e+00  0.00000000e+00  5.38152460e-08 -2.58266656e-20
  0.00000000e+00  0.00000000e+00  0.00000000e+00  9.97227629e-03]","[[ 9.97123557e-06 -2.40557602e-23  5.38152460e-11]
 [-2.40557602e-23  9.97118328e-06 -2.58266656e-23]
 [ 5.38152460e-11 -2.58266656e-23  9.97227629e-06]]",[-9.60078478e-09  2.21403876e-21  4.60520511e-13]
1786946960.494601,9.600689048997242e-09,-2.2140166845422137e-21,-4.605205106145149e-13,"[ 9.97103723e-03 -2.42880163e-20  0.00000000e+00  0.00000000e+00
  0.00000000e+00  5.43342957e-08 -2.42880163e-20  9.97098444e-03
  0.00000000e+00  0.00000000e+00  0.00000000e+00 -2.60347286e-20
  0.00000000e+00  0.00000000e+00  0.00000000e+00  0.00000000e+00
  0.00000000e+00  0.00000000e+00  0.00000000e+00  0.00000000e+00
  0.00000000e+00  0.00000000e+00  0.00000000e+00  0.00000000e+00
  0.00000000e+00  0.00000000e+00  0.00000000e+00  0.00000000e+00
  0.00000000e+00  0.00000000e+00  5.43342957e-08 -2.60347286e-20
  0.00000000e+00  0.00000000e+00  0.00000000e+00  9.97208799e-03]","[[ 9.97103723e-06 -2.42880163e-23  5.43342957e-11]
 [-2.42880163e-23  9.97098444e-06 -2.60347286e-23]
 [ 5.43342957e-11 -2.60347286e-23  9.97208799e-06]]",[-9.60078478e-09  2.21403876e-21  4.60520511e-13]
1786946960.5431876,9.600689051855204e-09,-2.2140166852000252e-21,-4.605205106145149e-13,"[ 9.97073944e-03 -2.44997917e-20  0.00000000e+00  0.00000000e+00
  0.00000000e+00  5.48075727e-08 -2.44997917e-20  9.97068618e-03
  0.00000000e+00  0.00000000e+00  0.00000000e+00 -2.62529034e-20
  0.00000000e+00  0.00000000e+00  0.00000000e+00  0.00000000e+00
  0.00000000e+00  0.00000000e+00  0.00000000e+00  0.00000000e+00
  0.00000000e+00  0.00000000e+00  0.00000000e+00  0.00000000e+00
  0.00000000e+00  0.00000000e+00  0.00000000e+00  0.00000000e+00
  0.00000000e+00  0.00000000e+00  5.48075727e-08 -2.62529034e-20
  0.00000000e+00  0.00000000e+00  0.00000000e+00  9.97179935e-03]","[[ 9.97073944e-06 -2.44997917e-23  5.48075727e-11]
 [-2.44997917e-23  9.97068618e-06 -2.62529034e-23]
 [ 5.48075727e-11 -2.62529034e-23  9.97179935e-06]]",[-9.60078478e-09  2.21403876e-21  4.60520511e-13]
1786946960.5958385,9.600689051855204e-09,-2.2140166852000252e-21,-4.605205106145149e-13,"[ 9.97073944e-03 -2.44997917e-20  0.00000000e+00  0.00000000e+00
  0.00000000e+00  5.48075727e-08 -2.44997917e-20  9.97068618e-03
  0.00000000e+00  0.00000000e+00  0.00000000e+00 -2.62529034e-20
  0.00000000e+00  0.00000000e+00  0.00000000e+00  0.00000000e+00
  0.00000000e+00  0.00000000e+00  0.00000000e+00  0.00000000e+00
  0.00000000e+00  0.00000000e+00  0.00000000e+00  0.00000000e+00
  0.00000000e+00  0.00000000e+00  0.00000000e+00  0.00000000e+00
  0.00000000e+00  0.00000000e+00  5.48075727e-08 -2.62529034e-20
  0.00000000e+00  0.00000000e+00  0.00000000e+00  9.97179935e-03]","[[ 9.97073944e-06 -2.44997917e-23  5.48075727e-11]
 [-2.44997917e-23  9.97068618e-06 -2.62529034e-23]
 [ 5.48075727e-11 -2.62529034e-23  9.97179935e-06]]",[-9.60078478e-09  2.21403876e-21  4.60520511e-13]
1786946960.6491394,9.600689055660138e-09,-2.214016686074549e-21,-4.605205106145149e-13,"[ 9.97034297e-03 -2.50436658e-20  0.00000000e+00  0.00000000e+00
  0.00000000e+00  5.60230306e-08 -2.50436658e-20  9.97028854e-03
  0.00000000e+00  0.00000000e+00  0.00000000e+00 -2.68347809e-20
  0.00000000e+00  0.00000000e+00  0.00000000e+00  0.00000000e+00
  0.00000000e+00  0.00000000e+00  0.00000000e+00  0.00000000e+00
  0.00000000e+00  0.00000000e+00  0.00000000e+00  0.00000000e+00
  0.00000000e+00  0.00000000e+00  0.00000000e+00  0.00000000e+00
  0.00000000e+00  0.00000000e+00  5.60230306e-08 -2.68347809e-20
  0.00000000e+00  0.00000000e+00  0.00000000e+00  9.97142639e-03]","[[ 9.97034297e-06 -2.50436658e-23  5.60230306e-11]
 [-2.50436658e-23  9.97028854e-06 -2.68347809e-23]
 [ 5.60230306e-11 -2.68347809e-23  9.97142639e-06]]",[-9.60078478e-09  2.21403876e-21  4.60520511e-13]
1786946960.6888921,9.600689057566026e-09,-2.2140166865134142e-21,-4.605205106145149e-13,"[ 9.97014446e-03 -2.51797511e-20  0.00000000e+00  0.00000000e+00
  0.00000000e+00  5.63271546e-08 -2.51797511e-20  9.97008973e-03
  0.00000000e+00  0.00000000e+00  0.00000000e+00 -2.69911616e-20
  0.00000000e+00  0.00000000e+00  0.00000000e+00  0.00000000e+00
  0.00000000e+00  0.00000000e+00  0.00000000e+00  0.00000000e+00
  0.00000000e+00  0.00000000e+00  0.00000000e+00  0.00000000e+00
  0.00000000e+00  0.00000000e+00  0.00000000e+00  0.00000000e+00
  0.00000000e+00  0.00000000e+00  5.63271546e-08 -2.69911616e-20
  0.00000000e+00  0.00000000e+00  0.00000000e+00  9.97123376e-03]","[[ 9.97014446e-06 -2.51797511e-23  5.63271546e-11]
 [-2.51797511e-23  9.97008973e-06 -2.69911616e-23]
 [ 5.63271546e-11 -2.69911616e-23  9.97123376e-06]]",[-9.60078478e-09  2.21403876e-21  4.60520511e-13]
1786946960.7404487,9.600689060421842e-09,-2.2140166871703576e-21,-4.605205106145149e-13,"[ 9.96984670e-03 -2.53825348e-20  0.00000000e+00  0.00000000e+00
  0.00000000e+00  5.67803372e-08 -2.53825348e-20  9.96979153e-03
  0.00000000e+00  0.00000000e+00  0.00000000e+00 -2.71930517e-20
  0.00000000e+00  0.00000000e+00  0.00000000e+00  0.00000000e+00
  0.00000000e+00  0.00000000e+00  0.00000000e+00  0.00000000e+00
  0.00000000e+00  0.00000000e+00  0.00000000e+00  0.00000000e+00
  0.00000000e+00  0.00000000e+00  0.00000000e+00  0.00000000e+00
  0.00000000e+00  0.00000000e+00  5.67803372e-08 -2.71930517e-20
  0.00000000e+00  0.00000000e+00  0.00000000e+00  9.97094476e-03]","[[ 9.96984670e-06 -2.53825348e-23  5.67803372e-11]
 [-2.53825348e-23  9.96979153e-06 -2.71930517e-23]
 [ 5.67803372e-11 -2.71930517e-23  9.97094476e-06]]",[-9.60078478e-09  2.21403876e-21  4.60520511e-13]
1786946960.787374,9.600689062327486e-09,-2.2140166876091533e-21,-4.605205106145149e-13,"[ 9.96964821e-03 -2.55212661e-20  0.00000000e+00  0.00000000e+00
  0.00000000e+00  5.70903748e-08 -2.55212661e-20  9.96959274e-03
  0.00000000e+00  0.00000000e+00  0.00000000e+00 -2.73252610e-20
  0.00000000e+00  0.00000000e+00  0.00000000e+00  0.00000000e+00
  0.00000000e+00  0.00000000e+00  0.00000000e+00  0.00000000e+00
  0.00000000e+00  0.00000000e+00  0.00000000e+00  0.00000000e+00
  0.00000000e+00  0.00000000e+00  0.00000000e+00  0.00000000e+00
  0.00000000e+00  0.00000000e+00  5.70903748e-08 -2.73252610e-20
  0.00000000e+00  0.00000000e+00  0.00000000e+00  9.97075227e-03]","[[ 9.96964821e-06 -2.55212661e-23  5.70903748e-11]
 [-2.55212661e-23  9.96959274e-06 -2.73252610e-23]
 [ 5.70903748e-11 -2.73252610e-23  9.97075227e-06]]",[-9.60078478e-09  2.21403876e-21  4.60520511e-13]
1786946960.8438869,9.600689065185177e-09,-2.2140166882670224e-21,-4.605205106145149e-13,"[ 9.96935050e-03 -2.57288281e-20  0.00000000e+00  0.00000000e+00
  0.00000000e+00  5.75542361e-08 -2.57288281e-20  9.96929457e-03
  0.00000000e+00  0.00000000e+00  0.00000000e+00 -2.75208607e-20
  0.00000000e+00  0.00000000e+00  0.00000000e+00  0.00000000e+00
  0.00000000e+00  0.00000000e+00  0.00000000e+00  0.00000000e+00
  0.00000000e+00  0.00000000e+00  0.00000000e+00  0.00000000e+00
  0.00000000e+00  0.00000000e+00  0.00000000e+00  0.00000000e+00
  0.00000000e+00  0.00000000e+00  5.75542361e-08 -2.75208607e-20
  0.00000000e+00  0.00000000e+00  0.00000000e+00  9.97046352e-03]","[[ 9.96935050e-06 -2.57288281e-23  5.75542361e-11]
 [-2.57288281e-23  9.96929457e-06 -2.75208607e-23]
 [ 5.75542361e-11 -2.75208607e-23  9.97046352e-06]]",[-9.60078478e-09  2.21403876e-21  4.60520511e-13]
1786946960.8904767,9.600689066137938e-09,-2.214016688486412e-21,-4.605205106145149e-13,"[ 9.96925126e-03 -2.57969792e-20  0.00000000e+00  0.00000000e+00
  0.00000000e+00  5.77065406e-08 -2.57969792e-20  9.96919519e-03
  0.00000000e+00  0.00000000e+00  0.00000000e+00 -2.76002219e-20
  0.00000000e+00  0.00000000e+00  0.00000000e+00  0.00000000e+00
  0.00000000e+00  0.00000000e+00  0.00000000e+00  0.00000000e+00
  0.00000000e+00  0.00000000e+00  0.00000000e+00  0.00000000e+00
  0.00000000e+00  0.00000000e+00  0.00000000e+00  0.00000000e+00
  0.00000000e+00  0.00000000e+00  5.77065406e-08 -2.76002219e-20
  0.00000000e+00  0.00000000e+00  0.00000000e+00  9.97036723e-03]","[[ 9.96925126e-06 -2.57969792e-23  5.77065406e-11]
 [-2.57969792e-23  9.96919519e-06 -2.76002219e-23]
 [ 5.77065406e-11 -2.76002219e-23  9.97036723e-06]]",[-9.60078478e-09  2.21403876e-21  4.60520511e-13]
1786946960.9397795,9.60068906994698e-09,-2.214016689363091e-21,-4.605205106145149e-13,"[ 9.96885456e-03 -2.61794080e-20  0.00000000e+00  0.00000000e+00
  0.00000000e+00  5.85611973e-08 -2.61794080e-20  9.96879766e-03
  0.00000000e+00  0.00000000e+00  0.00000000e+00 -2.79575415e-20
  0.00000000e+00  0.00000000e+00  0.00000000e+00  0.00000000e+00
  0.00000000e+00  0.00000000e+00  0.00000000e+00  0.00000000e+00
  0.00000000e+00  0.00000000e+00  0.00000000e+00  0.00000000e+00
  0.00000000e+00  0.00000000e+00  0.00000000e+00  0.00000000e+00
  0.00000000e+00  0.00000000e+00  5.85611973e-08 -2.79575415e-20
  0.00000000e+00  0.00000000e+00  0.00000000e+00  9.96998707e-03]","[[ 9.96885456e-06 -2.61794080e-23  5.85611973e-11]
 [-2.61794080e-23  9.96879766e-06 -2.79575415e-23]
 [ 5.85611973e-11 -2.79575415e-23  9.96998707e-06]]",[-9.60078478e-09  2.21403876e-21  4.60520511e-13]
1786946960.9881158,9.600689071851042e-09,-2.2140166898012494e-21,-4.605205106145149e-13,"[ 9.96865614e-03 -2.63297308e-20  0.00000000e+00  0.00000000e+00
  0.00000000e+00  5.88971393e-08 -2.63297308e-20  9.96859891e-03
  0.00000000e+00  0.00000000e+00  0.00000000e+00 -2.81501334e-20
  0.00000000e+00  0.00000000e+00  0.00000000e+00  0.00000000e+00
  0.00000000e+00  0.00000000e+00  0.00000000e+00  0.00000000e+00
  0.00000000e+00  0.00000000e+00  0.00000000e+00  0.00000000e+00
  0.00000000e+00  0.00000000e+00  0.00000000e+00  0.00000000e+00
  0.00000000e+00  0.00000000e+00  5.88971393e-08 -2.81501334e-20
  0.00000000e+00  0.00000000e+00  0.00000000e+00  9.96979514e-03]","[[ 9.96865614e-06 -2.63297308e-23  5.88971393e-11]
 [-2.63297308e-23  9.96859891e-06 -2.81501334e-23]
 [ 5.88971393e-11 -2.81501334e-23  9.96979514e-06]]",[-9.60078478e-09  2.21403876e-21  4.60520511e-13]
1786946961.041351,9.600689074707632e-09,-2.2140166904587434e-21,-4.605205106145149e-13,"[ 9.96835846e-03 -2.65288800e-20  0.00000000e+00  0.00000000e+00
  0.00000000e+00  5.93421979e-08 -2.65288800e-20  9.96830080e-03
  0.00000000e+00  0.00000000e+00  0.00000000e+00 -2.84615614e-20
  0.00000000e+00  0.00000000e+00  0.00000000e+00  0.00000000e+00
  0.00000000e+00  0.00000000e+00  0.00000000e+00  0.00000000e+00
  0.00000000e+00  0.00000000e+00  0.00000000e+00  0.00000000e+00
  0.00000000e+00  0.00000000e+00  0.00000000e+00  0.00000000e+00
  0.00000000e+00  0.00000000e+00  5.93421979e-08 -2.84615614e-20
  0.00000000e+00  0.00000000e+00  0.00000000e+00  9.96950607e-03]","[[ 9.96835846e-06 -2.65288800e-23  5.93421979e-11]
 [-2.65288800e-23  9.96830080e-06 -2.84615614e-23]
 [ 5.93421979e-11 -2.84615614e-23  9.96950607e-06]]",[-9.60078478e-09  2.21403876e-21  4.60520511e-13]
1786946961.091827,9.600689075655199e-09,-2.2140166906757852e-21,-4.605205106145149e-13,"[ 9.96825971e-03 -2.68115302e-20  0.00000000e+00  0.00000000e+00
  0.00000000e+00  5.99738705e-08 -2.68115302e-20  9.96820144e-03
  0.00000000e+00  0.00000000e+00  0.00000000e+00 -2.87094352e-20
  0.00000000e+00  0.00000000e+00  0.00000000e+00  0.00000000e+00
  0.00000000e+00  0.00000000e+00  0.00000000e+00  0.00000000e+00
  0.00000000e+00  0.00000000e+00  0.00000000e+00  0.00000000e+00
  0.00000000e+00  0.00000000e+00  0.00000000e+00  0.00000000e+00
  0.00000000e+00  0.00000000e+00  5.99738705e-08 -2.87094352e-20
  0.00000000e+00  0.00000000e+00  0.00000000e+00  9.96941953e-03]","[[ 9.96825971e-06 -2.68115302e-23  5.99738705e-11]
 [-2.68115302e-23  9.96820144e-06 -2.87094352e-23]
 [ 5.99738705e-11 -2.87094352e-23  9.96941953e-06]]",[-9.60078478e-09  2.21403876e-21  4.60520511e-13]
1786946961.138091,9.60068907756103e-09,-2.214016691114807e-21,-4.605205106145149e-13,"[ 9.96806128e-03 -2.69494597e-20  0.00000000e+00  0.00000000e+00
  0.00000000e+00  6.02821159e-08 -2.69494597e-20  9.96800271e-03
  0.00000000e+00  0.00000000e+00  0.00000000e+00 -2.88938200e-20
  0.00000000e+00  0.00000000e+00  0.00000000e+00  0.00000000e+00
  0.00000000e+00  0.00000000e+00  0.00000000e+00  0.00000000e+00
  0.00000000e+00  0.00000000e+00  0.00000000e+00  0.00000000e+00
  0.00000000e+00  0.00000000e+00  0.00000000e+00  0.00000000e+00
  0.00000000e+00  0.00000000e+00  6.02821159e-08 -2.88938200e-20
  0.00000000e+00  0.00000000e+00  0.00000000e+00  9.96922707e-03]","[[ 9.96806128e-06 -2.69494597e-23  6.02821159e-11]
 [-2.69494597e-23  9.96800271e-06 -2.88938200e-23]
 [ 6.02821159e-11 -2.88938200e-23  9.96922707e-06]]",[-9.60078478e-09  2.21403876e-21  4.60520511e-13]
1786946961.190858,9.600689080417418e-09,-2.214016691772287e-21,-4.605205106145149e-13,"[ 9.96776367e-03 -2.71616793e-20  0.00000000e+00  0.00000000e+00
  0.00000000e+00  6.07563859e-08 -2.71616793e-20  9.96770464e-03
  0.00000000e+00  0.00000000e+00  0.00000000e+00 -2.90835682e-20
  0.00000000e+00  0.00000000e+00  0.00000000e+00  0.00000000e+00
  0.00000000e+00  0.00000000e+00  0.00000000e+00  0.00000000e+00
  0.00000000e+00  0.00000000e+00  0.00000000e+00  0.00000000e+00
  0.00000000e+00  0.00000000e+00  0.00000000e+00  0.00000000e+00
  0.00000000e+00  0.00000000e+00  6.07563859e-08 -2.90835682e-20
  0.00000000e+00  0.00000000e+00  0.00000000e+00  9.96893863e-03]","[[ 9.96776367e-06 -2.71616793e-23  6.07563859e-11]
 [-2.71616793e-23  9.96770464e-06 -2.90835682e-23]
 [ 6.07563859e-11 -2.90835682e-23  9.96893863e-06]]",[-9.60078478e-09  2.21403876e-21  4.60520511e-13]
1786946961.2378879,9.600689083274447e-09,-2.2140166924301016e-21,-4.605205106145149e-13,"[ 9.96746608e-03 -2.73774359e-20  0.00000000e+00  0.00000000e+00
  0.00000000e+00  6.12385606e-08 -2.73774359e-20  9.96740658e-03
  0.00000000e+00  0.00000000e+00  0.00000000e+00 -2.92984449e-20
  0.00000000e+00  0.00000000e+00  0.00000000e+00  0.00000000e+00
  0.00000000e+00  0.00000000e+00  0.00000000e+00  0.00000000e+00
  0.00000000e+00  0.00000000e+00  0.00000000e+00  0.00000000e+00
  0.00000000e+00  0.00000000e+00  0.00000000e+00  0.00000000e+00
  0.00000000e+00  0.00000000e+00  6.12385606e-08 -2.92984449e-20
  0.00000000e+00  0.00000000e+00  0.00000000e+00  9.96865036e-03]","[[ 9.96756531e-06 -2.73222377e-23  6.11152039e-11]
 [-2.73222377e-23  9.96750593e-06 -2.92176898e-23]
