time,x,y,yaw,cov_prop,K_gain,innovation,v_ekf,omega_ekf
1787208554.3112528,1.9177826158380038,0.28331493084964193,1.9851902958745775,"[ 5.25219050e-05  1.73311952e-06  0.00000000e+00  0.00000000e+00
  0.00000000e+00 -1.47666982e-06  1.73311952e-06  5.04950844e-05
  0.00000000e+00  0.00000000e+00  0.00000000e+00 -1.52919870e-06
  0.00000000e+00  0.00000000e+00  0.00000000e+00  0.00000000e+00
  0.00000000e+00  0.00000000e+00  0.00000000e+00  0.00000000e+00
  0.00000000e+00  0.00000000e+00  0.00000000e+00  0.00000000e+00
  0.00000000e+00  0.00000000e+00  0.00000000e+00  0.00000000e+00
  0.00000000e+00  0.00000000e+00 -1.47666982e-06 -1.52919870e-06
  0.00000000e+00  0.00000000e+00  0.00000000e+00  3.61939585e-06]","[[-4.35693745e-05  4.46841902e-02]
 [-1.26238505e-03  3.91571211e-03]]",[],0.0,0.0
1787208554.364773,1.9177826158380038,0.28331493084964193,1.9851902958745775,"[ 5.25219050e-05  1.73311952e-06  0.00000000e+00  0.00000000e+00
  0.00000000e+00 -1.47666982e-06  1.73311952e-06  5.04950844e-05
  0.00000000e+00  0.00000000e+00  0.00000000e+00 -1.52919870e-06
  0.00000000e+00  0.00000000e+00  0.00000000e+00  0.00000000e+00
  0.00000000e+00  0.00000000e+00  0.00000000e+00  0.00000000e+00
  0.00000000e+00  0.00000000e+00  0.00000000e+00  0.00000000e+00
  0.00000000e+00  0.00000000e+00  0.00000000e+00  0.00000000e+00
  0.00000000e+00  0.00000000e+00 -1.47666982e-06 -1.52919870e-06
  0.00000000e+00  0.00000000e+00  0.00000000e+00  3.61939585e-06]","[[-4.35693745e-05  4.46841902e-02]
 [-1.26238505e-03  3.91571211e-03]]",[],0.0,0.0
1787208554.3672984,1.9177826158380038,0.28331493084964193,1.9851902958745775,"[ 5.25219050e-05  1.73311952e-06  0.00000000e+00  0.00000000e+00
  0.00000000e+00 -1.47666982e-06  1.73311952e-06  5.04950844e-05
  0.00000000e+00  0.00000000e+00  0.00000000e+00 -1.52919870e-06
  0.00000000e+00  0.00000000e+00  0.00000000e+00  0.00000000e+00
  0.00000000e+00  0.00000000e+00  0.00000000e+00  0.00000000e+00
  0.00000000e+00  0.00000000e+00  0.00000000e+00  0.00000000e+00
  0.00000000e+00  0.00000000e+00  0.00000000e+00  0.00000000e+00
  0.00000000e+00  0.00000000e+00 -1.47666982e-06 -1.52919870e-06
  0.00000000e+00  0.00000000e+00  0.00000000e+00  3.61939585e-06]","[[-4.35693745e-05  4.46841902e-02]
 [-1.26238505e-03  3.91571211e-03]]",[],0.0,0.0
1787208554.4168887,1.9177826158380038,0.28331493084964193,1.9851902958745775,"[ 5.25219050e-05  1.73311952e-06  0.00000000e+00  0.00000000e+00
  0.00000000e+00 -1.47666982e-06  1.73311952e-06  5.04950844e-05
  0.00000000e+00  0.00000000e+00  0.00000000e+00 -1.52919870e-06
  0.00000000e+00  0.00000000e+00  0.00000000e+00  0.00000000e+00
  0.00000000e+00  0.00000000e+00  0.00000000e+00  0.00000000e+00
  0.00000000e+00  0.00000000e+00  0.00000000e+00  0.00000000e+00
  0.00000000e+00  0.00000000e+00  0.00000000e+00  0.00000000e+00
  0.00000000e+00  0.00000000e+00 -1.47666982e-06 -1.52919870e-06
  0.00000000e+00  0.00000000e+00  0.00000000e+00  3.61939585e-06]","[[-4.35693745e-05  4.46841902e-02]
 [-1.26238505e-03  3.91571211e-03]]",[],0.0,0.0
1787208554.475381,1.9177826158380038,0.28331493084964193,1.9851902958745775,"[ 5.25219050e-05  1.73311952e-06  0.00000000e+00  0.00000000e+00
  0.00000000e+00 -1.47666982e-06  1.73311952e-06  5.04950844e-05
  0.00000000e+00  0.00000000e+00  0.00000000e+00 -1.52919870e-06
  0.00000000e+00  0.00000000e+00  0.00000000e+00  0.00000000e+00
  0.00000000e+00  0.00000000e+00  0.00000000e+00  0.00000000e+00
  0.00000000e+00  0.00000000e+00  0.00000000e+00  0.00000000e+00
  0.00000000e+00  0.00000000e+00  0.00000000e+00  0.00000000e+00
  0.00000000e+00  0.00000000e+00 -1.47666982e-06 -1.52919870e-06
  0.00000000e+00  0.00000000e+00  0.00000000e+00  3.61939585e-06]","[[-4.35693745e-05  4.46841902e-02]
 [-1.26238505e-03  3.91571211e-03]]",[],0.0,0.0
1787208554.5170782,1.9177826158380038,0.28331493084964193,1.9851902958745775,"[ 5.25219050e-05  1.73311952e-06  0.00000000e+00  0.00000000e+00
  0.00000000e+00 -1.47666982e-06  1.73311952e-06  5.04950844e-05
  0.00000000e+00  0.00000000e+00  0.00000000e+00 -1.52919870e-06
  0.00000000e+00  0.00000000e+00  0.00000000e+00  0.00000000e+00
  0.00000000e+00  0.00000000e+00  0.00000000e+00  0.00000000e+00
  0.00000000e+00  0.00000000e+00  0.00000000e+00  0.00000000e+00
  0.00000000e+00  0.00000000e+00  0.00000000e+00  0.00000000e+00
  0.00000000e+00  0.00000000e+00 -1.47666982e-06 -1.52919870e-06
  0.00000000e+00  0.00000000e+00  0.00000000e+00  3.61939585e-06]","[[-4.35693745e-05  4.46841902e-02]
 [-1.26238505e-03  3.91571211e-03]]",[],0.0,0.0
1787208554.569124,1.9177826158380038,0.28331493084964193,1.9851902958745775,"[ 5.25219050e-05  1.73311952e-06  0.00000000e+00  0.00000000e+00
  0.00000000e+00 -1.47666982e-06  1.73311952e-06  5.04950844e-05
  0.00000000e+00  0.00000000e+00  0.00000000e+00 -1.52919870e-06
  0.00000000e+00  0.00000000e+00  0.00000000e+00  0.00000000e+00
  0.00000000e+00  0.00000000e+00  0.00000000e+00  0.00000000e+00
  0.00000000e+00  0.00000000e+00  0.00000000e+00  0.00000000e+00
  0.00000000e+00  0.00000000e+00  0.00000000e+00  0.00000000e+00
  0.00000000e+00  0.00000000e+00 -1.47666982e-06 -1.52919870e-06
  0.00000000e+00  0.00000000e+00  0.00000000e+00  3.61939585e-06]","[[-4.35693745e-05  4.46841902e-02]
 [-1.26238505e-03  3.91571211e-03]]",[],0.0,0.0
1787208554.617419,1.9177826158380038,0.28331493084964193,1.9851902958745775,"[ 5.25219050e-05  1.73311952e-06  0.00000000e+00  0.00000000e+00
  0.00000000e+00 -1.47666982e-06  1.73311952e-06  5.04950844e-05
  0.00000000e+00  0.00000000e+00  0.00000000e+00 -1.52919870e-06
  0.00000000e+00  0.00000000e+00  0.00000000e+00  0.00000000e+00
  0.00000000e+00  0.00000000e+00  0.00000000e+00  0.00000000e+00
  0.00000000e+00  0.00000000e+00  0.00000000e+00  0.00000000e+00
  0.00000000e+00  0.00000000e+00  0.00000000e+00  0.00000000e+00
  0.00000000e+00  0.00000000e+00 -1.47666982e-06 -1.52919870e-06
  0.00000000e+00  0.00000000e+00  0.00000000e+00  3.61939585e-06]","[[-4.35693745e-05  4.46841902e-02]
 [-1.26238505e-03  3.91571211e-03]]",[],0.0,0.0
1787208554.6713946,1.9177826158380038,0.28331493084964193,1.9851902958745775,"[ 5.25219050e-05  1.73311952e-06  0.00000000e+00  0.00000000e+00
  0.00000000e+00 -1.47666982e-06  1.73311952e-06  5.04950844e-05
  0.00000000e+00  0.00000000e+00  0.00000000e+00 -1.52919870e-06
  0.00000000e+00  0.00000000e+00  0.00000000e+00  0.00000000e+00
  0.00000000e+00  0.00000000e+00  0.00000000e+00  0.00000000e+00
  0.00000000e+00  0.00000000e+00  0.00000000e+00  0.00000000e+00
  0.00000000e+00  0.00000000e+00  0.00000000e+00  0.00000000e+00
  0.00000000e+00  0.00000000e+00 -1.47666982e-06 -1.52919870e-06
  0.00000000e+00  0.00000000e+00  0.00000000e+00  3.61939585e-06]","[[-4.35693745e-05  4.46841902e-02]
 [-1.26238505e-03  3.91571211e-03]]",[],0.0,0.0
1787208554.7214456,1.9177826158380038,0.28331493084964193,1.9851902958745775,"[ 5.25219050e-05  1.73311952e-06  0.00000000e+00  0.00000000e+00
  0.00000000e+00 -1.47666982e-06  1.73311952e-06  5.04950844e-05
  0.00000000e+00  0.00000000e+00  0.00000000e+00 -1.52919870e-06
  0.00000000e+00  0.00000000e+00  0.00000000e+00  0.00000000e+00
  0.00000000e+00  0.00000000e+00  0.00000000e+00  0.00000000e+00
  0.00000000e+00  0.00000000e+00  0.00000000e+00  0.00000000e+00
  0.00000000e+00  0.00000000e+00  0.00000000e+00  0.00000000e+00
  0.00000000e+00  0.00000000e+00 -1.47666982e-06 -1.52919870e-06
  0.00000000e+00  0.00000000e+00  0.00000000e+00  3.61939585e-06]","[[-4.35693745e-05  4.46841902e-02]
 [-1.26238505e-03  3.91571211e-03]]",[],0.0,0.0
1787208554.8072405,1.9177826158380038,0.28331493084964193,1.9851902958745775,"[ 5.25219050e-05  1.73311952e-06  0.00000000e+00  0.00000000e+00
  0.00000000e+00 -1.47666982e-06  1.73311952e-06  5.04950844e-05
  0.00000000e+00  0.00000000e+00  0.00000000e+00 -1.52919870e-06
  0.00000000e+00  0.00000000e+00  0.00000000e+00  0.00000000e+00
  0.00000000e+00  0.00000000e+00  0.00000000e+00  0.00000000e+00
  0.00000000e+00  0.00000000e+00  0.00000000e+00  0.00000000e+00
  0.00000000e+00  0.00000000e+00  0.00000000e+00  0.00000000e+00
  0.00000000e+00  0.00000000e+00 -1.47666982e-06 -1.52919870e-06
  0.00000000e+00  0.00000000e+00  0.00000000e+00  3.61939585e-06]","[[-4.35693745e-05  4.46841902e-02]
 [-1.26238505e-03  3.91571211e-03]]",[],0.0,0.0
1787208554.8183694,1.9177826158380038,0.28331493084964193,1.9851902958745775,"[ 5.25219050e-05  1.73311952e-06  0.00000000e+00  0.00000000e+00
  0.00000000e+00 -1.47666982e-06  1.73311952e-06  5.04950844e-05
  0.00000000e+00  0.00000000e+00  0.00000000e+00 -1.52919870e-06
  0.00000000e+00  0.00000000e+00  0.00000000e+00  0.00000000e+00
  0.00000000e+00  0.00000000e+00  0.00000000e+00  0.00000000e+00
  0.00000000e+00  0.00000000e+00  0.00000000e+00  0.00000000e+00
  0.00000000e+00  0.00000000e+00  0.00000000e+00  0.00000000e+00
  0.00000000e+00  0.00000000e+00 -1.47666982e-06 -1.52919870e-06
  0.00000000e+00  0.00000000e+00  0.00000000e+00  3.61939585e-06]","[[-4.35693745e-05  4.46841902e-02]
 [-1.26238505e-03  3.91571211e-03]]",[],0.0,0.0
1787208554.9047031,1.9177826158380038,0.28331493084964193,1.9851902958745775,"[ 5.25219050e-05  1.73311952e-06  0.00000000e+00  0.00000000e+00
  0.00000000e+00 -1.47666982e-06  1.73311952e-06  5.04950844e-05
  0.00000000e+00  0.00000000e+00  0.00000000e+00 -1.52919870e-06
  0.00000000e+00  0.00000000e+00  0.00000000e+00  0.00000000e+00
  0.00000000e+00  0.00000000e+00  0.00000000e+00  0.00000000e+00
  0.00000000e+00  0.00000000e+00  0.00000000e+00  0.00000000e+00
  0.00000000e+00  0.00000000e+00  0.00000000e+00  0.00000000e+00
  0.00000000e+00  0.00000000e+00 -1.47666982e-06 -1.52919870e-06
  0.00000000e+00  0.00000000e+00  0.00000000e+00  3.61939585e-06]","[[-4.35693745e-05  4.46841902e-02]
 [-1.26238505e-03  3.91571211e-03]]",[],0.0,0.0
1787208554.9244225,1.9177826158380038,0.28331493084964193,1.9851902958745775,"[ 5.25219050e-05  1.73311952e-06  0.00000000e+00  0.00000000e+00
  0.00000000e+00 -1.47666982e-06  1.73311952e-06  5.04950844e-05
  0.00000000e+00  0.00000000e+00  0.00000000e+00 -1.52919870e-06
  0.00000000e+00  0.00000000e+00  0.00000000e+00  0.00000000e+00
  0.00000000e+00  0.00000000e+00  0.00000000e+00  0.00000000e+00
  0.00000000e+00  0.00000000e+00  0.00000000e+00  0.00000000e+00
  0.00000000e+00  0.00000000e+00  0.00000000e+00  0.00000000e+00
  0.00000000e+00  0.00000000e+00 -1.47666982e-06 -1.52919870e-06
  0.00000000e+00  0.00000000e+00  0.00000000e+00  3.61939585e-06]","[[-4.35693745e-05  4.46841902e-02]
 [-1.26238505e-03  3.91571211e-03]]",[],0.0,0.0
1787208554.9691234,1.9177826158380038,0.28331493084964193,1.9851902958745775,"[ 5.25219050e-05  1.73311952e-06  0.00000000e+00  0.00000000e+00
  0.00000000e+00 -1.47666982e-06  1.73311952e-06  5.04950844e-05
  0.00000000e+00  0.00000000e+00  0.00000000e+00 -1.52919870e-06
  0.00000000e+00  0.00000000e+00  0.00000000e+00  0.00000000e+00
  0.00000000e+00  0.00000000e+00  0.00000000e+00  0.00000000e+00
  0.00000000e+00  0.00000000e+00  0.00000000e+00  0.00000000e+00
  0.00000000e+00  0.00000000e+00  0.00000000e+00  0.00000000e+00
  0.00000000e+00  0.00000000e+00 -1.47666982e-06 -1.52919870e-06
  0.00000000e+00  0.00000000e+00  0.00000000e+00  3.61939585e-06]","[[-4.35693745e-05  4.46841902e-02]
 [-1.26238505e-03  3.91571211e-03]]",[],0.0,0.0
1787208555.0265548,1.9177826158380038,0.28331493084964193,1.9851902958745775,"[ 5.25219050e-05  1.73311952e-06  0.00000000e+00  0.00000000e+00
  0.00000000e+00 -1.47666982e-06  1.73311952e-06  5.04950844e-05
  0.00000000e+00  0.00000000e+00  0.00000000e+00 -1.52919870e-06
  0.00000000e+00  0.00000000e+00  0.00000000e+00  0.00000000e+00
  0.00000000e+00  0.00000000e+00  0.00000000e+00  0.00000000e+00
  0.00000000e+00  0.00000000e+00  0.00000000e+00  0.00000000e+00
  0.00000000e+00  0.00000000e+00  0.00000000e+00  0.00000000e+00
  0.00000000e+00  0.00000000e+00 -1.47666982e-06 -1.52919870e-06
  0.00000000e+00  0.00000000e+00  0.00000000e+00  3.61939585e-06]","[[-4.35693745e-05  4.46841902e-02]
 [-1.26238505e-03  3.91571211e-03]]",[],0.0,0.0
1787208555.0671675,1.9267685061182085,0.27183966438992585,1.989295862398687,"[ 2.40786108e-05 -4.66734051e-07  0.00000000e+00  0.00000000e+00
  0.00000000e+00 -4.98553618e-07 -4.66734051e-07  2.46879372e-05
  0.00000000e+00  0.00000000e+00  0.00000000e+00 -6.72386620e-07
  0.00000000e+00  0.00000000e+00  0.00000000e+00  0.00000000e+00
  0.00000000e+00  0.00000000e+00  0.00000000e+00  0.00000000e+00
  0.00000000e+00  0.00000000e+00  0.00000000e+00  0.00000000e+00
  0.00000000e+00  0.00000000e+00  0.00000000e+00  0.00000000e+00
  0.00000000e+00  0.00000000e+00 -4.98553618e-07 -6.72386620e-07
  0.00000000e+00  0.00000000e+00  0.00000000e+00  2.88491600e-06]","[[ 0.00026491  0.01372495]
 [-0.00056434  0.00708167]]",[],0.0,0.0
1787208555.1200123,1.9267685061182085,0.27183966438992585,1.989295862398687,"[ 2.40786108e-05 -4.66734051e-07  0.00000000e+00  0.00000000e+00
  0.00000000e+00 -4.98553618e-07 -4.66734051e-07  2.46879372e-05
  0.00000000e+00  0.00000000e+00  0.00000000e+00 -6.72386620e-07
  0.00000000e+00  0.00000000e+00  0.00000000e+00  0.00000000e+00
  0.00000000e+00  0.00000000e+00  0.00000000e+00  0.00000000e+00
  0.00000000e+00  0.00000000e+00  0.00000000e+00  0.00000000e+00
  0.00000000e+00  0.00000000e+00  0.00000000e+00  0.00000000e+00
  0.00000000e+00  0.00000000e+00 -4.98553618e-07 -6.72386620e-07
  0.00000000e+00  0.00000000e+00  0.00000000e+00  2.88491600e-06]","[[ 0.00026491  0.01372495]
 [-0.00056434  0.00708167]]",[],0.0,0.0
1787208555.1672034,1.9267685061182085,0.27183966438992585,1.989295862398687,"[ 2.40786108e-05 -4.66734051e-07  0.00000000e+00  0.00000000e+00
  0.00000000e+00 -4.98553618e-07 -4.66734051e-07  2.46879372e-05
  0.00000000e+00  0.00000000e+00  0.00000000e+00 -6.72386620e-07
  0.00000000e+00  0.00000000e+00  0.00000000e+00  0.00000000e+00
  0.00000000e+00  0.00000000e+00  0.00000000e+00  0.00000000e+00
  0.00000000e+00  0.00000000e+00  0.00000000e+00  0.00000000e+00
  0.00000000e+00  0.00000000e+00  0.00000000e+00  0.00000000e+00
  0.00000000e+00  0.00000000e+00 -4.98553618e-07 -6.72386620e-07
  0.00000000e+00  0.00000000e+00  0.00000000e+00  2.88491600e-06]","[[ 0.00026491  0.01372495]
 [-0.00056434  0.00708167]]",[],0.0,0.0
1787208555.2169683,1.9267685061182085,0.27183966438992585,1.989295862398687,"[ 2.40786108e-05 -4.66734051e-07  0.00000000e+00  0.00000000e+00
  0.00000000e+00 -4.98553618e-07 -4.66734051e-07  2.46879372e-05
  0.00000000e+00  0.00000000e+00  0.00000000e+00 -6.72386620e-07
  0.00000000e+00  0.00000000e+00  0.00000000e+00  0.00000000e+00
  0.00000000e+00  0.00000000e+00  0.00000000e+00  0.00000000e+00
  0.00000000e+00  0.00000000e+00  0.00000000e+00  0.00000000e+00
  0.00000000e+00  0.00000000e+00  0.00000000e+00  0.00000000e+00
  0.00000000e+00  0.00000000e+00 -4.98553618e-07 -6.72386620e-07
  0.00000000e+00  0.00000000e+00  0.00000000e+00  2.88491600e-06]","[[ 0.00026491  0.01372495]
 [-0.00056434  0.00708167]]",[],0.0,0.0
1787208555.2672365,1.9267685061182085,0.27183966438992585,1.989295862398687,"[ 2.40786108e-05 -4.66734051e-07  0.00000000e+00  0.00000000e+00
  0.00000000e+00 -4.98553618e-07 -4.66734051e-07  2.46879372e-05
  0.00000000e+00  0.00000000e+00  0.00000000e+00 -6.72386620e-07
  0.00000000e+00  0.00000000e+00  0.00000000e+00  0.00000000e+00
  0.00000000e+00  0.00000000e+00  0.00000000e+00  0.00000000e+00
  0.00000000e+00  0.00000000e+00  0.00000000e+00  0.00000000e+00
  0.00000000e+00  0.00000000e+00  0.00000000e+00  0.00000000e+00
  0.00000000e+00  0.00000000e+00 -4.98553618e-07 -6.72386620e-07
  0.00000000e+00  0.00000000e+00  0.00000000e+00  2.88491600e-06]","[[ 0.00026491  0.01372495]
 [-0.00056434  0.00708167]]",[],0.0,0.0
1787208555.3192813,1.9267685061182085,0.27183966438992585,1.989295862398687,"[ 2.40786108e-05 -4.66734051e-07  0.00000000e+00  0.00000000e+00
  0.00000000e+00 -4.98553618e-07 -4.66734051e-07  2.46879372e-05
  0.00000000e+00  0.00000000e+00  0.00000000e+00 -6.72386620e-07
  0.00000000e+00  0.00000000e+00  0.00000000e+00  0.00000000e+00
  0.00000000e+00  0.00000000e+00  0.00000000e+00  0.00000000e+00
  0.00000000e+00  0.00000000e+00  0.00000000e+00  0.00000000e+00
  0.00000000e+00  0.00000000e+00  0.00000000e+00  0.00000000e+00
  0.00000000e+00  0.00000000e+00 -4.98553618e-07 -6.72386620e-07
  0.00000000e+00  0.00000000e+00  0.00000000e+00  2.88491600e-06]","[[ 0.00026491  0.01372495]
 [-0.00056434  0.00708167]]",[],0.0,0.0
1787208555.3739617,1.9267685061182085,0.27183966438992585,1.989295862398687,"[ 2.40786108e-05 -4.66734051e-07  0.00000000e+00  0.00000000e+00
  0.00000000e+00 -4.98553618e-07 -4.66734051e-07  2.46879372e-05
  0.00000000e+00  0.00000000e+00  0.00000000e+00 -6.72386620e-07
  0.00000000e+00  0.00000000e+00  0.00000000e+00  0.00000000e+00
  0.00000000e+00  0.00000000e+00  0.00000000e+00  0.00000000e+00
  0.00000000e+00  0.00000000e+00  0.00000000e+00  0.00000000e+00
  0.00000000e+00  0.00000000e+00  0.00000000e+00  0.00000000e+00
  0.00000000e+00  0.00000000e+00 -4.98553618e-07 -6.72386620e-07
  0.00000000e+00  0.00000000e+00  0.00000000e+00  2.88491600e-06]","[[ 0.00026491  0.01372495]
 [-0.00056434  0.00708167]]",[],0.0,0.0
1787208555.4174426,1.9267685061182085,0.27183966438992585,1.989295862398687,"[ 2.40786108e-05 -4.66734051e-07  0.00000000e+00  0.00000000e+00
  0.00000000e+00 -4.98553618e-07 -4.66734051e-07  2.46879372e-05
  0.00000000e+00  0.00000000e+00  0.00000000e+00 -6.72386620e-07
  0.00000000e+00  0.00000000e+00  0.00000000e+00  0.00000000e+00
  0.00000000e+00  0.00000000e+00  0.00000000e+00  0.00000000e+00
  0.00000000e+00  0.00000000e+00  0.00000000e+00  0.00000000e+00
  0.00000000e+00  0.00000000e+00  0.00000000e+00  0.00000000e+00
  0.00000000e+00  0.00000000e+00 -4.98553618e-07 -6.72386620e-07
  0.00000000e+00  0.00000000e+00  0.00000000e+00  2.88491600e-06]","[[ 0.00026491  0.01372495]
 [-0.00056434  0.00708167]]",[],0.0,0.0
1787208555.4693246,1.9267685061182085,0.27183966438992585,1.989295862398687,"[ 2.40786108e-05 -4.66734051e-07  0.00000000e+00  0.00000000e+00
  0.00000000e+00 -4.98553618e-07 -4.66734051e-07  2.46879372e-05
  0.00000000e+00  0.00000000e+00  0.00000000e+00 -6.72386620e-07
  0.00000000e+00  0.00000000e+00  0.00000000e+00  0.00000000e+00
  0.00000000e+00  0.00000000e+00  0.00000000e+00  0.00000000e+00
  0.00000000e+00  0.00000000e+00  0.00000000e+00  0.00000000e+00
  0.00000000e+00  0.00000000e+00  0.00000000e+00  0.00000000e+00
  0.00000000e+00  0.00000000e+00 -4.98553618e-07 -6.72386620e-07
  0.00000000e+00  0.00000000e+00  0.00000000e+00  2.88491600e-06]","[[ 0.00026491  0.01372495]
 [-0.00056434  0.00708167]]",[],0.0,0.0
1787208555.5195777,1.9267685061182085,0.27183966438992585,1.989295862398687,"[ 2.40786108e-05 -4.66734051e-07  0.00000000e+00  0.00000000e+00
  0.00000000e+00 -4.98553618e-07 -4.66734051e-07  2.46879372e-05
  0.00000000e+00  0.00000000e+00  0.00000000e+00 -6.72386620e-07
  0.00000000e+00  0.00000000e+00  0.00000000e+00  0.00000000e+00
  0.00000000e+00  0.00000000e+00  0.00000000e+00  0.00000000e+00
  0.00000000e+00  0.00000000e+00  0.00000000e+00  0.00000000e+00
  0.00000000e+00  0.00000000e+00  0.00000000e+00  0.00000000e+00
  0.00000000e+00  0.00000000e+00 -4.98553618e-07 -6.72386620e-07
  0.00000000e+00  0.00000000e+00  0.00000000e+00  2.88491600e-06]","[[ 0.00026491  0.01372495]
 [-0.00056434  0.00708167]]",[],0.0,0.0
1787208555.5672874,1.9267685061182085,0.27183966438992585,1.989295862398687,"[ 2.40786108e-05 -4.66734051e-07  0.00000000e+00  0.00000000e+00
  0.00000000e+00 -4.98553618e-07 -4.66734051e-07  2.46879372e-05
  0.00000000e+00  0.00000000e+00  0.00000000e+00 -6.72386620e-07
  0.00000000e+00  0.00000000e+00  0.00000000e+00  0.00000000e+00
  0.00000000e+00  0.00000000e+00  0.00000000e+00  0.00000000e+00
  0.00000000e+00  0.00000000e+00  0.00000000e+00  0.00000000e+00
  0.00000000e+00  0.00000000e+00  0.00000000e+00  0.00000000e+00
  0.00000000e+00  0.00000000e+00 -4.98553618e-07 -6.72386620e-07
  0.00000000e+00  0.00000000e+00  0.00000000e+00  2.88491600e-06]","[[ 0.00026491  0.01372495]
 [-0.00056434  0.00708167]]",[],0.0,0.0
1787208555.61706,1.9267685061182085,0.27183966438992585,1.989295862398687,"[ 2.40786108e-05 -4.66734051e-07  0.00000000e+00  0.00000000e+00
  0.00000000e+00 -4.98553618e-07 -4.66734051e-07  2.46879372e-05
  0.00000000e+00  0.00000000e+00  0.00000000e+00 -6.72386620e-07
  0.00000000e+00  0.00000000e+00  0.00000000e+00  0.00000000e+00
  0.00000000e+00  0.00000000e+00  0.00000000e+00  0.00000000e+00
  0.00000000e+00  0.00000000e+00  0.00000000e+00  0.00000000e+00
  0.00000000e+00  0.00000000e+00  0.00000000e+00  0.00000000e+00
  0.00000000e+00  0.00000000e+00 -4.98553618e-07 -6.72386620e-07
  0.00000000e+00  0.00000000e+00  0.00000000e+00  2.88491600e-06]","[[ 0.00026491  0.01372495]
 [-0.00056434  0.00708167]]",[],0.0,0.0
1787208555.668903,1.9267685061182085,0.27183966438992585,1.989295862398687,"[ 2.40786108e-05 -4.66734051e-07  0.00000000e+00  0.00000000e+00
  0.00000000e+00 -4.98553618e-07 -4.66734051e-07  2.46879372e-05
  0.00000000e+00  0.00000000e+00  0.00000000e+00 -6.72386620e-07
  0.00000000e+00  0.00000000e+00  0.00000000e+00  0.00000000e+00
  0.00000000e+00  0.00000000e+00  0.00000000e+00  0.00000000e+00
  0.00000000e+00  0.00000000e+00  0.00000000e+00  0.00000000e+00
  0.00000000e+00  0.00000000e+00  0.00000000e+00  0.00000000e+00
  0.00000000e+00  0.00000000e+00 -4.98553618e-07 -6.72386620e-07
  0.00000000e+00  0.00000000e+00  0.00000000e+00  2.88491600e-06]","[[ 0.00026491  0.01372495]
 [-0.00056434  0.00708167]]",[],0.0,0.0
1787208555.740079,1.9267685061182085,0.27183966438992585,1.989295862398687,"[ 2.40786108e-05 -4.66734051e-07  0.00000000e+00  0.00000000e+00
  0.00000000e+00 -4.98553618e-07 -4.66734051e-07  2.46879372e-05
  0.00000000e+00  0.00000000e+00  0.00000000e+00 -6.72386620e-07
  0.00000000e+00  0.00000000e+00  0.00000000e+00  0.00000000e+00
  0.00000000e+00  0.00000000e+00  0.00000000e+00  0.00000000e+00
  0.00000000e+00  0.00000000e+00  0.00000000e+00  0.00000000e+00
  0.00000000e+00  0.00000000e+00  0.00000000e+00  0.00000000e+00
  0.00000000e+00  0.00000000e+00 -4.98553618e-07 -6.72386620e-07
  0.00000000e+00  0.00000000e+00  0.00000000e+00  2.88491600e-06]","[[ 0.00026491  0.01372495]
 [-0.00056434  0.00708167]]",[],0.0,0.0
1787208555.7690609,1.9267685061182085,0.27183966438992585,1.989295862398687,"[ 2.40786108e-05 -4.66734051e-07  0.00000000e+00  0.00000000e+00
  0.00000000e+00 -4.98553618e-07 -4.66734051e-07  2.46879372e-05
  0.00000000e+00  0.00000000e+00  0.00000000e+00 -6.72386620e-07
  0.00000000e+00  0.00000000e+00  0.00000000e+00  0.00000000e+00
  0.00000000e+00  0.00000000e+00  0.00000000e+00  0.00000000e+00
  0.00000000e+00  0.00000000e+00  0.00000000e+00  0.00000000e+00
  0.00000000e+00  0.00000000e+00  0.00000000e+00  0.00000000e+00
  0.00000000e+00  0.00000000e+00 -4.98553618e-07 -6.72386620e-07
  0.00000000e+00  0.00000000e+00  0.00000000e+00  2.88491600e-06]","[[ 0.00026491  0.01372495]
 [-0.00056434  0.00708167]]",[],0.0,0.0
1787208555.841112,1.9267685061182085,0.27183966438992585,1.989295862398687,"[ 2.40786108e-05 -4.66734051e-07  0.00000000e+00  0.00000000e+00
  0.00000000e+00 -4.98553618e-07 -4.66734051e-07  2.46879372e-05
  0.00000000e+00  0.00000000e+00  0.00000000e+00 -6.72386620e-07
  0.00000000e+00  0.00000000e+00  0.00000000e+00  0.00000000e+00
  0.00000000e+00  0.00000000e+00  0.00000000e+00  0.00000000e+00
  0.00000000e+00  0.00000000e+00  0.00000000e+00  0.00000000e+00
  0.00000000e+00  0.00000000e+00  0.00000000e+00  0.00000000e+00
  0.00000000e+00  0.00000000e+00 -4.98553618e-07 -6.72386620e-07
  0.00000000e+00  0.00000000e+00  0.00000000e+00  2.88491600e-06]","[[ 0.00026491  0.01372495]
 [-0.00056434  0.00708167]]",[],0.0,0.0
1787208555.8695693,1.9226133037686526,0.26152598914576985,1.991836074532617,"[ 1.58024616e-05 -5.13847183e-07  0.00000000e+00  0.00000000e+00
  0.00000000e+00 -3.43184136e-07 -5.13847183e-07  1.64590969e-05
  0.00000000e+00  0.00000000e+00  0.00000000e+00 -2.69464967e-07
  0.00000000e+00  0.00000000e+00  0.00000000e+00  0.00000000e+00
  0.00000000e+00  0.00000000e+00  0.00000000e+00  0.00000000e+00
  0.00000000e+00  0.00000000e+00  0.00000000e+00  0.00000000e+00
  0.00000000e+00  0.00000000e+00  0.00000000e+00  0.00000000e+00
  0.00000000e+00  0.00000000e+00 -3.43184136e-07 -2.69464967e-07
  0.00000000e+00  0.00000000e+00  0.00000000e+00  2.91575015e-06]","[[ 0.00026491  0.01372495]
 [-0.00056434  0.00708167]]",[],0.0,0.0
1787208555.9176712,1.9226133037686526,0.26152598914576985,1.991836074532617,"[ 1.58024616e-05 -5.13847183e-07  0.00000000e+00  0.00000000e+00
  0.00000000e+00 -3.43184136e-07 -5.13847183e-07  1.64590969e-05
  0.00000000e+00  0.00000000e+00  0.00000000e+00 -2.69464967e-07
  0.00000000e+00  0.00000000e+00  0.00000000e+00  0.00000000e+00
  0.00000000e+00  0.00000000e+00  0.00000000e+00  0.00000000e+00
  0.00000000e+00  0.00000000e+00  0.00000000e+00  0.00000000e+00
  0.00000000e+00  0.00000000e+00  0.00000000e+00  0.00000000e+00
  0.00000000e+00  0.00000000e+00 -3.43184136e-07 -2.69464967e-07
  0.00000000e+00  0.00000000e+00  0.00000000e+00  2.91575015e-06]","[[ 0.00017897  0.00893376]
 [-0.00037818  0.00430683]]",[],0.0,0.0
1787208555.9685647,1.9226133037686526,0.26152598914576985,1.991836074532617,"[ 1.58024616e-05 -5.13847183e-07  0.00000000e+00  0.00000000e+00
  0.00000000e+00 -3.43184136e-07 -5.13847183e-07  1.64590969e-05
  0.00000000e+00  0.00000000e+00  0.00000000e+00 -2.69464967e-07
  0.00000000e+00  0.00000000e+00  0.00000000e+00  0.00000000e+00
  0.00000000e+00  0.00000000e+00  0.00000000e+00  0.00000000e+00
  0.00000000e+00  0.00000000e+00  0.00000000e+00  0.00000000e+00
  0.00000000e+00  0.00000000e+00  0.00000000e+00  0.00000000e+00
  0.00000000e+00  0.00000000e+00 -3.43184136e-07 -2.69464967e-07
  0.00000000e+00  0.00000000e+00  0.00000000e+00  2.91575015e-06]","[[ 0.00017897  0.00893376]
 [-0.00037818  0.00430683]]",[],0.0,0.0
1787208556.0185428,1.9226133037686526,0.26152598914576985,1.991836074532617,"[ 1.58024616e-05 -5.13847183e-07  0.00000000e+00  0.00000000e+00
  0.00000000e+00 -3.43184136e-07 -5.13847183e-07  1.64590969e-05
  0.00000000e+00  0.00000000e+00  0.00000000e+00 -2.69464967e-07
  0.00000000e+00  0.00000000e+00  0.00000000e+00  0.00000000e+00
  0.00000000e+00  0.00000000e+00  0.00000000e+00  0.00000000e+00
  0.00000000e+00  0.00000000e+00  0.00000000e+00  0.00000000e+00
  0.00000000e+00  0.00000000e+00  0.00000000e+00  0.00000000e+00
  0.00000000e+00  0.00000000e+00 -3.43184136e-07 -2.69464967e-07
  0.00000000e+00  0.00000000e+00  0.00000000e+00  2.91575015e-06]","[[ 0.00017897  0.00893376]
 [-0.00037818  0.00430683]]",[],0.0,0.0
1787208556.0693893,1.9226133037686526,0.26152598914576985,1.991836074532617,"[ 1.58024616e-05 -5.13847183e-07  0.00000000e+00  0.00000000e+00
  0.00000000e+00 -3.43184136e-07 -5.13847183e-07  1.64590969e-05
  0.00000000e+00  0.00000000e+00  0.00000000e+00 -2.69464967e-07
  0.00000000e+00  0.00000000e+00  0.00000000e+00  0.00000000e+00
  0.00000000e+00  0.00000000e+00  0.00000000e+00  0.00000000e+00
  0.00000000e+00  0.00000000e+00  0.00000000e+00  0.00000000e+00
  0.00000000e+00  0.00000000e+00  0.00000000e+00  0.00000000e+00
  0.00000000e+00  0.00000000e+00 -3.43184136e-07 -2.69464967e-07
  0.00000000e+00  0.00000000e+00  0.00000000e+00  2.91575015e-06]","[[ 0.00017897  0.00893376]
 [-0.00037818  0.00430683]]",[],0.0,0.0
1787208556.1244538,1.9226133037686526,0.26152598914576985,1.991836074532617,"[ 1.58024616e-05 -5.13847183e-07  0.00000000e+00  0.00000000e+00
  0.00000000e+00 -3.43184136e-07 -5.13847183e-07  1.64590969e-05
  0.00000000e+00  0.00000000e+00  0.00000000e+00 -2.69464967e-07
  0.00000000e+00  0.00000000e+00  0.00000000e+00  0.00000000e+00
  0.00000000e+00  0.00000000e+00  0.00000000e+00  0.00000000e+00
  0.00000000e+00  0.00000000e+00  0.00000000e+00  0.00000000e+00
  0.00000000e+00  0.00000000e+00  0.00000000e+00  0.00000000e+00
  0.00000000e+00  0.00000000e+00 -3.43184136e-07 -2.69464967e-07
  0.00000000e+00  0.00000000e+00  0.00000000e+00  2.91575015e-06]","[[ 0.00017897  0.00893376]
 [-0.00037818  0.00430683]]",[],0.0,0.0
1787208556.1695678,1.9226133037686526,0.26152598914576985,1.991836074532617,"[ 1.58024616e-05 -5.13847183e-07  0.00000000e+00  0.00000000e+00
  0.00000000e+00 -3.43184136e-07 -5.13847183e-07  1.64590969e-05
  0.00000000e+00  0.00000000e+00  0.00000000e+00 -2.69464967e-07
  0.00000000e+00  0.00000000e+00  0.00000000e+00  0.00000000e+00
  0.00000000e+00  0.00000000e+00  0.00000000e+00  0.00000000e+00
  0.00000000e+00  0.00000000e+00  0.00000000e+00  0.00000000e+00
  0.00000000e+00  0.00000000e+00  0.00000000e+00  0.00000000e+00
  0.00000000e+00  0.00000000e+00 -3.43184136e-07 -2.69464967e-07
  0.00000000e+00  0.00000000e+00  0.00000000e+00  2.91575015e-06]","[[ 0.00017897  0.00893376]
 [-0.00037818  0.00430683]]",[],0.0,0.0
1787208556.2214675,1.9226133037686526,0.26152598914576985,1.991836074532617,"[ 1.58024616e-05 -5.13847183e-07  0.00000000e+00  0.00000000e+00
  0.00000000e+00 -3.43184136e-07 -5.13847183e-07  1.64590969e-05
  0.00000000e+00  0.00000000e+00  0.00000000e+00 -2.69464967e-07
  0.00000000e+00  0.00000000e+00  0.00000000e+00  0.00000000e+00
  0.00000000e+00  0.00000000e+00  0.00000000e+00  0.00000000e+00
  0.00000000e+00  0.00000000e+00  0.00000000e+00  0.00000000e+00
  0.00000000e+00  0.00000000e+00  0.00000000e+00  0.00000000e+00
  0.00000000e+00  0.00000000e+00 -3.43184136e-07 -2.69464967e-07
  0.00000000e+00  0.00000000e+00  0.00000000e+00  2.91575015e-06]","[[ 0.00017897  0.00893376]
 [-0.00037818  0.00430683]]",[],0.0,0.0
1787208556.2671854,1.9226133037686526,0.26152598914576985,1.991836074532617,"[ 1.58024616e-05 -5.13847183e-07  0.00000000e+00  0.00000000e+00
  0.00000000e+00 -3.43184136e-07 -5.13847183e-07  1.64590969e-05
  0.00000000e+00  0.00000000e+00  0.00000000e+00 -2.69464967e-07
  0.00000000e+00  0.00000000e+00  0.00000000e+00  0.00000000e+00
  0.00000000e+00  0.00000000e+00  0.00000000e+00  0.00000000e+00
  0.00000000e+00  0.00000000e+00  0.00000000e+00  0.00000000e+00
  0.00000000e+00  0.00000000e+00  0.00000000e+00  0.00000000e+00
  0.00000000e+00  0.00000000e+00 -3.43184136e-07 -2.69464967e-07
  0.00000000e+00  0.00000000e+00  0.00000000e+00  2.91575015e-06]","[[ 0.00017897  0.00893376]
 [-0.00037818  0.00430683]]",[],0.0,0.0
1787208556.3171377,1.9226133037686526,0.26152598914576985,1.991836074532617,"[ 1.58024616e-05 -5.13847183e-07  0.00000000e+00  0.00000000e+00
  0.00000000e+00 -3.43184136e-07 -5.13847183e-07  1.64590969e-05
  0.00000000e+00  0.00000000e+00  0.00000000e+00 -2.69464967e-07
  0.00000000e+00  0.00000000e+00  0.00000000e+00  0.00000000e+00
  0.00000000e+00  0.00000000e+00  0.00000000e+00  0.00000000e+00
  0.00000000e+00  0.00000000e+00  0.00000000e+00  0.00000000e+00
  0.00000000e+00  0.00000000e+00  0.00000000e+00  0.00000000e+00
  0.00000000e+00  0.00000000e+00 -3.43184136e-07 -2.69464967e-07
  0.00000000e+00  0.00000000e+00  0.00000000e+00  2.91575015e-06]","[[ 0.00017897  0.00893376]
 [-0.00037818  0.00430683]]",[],0.0,0.0
1787208556.3757534,1.9226133037686526,0.26152598914576985,1.991836074532617,"[ 1.58024616e-05 -5.13847183e-07  0.00000000e+00  0.00000000e+00
  0.00000000e+00 -3.43184136e-07 -5.13847183e-07  1.64590969e-05
  0.00000000e+00  0.00000000e+00  0.00000000e+00 -2.69464967e-07
  0.00000000e+00  0.00000000e+00  0.00000000e+00  0.00000000e+00
  0.00000000e+00  0.00000000e+00  0.00000000e+00  0.00000000e+00
  0.00000000e+00  0.00000000e+00  0.00000000e+00  0.00000000e+00
  0.00000000e+00  0.00000000e+00  0.00000000e+00  0.00000000e+00
  0.00000000e+00  0.00000000e+00 -3.43184136e-07 -2.69464967e-07
  0.00000000e+00  0.00000000e+00  0.00000000e+00  2.91575015e-06]","[[ 0.00017897  0.00893376]
 [-0.00037818  0.00430683]]",[],0.0,0.0
1787208556.41801,1.9226133037686526,0.26152598914576985,1.991836074532617,"[ 1.58024616e-05 -5.13847183e-07  0.00000000e+00  0.00000000e+00
  0.00000000e+00 -3.43184136e-07 -5.13847183e-07  1.64590969e-05
  0.00000000e+00  0.00000000e+00  0.00000000e+00 -2.69464967e-07
  0.00000000e+00  0.00000000e+00  0.00000000e+00  0.00000000e+00
  0.00000000e+00  0.00000000e+00  0.00000000e+00  0.00000000e+00
  0.00000000e+00  0.00000000e+00  0.00000000e+00  0.00000000e+00
  0.00000000e+00  0.00000000e+00  0.00000000e+00  0.00000000e+00
  0.00000000e+00  0.00000000e+00 -3.43184136e-07 -2.69464967e-07
  0.00000000e+00  0.00000000e+00  0.00000000e+00  2.91575015e-06]","[[ 0.00017897  0.00893376]
 [-0.00037818  0.00430683]]",[],0.0,0.0
1787208556.4688213,1.9226133037686526,0.26152598914576985,1.991836074532617,"[ 1.58024616e-05 -5.13847183e-07  0.00000000e+00  0.00000000e+00
  0.00000000e+00 -3.43184136e-07 -5.13847183e-07  1.64590969e-05
  0.00000000e+00  0.00000000e+00  0.00000000e+00 -2.69464967e-07
  0.00000000e+00  0.00000000e+00  0.00000000e+00  0.00000000e+00
  0.00000000e+00  0.00000000e+00  0.00000000e+00  0.00000000e+00
  0.00000000e+00  0.00000000e+00  0.00000000e+00  0.00000000e+00
  0.00000000e+00  0.00000000e+00  0.00000000e+00  0.00000000e+00
  0.00000000e+00  0.00000000e+00 -3.43184136e-07 -2.69464967e-07
  0.00000000e+00  0.00000000e+00  0.00000000e+00  2.91575015e-06]","[[ 0.00017897  0.00893376]
 [-0.00037818  0.00430683]]",[],0.0,0.0
1787208556.5199237,1.9226133037686526,0.26152598914576985,1.991836074532617,"[ 1.58024616e-05 -5.13847183e-07  0.00000000e+00  0.00000000e+00
  0.00000000e+00 -3.43184136e-07 -5.13847183e-07  1.64590969e-05
  0.00000000e+00  0.00000000e+00  0.00000000e+00 -2.69464967e-07
  0.00000000e+00  0.00000000e+00  0.00000000e+00  0.00000000e+00
  0.00000000e+00  0.00000000e+00  0.00000000e+00  0.00000000e+00
  0.00000000e+00  0.00000000e+00  0.00000000e+00  0.00000000e+00
  0.00000000e+00  0.00000000e+00  0.00000000e+00  0.00000000e+00
  0.00000000e+00  0.00000000e+00 -3.43184136e-07 -2.69464967e-07
  0.00000000e+00  0.00000000e+00  0.00000000e+00  2.91575015e-06]","[[ 0.00017897  0.00893376]
 [-0.00037818  0.00430683]]",[],0.0,0.0
1787208556.576711,1.9226133037686526,0.26152598914576985,1.991836074532617,"[ 1.58024616e-05 -5.13847183e-07  0.00000000e+00  0.00000000e+00
  0.00000000e+00 -3.43184136e-07 -5.13847183e-07  1.64590969e-05
  0.00000000e+00  0.00000000e+00  0.00000000e+00 -2.69464967e-07
  0.00000000e+00  0.00000000e+00  0.00000000e+00  0.00000000e+00
  0.00000000e+00  0.00000000e+00  0.00000000e+00  0.00000000e+00
  0.00000000e+00  0.00000000e+00  0.00000000e+00  0.00000000e+00
  0.00000000e+00  0.00000000e+00  0.00000000e+00  0.00000000e+00
  0.00000000e+00  0.00000000e+00 -3.43184136e-07 -2.69464967e-07
  0.00000000e+00  0.00000000e+00  0.00000000e+00  2.91575015e-06]","[[ 0.00017897  0.00893376]
 [-0.00037818  0.00430683]]",[],0.0,0.0
1787208556.6588082,1.9226133037686526,0.26152598914576985,1.991836074532617,"[ 1.58024616e-05 -5.13847183e-07  0.00000000e+00  0.00000000e+00
  0.00000000e+00 -3.43184136e-07 -5.13847183e-07  1.64590969e-05
  0.00000000e+00  0.00000000e+00  0.00000000e+00 -2.69464967e-07
  0.00000000e+00  0.00000000e+00  0.00000000e+00  0.00000000e+00
  0.00000000e+00  0.00000000e+00  0.00000000e+00  0.00000000e+00
  0.00000000e+00  0.00000000e+00  0.00000000e+00  0.00000000e+00
  0.00000000e+00  0.00000000e+00  0.00000000e+00  0.00000000e+00
  0.00000000e+00  0.00000000e+00 -3.43184136e-07 -2.69464967e-07
  0.00000000e+00  0.00000000e+00  0.00000000e+00  2.91575015e-06]","[[ 0.00017897  0.00893376]
 [-0.00037818  0.00430683]]",[],0.0,0.0
1787208556.669618,1.9226133037686526,0.26152598914576985,1.991836074532617,"[ 1.58024616e-05 -5.13847183e-07  0.00000000e+00  0.00000000e+00
  0.00000000e+00 -3.43184136e-07 -5.13847183e-07  1.64590969e-05
  0.00000000e+00  0.00000000e+00  0.00000000e+00 -2.69464967e-07
  0.00000000e+00  0.00000000e+00  0.00000000e+00  0.00000000e+00
  0.00000000e+00  0.00000000e+00  0.00000000e+00  0.00000000e+00
  0.00000000e+00  0.00000000e+00  0.00000000e+00  0.00000000e+00
  0.00000000e+00  0.00000000e+00  0.00000000e+00  0.00000000e+00
  0.00000000e+00  0.00000000e+00 -3.43184136e-07 -2.69464967e-07
  0.00000000e+00  0.00000000e+00  0.00000000e+00  2.91575015e-06]","[[ 0.00017897  0.00893376]
 [-0.00037818  0.00430683]]",[],0.0,0.0
1787208556.7331278,1.9201939599952016,0.25641937363157385,1.9937057746776816,"[ 1.18801044e-05 -4.35890026e-07  0.00000000e+00  0.00000000e+00
  0.00000000e+00 -2.28893461e-07 -4.35890026e-07  1.24609459e-05
  0.00000000e+00  0.00000000e+00  0.00000000e+00 -1.90152313e-07
  0.00000000e+00  0.00000000e+00  0.00000000e+00  0.00000000e+00
  0.00000000e+00  0.00000000e+00  0.00000000e+00  0.00000000e+00
  0.00000000e+00  0.00000000e+00  0.00000000e+00  0.00000000e+00
  0.00000000e+00  0.00000000e+00  0.00000000e+00  0.00000000e+00
  0.00000000e+00  0.00000000e+00 -2.28893461e-07 -1.90152313e-07
  0.00000000e+00  0.00000000e+00  0.00000000e+00  2.94958204e-06]","[[ 0.0001349   0.00664795]
 [-0.00028717  0.00318488]]",[],0.0,0.0
1787208556.781351,1.9201939599952016,0.25641937363157385,1.9937057746776816,"[ 1.18801044e-05 -4.35890026e-07  0.00000000e+00  0.00000000e+00
  0.00000000e+00 -2.28893461e-07 -4.35890026e-07  1.24609459e-05
  0.00000000e+00  0.00000000e+00  0.00000000e+00 -1.90152313e-07
  0.00000000e+00  0.00000000e+00  0.00000000e+00  0.00000000e+00
  0.00000000e+00  0.00000000e+00  0.00000000e+00  0.00000000e+00
  0.00000000e+00  0.00000000e+00  0.00000000e+00  0.00000000e+00
  0.00000000e+00  0.00000000e+00  0.00000000e+00  0.00000000e+00
  0.00000000e+00  0.00000000e+00 -2.28893461e-07 -1.90152313e-07
  0.00000000e+00  0.00000000e+00  0.00000000e+00  2.94958204e-06]","[[ 0.0001349   0.00664795]
 [-0.00028717  0.00318488]]",[],0.0,0.0
1787208556.8685806,1.9201939599952016,0.25641937363157385,1.9937057746776816,"[ 1.18801044e-05 -4.35890026e-07  0.00000000e+00  0.00000000e+00
  0.00000000e+00 -2.28893461e-07 -4.35890026e-07  1.24609459e-05
  0.00000000e+00  0.00000000e+00  0.00000000e+00 -1.90152313e-07
  0.00000000e+00  0.00000000e+00  0.00000000e+00  0.00000000e+00
  0.00000000e+00  0.00000000e+00  0.00000000e+00  0.00000000e+00
  0.00000000e+00  0.00000000e+00  0.00000000e+00  0.00000000e+00
  0.00000000e+00  0.00000000e+00  0.00000000e+00  0.00000000e+00
  0.00000000e+00  0.00000000e+00 -2.28893461e-07 -1.90152313e-07
  0.00000000e+00  0.00000000e+00  0.00000000e+00  2.94958204e-06]","[[ 0.0001349   0.00664795]
 [-0.00028717  0.00318488]]",[],0.0,0.0
1787208556.9243557,1.9201939599952016,0.25641937363157385,1.9937057746776816,"[ 1.18801044e-05 -4.35890026e-07  0.00000000e+00  0.00000000e+00
  0.00000000e+00 -2.28893461e-07 -4.35890026e-07  1.24609459e-05
  0.00000000e+00  0.00000000e+00  0.00000000e+00 -1.90152313e-07
  0.00000000e+00  0.00000000e+00  0.00000000e+00  0.00000000e+00
  0.00000000e+00  0.00000000e+00  0.00000000e+00  0.00000000e+00
  0.00000000e+00  0.00000000e+00  0.00000000e+00  0.00000000e+00
  0.00000000e+00  0.00000000e+00  0.00000000e+00  0.00000000e+00
  0.00000000e+00  0.00000000e+00 -2.28893461e-07 -1.90152313e-07
  0.00000000e+00  0.00000000e+00  0.00000000e+00  2.94958204e-06]","[[ 0.0001349   0.00664795]
 [-0.00028717  0.00318488]]",[],0.0,0.0
1787208556.9826581,1.9201939599952016,0.25641937363157385,1.9937057746776816,"[ 1.18801044e-05 -4.35890026e-07  0.00000000e+00  0.00000000e+00
  0.00000000e+00 -2.28893461e-07 -4.35890026e-07  1.24609459e-05
  0.00000000e+00  0.00000000e+00  0.00000000e+00 -1.90152313e-07
  0.00000000e+00  0.00000000e+00  0.00000000e+00  0.00000000e+00
  0.00000000e+00  0.00000000e+00  0.00000000e+00  0.00000000e+00
  0.00000000e+00  0.00000000e+00  0.00000000e+00  0.00000000e+00
  0.00000000e+00  0.00000000e+00  0.00000000e+00  0.00000000e+00
  0.00000000e+00  0.00000000e+00 -2.28893461e-07 -1.90152313e-07
  0.00000000e+00  0.00000000e+00  0.00000000e+00  2.94958204e-06]","[[ 0.0001349   0.00664795]
 [-0.00028717  0.00318488]]",[],0.0,0.0
1787208557.0649989,1.9201939599952016,0.25641937363157385,1.9937057746776816,"[ 1.18801044e-05 -4.35890026e-07  0.00000000e+00  0.00000000e+00
  0.00000000e+00 -2.28893461e-07 -4.35890026e-07  1.24609459e-05
  0.00000000e+00  0.00000000e+00  0.00000000e+00 -1.90152313e-07
  0.00000000e+00  0.00000000e+00  0.00000000e+00  0.00000000e+00
  0.00000000e+00  0.00000000e+00  0.00000000e+00  0.00000000e+00
  0.00000000e+00  0.00000000e+00  0.00000000e+00  0.00000000e+00
  0.00000000e+00  0.00000000e+00  0.00000000e+00  0.00000000e+00
  0.00000000e+00  0.00000000e+00 -2.28893461e-07 -1.90152313e-07
  0.00000000e+00  0.00000000e+00  0.00000000e+00  2.94958204e-06]","[[ 0.0001349   0.00664795]
 [-0.00028717  0.00318488]]",[],0.0,0.0
1787208557.0666234,1.9201939599952016,0.25641937363157385,1.9937057746776816,"[ 1.18801044e-05 -4.35890026e-07  0.00000000e+00  0.00000000e+00
  0.00000000e+00 -2.28893461e-07 -4.35890026e-07  1.24609459e-05
  0.00000000e+00  0.00000000e+00  0.00000000e+00 -1.90152313e-07
  0.00000000e+00  0.00000000e+00  0.00000000e+00  0.00000000e+00
  0.00000000e+00  0.00000000e+00  0.00000000e+00  0.00000000e+00
  0.00000000e+00  0.00000000e+00  0.00000000e+00  0.00000000e+00
  0.00000000e+00  0.00000000e+00  0.00000000e+00  0.00000000e+00
  0.00000000e+00  0.00000000e+00 -2.28893461e-07 -1.90152313e-07
  0.00000000e+00  0.00000000e+00  0.00000000e+00  2.94958204e-06]","[[ 0.0001349   0.00664795]
 [-0.00028717  0.00318488]]",[],0.0,0.0
1787208557.1332676,1.9201939599952016,0.25641937363157385,1.9937057746776816,"[ 1.18801044e-05 -4.35890026e-07  0.00000000e+00  0.00000000e+00
  0.00000000e+00 -2.28893461e-07 -4.35890026e-07  1.24609459e-05
  0.00000000e+00  0.00000000e+00  0.00000000e+00 -1.90152313e-07
  0.00000000e+00  0.00000000e+00  0.00000000e+00  0.00000000e+00
  0.00000000e+00  0.00000000e+00  0.00000000e+00  0.00000000e+00
  0.00000000e+00  0.00000000e+00  0.00000000e+00  0.00000000e+00
  0.00000000e+00  0.00000000e+00  0.00000000e+00  0.00000000e+00
  0.00000000e+00  0.00000000e+00 -2.28893461e-07 -1.90152313e-07
  0.00000000e+00  0.00000000e+00  0.00000000e+00  2.94958204e-06]","[[ 0.0001349   0.00664795]
 [-0.00028717  0.00318488]]",[],0.0,0.0
1787208557.168193,1.9201939599952016,0.25641937363157385,1.9937057746776816,"[ 1.18801044e-05 -4.35890026e-07  0.00000000e+00  0.00000000e+00
  0.00000000e+00 -2.28893461e-07 -4.35890026e-07  1.24609459e-05
  0.00000000e+00  0.00000000e+00  0.00000000e+00 -1.90152313e-07
  0.00000000e+00  0.00000000e+00  0.00000000e+00  0.00000000e+00
  0.00000000e+00  0.00000000e+00  0.00000000e+00  0.00000000e+00
  0.00000000e+00  0.00000000e+00  0.00000000e+00  0.00000000e+00
  0.00000000e+00  0.00000000e+00  0.00000000e+00  0.00000000e+00
  0.00000000e+00  0.00000000e+00 -2.28893461e-07 -1.90152313e-07
  0.00000000e+00  0.00000000e+00  0.00000000e+00  2.94958204e-06]","[[ 0.0001349   0.00664795]
 [-0.00028717  0.00318488]]",[],0.0,0.0
1787208557.219722,1.9201939599952016,0.25641937363157385,1.9937057746776816,"[ 1.18801044e-05 -4.35890026e-07  0.00000000e+00  0.00000000e+00
  0.00000000e+00 -2.28893461e-07 -4.35890026e-07  1.24609459e-05
  0.00000000e+00  0.00000000e+00  0.00000000e+00 -1.90152313e-07
  0.00000000e+00  0.00000000e+00  0.00000000e+00  0.00000000e+00
  0.00000000e+00  0.00000000e+00  0.00000000e+00  0.00000000e+00
  0.00000000e+00  0.00000000e+00  0.00000000e+00  0.00000000e+00
  0.00000000e+00  0.00000000e+00  0.00000000e+00  0.00000000e+00
  0.00000000e+00  0.00000000e+00 -2.28893461e-07 -1.90152313e-07
  0.00000000e+00  0.00000000e+00  0.00000000e+00  2.94958204e-06]","[[ 0.0001349   0.00664795]
 [-0.00028717  0.00318488]]",[],0.0,0.0
1787208557.2725883,1.9201939599952016,0.25641937363157385,1.9937057746776816,"[ 1.18801044e-05 -4.35890026e-07  0.00000000e+00  0.00000000e+00
  0.00000000e+00 -2.28893461e-07 -4.35890026e-07  1.24609459e-05
  0.00000000e+00  0.00000000e+00  0.00000000e+00 -1.90152313e-07
  0.00000000e+00  0.00000000e+00  0.00000000e+00  0.00000000e+00
  0.00000000e+00  0.00000000e+00  0.00000000e+00  0.00000000e+00
  0.00000000e+00  0.00000000e+00  0.00000000e+00  0.00000000e+00
  0.00000000e+00  0.00000000e+00  0.00000000e+00  0.00000000e+00
  0.00000000e+00  0.00000000e+00 -2.28893461e-07 -1.90152313e-07
  0.00000000e+00  0.00000000e+00  0.00000000e+00  2.94958204e-06]","[[ 0.0001349   0.00664795]
 [-0.00028717  0.00318488]]",[],0.0,0.0
1787208557.3239648,1.9201939599952016,0.25641937363157385,1.9937057746776816,"[ 1.18801044e-05 -4.35890026e-07  0.00000000e+00  0.00000000e+00
  0.00000000e+00 -2.28893461e-07 -4.35890026e-07  1.24609459e-05
  0.00000000e+00  0.00000000e+00  0.00000000e+00 -1.90152313e-07
  0.00000000e+00  0.00000000e+00  0.00000000e+00  0.00000000e+00
  0.00000000e+00  0.00000000e+00  0.00000000e+00  0.00000000e+00
  0.00000000e+00  0.00000000e+00  0.00000000e+00  0.00000000e+00
  0.00000000e+00  0.00000000e+00  0.00000000e+00  0.00000000e+00
  0.00000000e+00  0.00000000e+00 -2.28893461e-07 -1.90152313e-07
  0.00000000e+00  0.00000000e+00  0.00000000e+00  2.94958204e-06]","[[ 0.0001349   0.00664795]
 [-0.00028717  0.00318488]]",[],0.0,0.0
1787208557.3681953,1.9201939599952016,0.25641937363157385,1.9937057746776816,"[ 1.18801044e-05 -4.35890026e-07  0.00000000e+00  0.00000000e+00
  0.00000000e+00 -2.28893461e-07 -4.35890026e-07  1.24609459e-05
  0.00000000e+00  0.00000000e+00  0.00000000e+00 -1.90152313e-07
  0.00000000e+00  0.00000000e+00  0.00000000e+00  0.00000000e+00
  0.00000000e+00  0.00000000e+00  0.00000000e+00  0.00000000e+00
  0.00000000e+00  0.00000000e+00  0.00000000e+00  0.00000000e+00
  0.00000000e+00  0.00000000e+00  0.00000000e+00  0.00000000e+00
  0.00000000e+00  0.00000000e+00 -2.28893461e-07 -1.90152313e-07
  0.00000000e+00  0.00000000e+00  0.00000000e+00  2.94958204e-06]","[[ 0.0001349   0.00664795]
 [-0.00028717  0.00318488]]",[],0.0,0.0
1787208557.4395115,1.9201939599952016,0.25641937363157385,1.9937057746776816,"[ 1.18801044e-05 -4.35890026e-07  0.00000000e+00  0.00000000e+00
  0.00000000e+00 -2.28893461e-07 -4.35890026e-07  1.24609459e-05
  0.00000000e+00  0.00000000e+00  0.00000000e+00 -1.90152313e-07
  0.00000000e+00  0.00000000e+00  0.00000000e+00  0.00000000e+00
  0.00000000e+00  0.00000000e+00  0.00000000e+00  0.00000000e+00
  0.00000000e+00  0.00000000e+00  0.00000000e+00  0.00000000e+00
  0.00000000e+00  0.00000000e+00  0.00000000e+00  0.00000000e+00
  0.00000000e+00  0.00000000e+00 -2.28893461e-07 -1.90152313e-07
  0.00000000e+00  0.00000000e+00  0.00000000e+00  2.94958204e-06]","[[ 0.0001349   0.00664795]
 [-0.00028717  0.00318488]]",[],0.0,0.0
1787208557.468533,1.9168080931669054,0.2545009761213239,1.996074952485202,"[ 9.51370598e-06 -3.61235016e-07  0.00000000e+00  0.00000000e+00
  0.00000000e+00 -1.87904781e-07 -3.61235016e-07  1.01395674e-05
  0.00000000e+00  0.00000000e+00  0.00000000e+00 -1.60662666e-07
  0.00000000e+00  0.00000000e+00  0.00000000e+00  0.00000000e+00
  0.00000000e+00  0.00000000e+00  0.00000000e+00  0.00000000e+00
  0.00000000e+00  0.00000000e+00  0.00000000e+00  0.00000000e+00
  0.00000000e+00  0.00000000e+00  0.00000000e+00  0.00000000e+00
  0.00000000e+00  0.00000000e+00 -1.87904781e-07 -1.60662666e-07
  0.00000000e+00  0.00000000e+00  0.00000000e+00  2.92004865e-06]","[[ 0.00010798  0.00532581]
 [-0.00023389  0.00258627]]",[],0.0,0.0
1787208557.534359,1.9168080931669054,0.2545009761213239,1.996074952485202,"[ 9.51370598e-06 -3.61235016e-07  0.00000000e+00  0.00000000e+00
  0.00000000e+00 -1.87904781e-07 -3.61235016e-07  1.01395674e-05
  0.00000000e+00  0.00000000e+00  0.00000000e+00 -1.60662666e-07
  0.00000000e+00  0.00000000e+00  0.00000000e+00  0.00000000e+00
  0.00000000e+00  0.00000000e+00  0.00000000e+00  0.00000000e+00
  0.00000000e+00  0.00000000e+00  0.00000000e+00  0.00000000e+00
  0.00000000e+00  0.00000000e+00  0.00000000e+00  0.00000000e+00
  0.00000000e+00  0.00000000e+00 -1.87904781e-07 -1.60662666e-07
  0.00000000e+00  0.00000000e+00  0.00000000e+00  2.92004865e-06]","[[ 0.00010798  0.00532581]
 [-0.00023389  0.00258627]]",[],0.0,0.0
1787208557.5724525,1.9168080931669054,0.2545009761213239,1.996074952485202,"[ 9.51370598e-06 -3.61235016e-07  0.00000000e+00  0.00000000e+00
  0.00000000e+00 -1.87904781e-07 -3.61235016e-07  1.01395674e-05
  0.00000000e+00  0.00000000e+00  0.00000000e+00 -1.60662666e-07
  0.00000000e+00  0.00000000e+00  0.00000000e+00  0.00000000e+00
  0.00000000e+00  0.00000000e+00  0.00000000e+00  0.00000000e+00
  0.00000000e+00  0.00000000e+00  0.00000000e+00  0.00000000e+00
  0.00000000e+00  0.00000000e+00  0.00000000e+00  0.00000000e+00
  0.00000000e+00  0.00000000e+00 -1.87904781e-07 -1.60662666e-07
  0.00000000e+00  0.00000000e+00  0.00000000e+00  2.92004865e-06]","[[ 0.00010798  0.00532581]
 [-0.00023389  0.00258627]]",[],0.0,0.0
1787208557.6219132,1.9168080931669054,0.2545009761213239,1.996074952485202,"[ 9.51370598e-06 -3.61235016e-07  0.00000000e+00  0.00000000e+00
  0.00000000e+00 -1.87904781e-07 -3.61235016e-07  1.01395674e-05
  0.00000000e+00  0.00000000e+00  0.00000000e+00 -1.60662666e-07
  0.00000000e+00  0.00000000e+00  0.00000000e+00  0.00000000e+00
  0.00000000e+00  0.00000000e+00  0.00000000e+00  0.00000000e+00
  0.00000000e+00  0.00000000e+00  0.00000000e+00  0.00000000e+00
  0.00000000e+00  0.00000000e+00  0.00000000e+00  0.00000000e+00
  0.00000000e+00  0.00000000e+00 -1.87904781e-07 -1.60662666e-07
  0.00000000e+00  0.00000000e+00  0.00000000e+00  2.92004865e-06]","[[ 0.00010798  0.00532581]
 [-0.00023389  0.00258627]]",[],0.0,0.0
1787208557.667137,1.9168080931669054,0.2545009761213239,1.996074952485202,"[ 9.51370598e-06 -3.61235016e-07  0.00000000e+00  0.00000000e+00
  0.00000000e+00 -1.87904781e-07 -3.61235016e-07  1.01395674e-05
  0.00000000e+00  0.00000000e+00  0.00000000e+00 -1.60662666e-07
  0.00000000e+00  0.00000000e+00  0.00000000e+00  0.00000000e+00
  0.00000000e+00  0.00000000e+00  0.00000000e+00  0.00000000e+00
  0.00000000e+00  0.00000000e+00  0.00000000e+00  0.00000000e+00
  0.00000000e+00  0.00000000e+00  0.00000000e+00  0.00000000e+00
  0.00000000e+00  0.00000000e+00 -1.87904781e-07 -1.60662666e-07
  0.00000000e+00  0.00000000e+00  0.00000000e+00  2.92004865e-06]","[[ 0.00010798  0.00532581]
 [-0.00023389  0.00258627]]",[],0.0,0.0
1787208557.7193491,1.9168080931669054,0.2545009761213239,1.996074952485202,"[ 9.51370598e-06 -3.61235016e-07  0.00000000e+00  0.00000000e+00
  0.00000000e+00 -1.87904781e-07 -3.61235016e-07  1.01395674e-05
  0.00000000e+00  0.00000000e+00  0.00000000e+00 -1.60662666e-07
  0.00000000e+00  0.00000000e+00  0.00000000e+00  0.00000000e+00
  0.00000000e+00  0.00000000e+00  0.00000000e+00  0.00000000e+00
  0.00000000e+00  0.00000000e+00  0.00000000e+00  0.00000000e+00
  0.00000000e+00  0.00000000e+00  0.00000000e+00  0.00000000e+00
  0.00000000e+00  0.00000000e+00 -1.87904781e-07 -1.60662666e-07
  0.00000000e+00  0.00000000e+00  0.00000000e+00  2.92004865e-06]","[[ 0.00010798  0.00532581]
 [-0.00023389  0.00258627]]",[],0.0,0.0
1787208557.7688904,1.9168080931669054,0.2545009761213239,1.996074952485202,"[ 9.51370598e-06 -3.61235016e-07  0.00000000e+00  0.00000000e+00
  0.00000000e+00 -1.87904781e-07 -3.61235016e-07  1.01395674e-05
  0.00000000e+00  0.00000000e+00  0.00000000e+00 -1.60662666e-07
  0.00000000e+00  0.00000000e+00  0.00000000e+00  0.00000000e+00
  0.00000000e+00  0.00000000e+00  0.00000000e+00  0.00000000e+00
  0.00000000e+00  0.00000000e+00  0.00000000e+00  0.00000000e+00
  0.00000000e+00  0.00000000e+00  0.00000000e+00  0.00000000e+00
  0.00000000e+00  0.00000000e+00 -1.87904781e-07 -1.60662666e-07
  0.00000000e+00  0.00000000e+00  0.00000000e+00  2.92004865e-06]","[[ 0.00010798  0.00532581]
 [-0.00023389  0.00258627]]",[],0.0,0.0
1787208557.8213265,1.9168080931669054,0.2545009761213239,1.996074952485202,"[ 9.51370598e-06 -3.61235016e-07  0.00000000e+00  0.00000000e+00
  0.00000000e+00 -1.87904781e-07 -3.61235016e-07  1.01395674e-05
  0.00000000e+00  0.00000000e+00  0.00000000e+00 -1.60662666e-07
  0.00000000e+00  0.00000000e+00  0.00000000e+00  0.00000000e+00
  0.00000000e+00  0.00000000e+00  0.00000000e+00  0.00000000e+00
  0.00000000e+00  0.00000000e+00  0.00000000e+00  0.00000000e+00
  0.00000000e+00  0.00000000e+00  0.00000000e+00  0.00000000e+00
  0.00000000e+00  0.00000000e+00 -1.87904781e-07 -1.60662666e-07
  0.00000000e+00  0.00000000e+00  0.00000000e+00  2.92004865e-06]","[[ 0.00010798  0.00532581]
 [-0.00023389  0.00258627]]",[],0.0,0.0
1787208557.8682299,1.9168080931669054,0.2545009761213239,1.996074952485202,"[ 9.51370598e-06 -3.61235016e-07  0.00000000e+00  0.00000000e+00
  0.00000000e+00 -1.87904781e-07 -3.61235016e-07  1.01395674e-05
  0.00000000e+00  0.00000000e+00  0.00000000e+00 -1.60662666e-07
  0.00000000e+00  0.00000000e+00  0.00000000e+00  0.00000000e+00
  0.00000000e+00  0.00000000e+00  0.00000000e+00  0.00000000e+00
  0.00000000e+00  0.00000000e+00  0.00000000e+00  0.00000000e+00
  0.00000000e+00  0.00000000e+00  0.00000000e+00  0.00000000e+00
  0.00000000e+00  0.00000000e+00 -1.87904781e-07 -1.60662666e-07
  0.00000000e+00  0.00000000e+00  0.00000000e+00  2.92004865e-06]","[[ 0.00010798  0.00532581]
 [-0.00023389  0.00258627]]",[],0.0,0.0
1787208557.919426,1.9168080931669054,0.2545009761213239,1.996074952485202,"[ 9.51370598e-06 -3.61235016e-07  0.00000000e+00  0.00000000e+00
  0.00000000e+00 -1.87904781e-07 -3.61235016e-07  1.01395674e-05
  0.00000000e+00  0.00000000e+00  0.00000000e+00 -1.60662666e-07
  0.00000000e+00  0.00000000e+00  0.00000000e+00  0.00000000e+00
  0.00000000e+00  0.00000000e+00  0.00000000e+00  0.00000000e+00
  0.00000000e+00  0.00000000e+00  0.00000000e+00  0.00000000e+00
  0.00000000e+00  0.00000000e+00  0.00000000e+00  0.00000000e+00
  0.00000000e+00  0.00000000e+00 -1.87904781e-07 -1.60662666e-07
  0.00000000e+00  0.00000000e+00  0.00000000e+00  2.92004865e-06]","[[ 0.00010798  0.00532581]
 [-0.00023389  0.00258627]]",[],0.0,0.0
1787208557.9714448,1.9168080931669054,0.2545009761213239,1.996074952485202,"[ 9.51370598e-06 -3.61235016e-07  0.00000000e+00  0.00000000e+00
  0.00000000e+00 -1.87904781e-07 -3.61235016e-07  1.01395674e-05
  0.00000000e+00  0.00000000e+00  0.00000000e+00 -1.60662666e-07
  0.00000000e+00  0.00000000e+00  0.00000000e+00  0.00000000e+00
  0.00000000e+00  0.00000000e+00  0.00000000e+00  0.00000000e+00
  0.00000000e+00  0.00000000e+00  0.00000000e+00  0.00000000e+00
  0.00000000e+00  0.00000000e+00  0.00000000e+00  0.00000000e+00
  0.00000000e+00  0.00000000e+00 -1.87904781e-07 -1.60662666e-07
  0.00000000e+00  0.00000000e+00  0.00000000e+00  2.92004865e-06]","[[ 0.00010798  0.00532581]
 [-0.00023389  0.00258627]]",[],0.0,0.0
1787208558.0247793,1.9168080931669054,0.2545009761213239,1.996074952485202,"[ 9.51370598e-06 -3.61235016e-07  0.00000000e+00  0.00000000e+00
  0.00000000e+00 -1.87904781e-07 -3.61235016e-07  1.01395674e-05
  0.00000000e+00  0.00000000e+00  0.00000000e+00 -1.60662666e-07
  0.00000000e+00  0.00000000e+00  0.00000000e+00  0.00000000e+00
  0.00000000e+00  0.00000000e+00  0.00000000e+00  0.00000000e+00
  0.00000000e+00  0.00000000e+00  0.00000000e+00  0.00000000e+00
  0.00000000e+00  0.00000000e+00  0.00000000e+00  0.00000000e+00
  0.00000000e+00  0.00000000e+00 -1.87904781e-07 -1.60662666e-07
  0.00000000e+00  0.00000000e+00  0.00000000e+00  2.92004865e-06]","[[ 0.00010798  0.00532581]
 [-0.00023389  0.00258627]]",[],0.0,0.0
1787208558.0671027,1.9168080931669054,0.2545009761213239,1.996074952485202,"[ 9.51370598e-06 -3.61235016e-07  0.00000000e+00  0.00000000e+00
  0.00000000e+00 -1.87904781e-07 -3.61235016e-07  1.01395674e-05
  0.00000000e+00  0.00000000e+00  0.00000000e+00 -1.60662666e-07
  0.00000000e+00  0.00000000e+00  0.00000000e+00  0.00000000e+00
  0.00000000e+00  0.00000000e+00  0.00000000e+00  0.00000000e+00
  0.00000000e+00  0.00000000e+00  0.00000000e+00  0.00000000e+00
  0.00000000e+00  0.00000000e+00  0.00000000e+00  0.00000000e+00
  0.00000000e+00  0.00000000e+00 -1.87904781e-07 -1.60662666e-07
  0.00000000e+00  0.00000000e+00  0.00000000e+00  2.92004865e-06]","[[ 0.00010798  0.00532581]
 [-0.00023389  0.00258627]]",[],0.0,0.0
1787208558.12106,1.9168080931669054,0.2545009761213239,1.996074952485202,"[ 9.51370598e-06 -3.61235016e-07  0.00000000e+00  0.00000000e+00
  0.00000000e+00 -1.87904781e-07 -3.61235016e-07  1.01395674e-05
  0.00000000e+00  0.00000000e+00  0.00000000e+00 -1.60662666e-07
  0.00000000e+00  0.00000000e+00  0.00000000e+00  0.00000000e+00
  0.00000000e+00  0.00000000e+00  0.00000000e+00  0.00000000e+00
  0.00000000e+00  0.00000000e+00  0.00000000e+00  0.00000000e+00
  0.00000000e+00  0.00000000e+00  0.00000000e+00  0.00000000e+00
  0.00000000e+00  0.00000000e+00 -1.87904781e-07 -1.60662666e-07
  0.00000000e+00  0.00000000e+00  0.00000000e+00  2.92004865e-06]","[[ 0.00010798  0.00532581]
 [-0.00023389  0.00258627]]",[],0.0,0.0
1787208558.169752,1.9168080931669054,0.2545009761213239,1.996074952485202,"[ 9.51370598e-06 -3.61235016e-07  0.00000000e+00  0.00000000e+00
  0.00000000e+00 -1.87904781e-07 -3.61235016e-07  1.01395674e-05
  0.00000000e+00  0.00000000e+00  0.00000000e+00 -1.60662666e-07
  0.00000000e+00  0.00000000e+00  0.00000000e+00  0.00000000e+00
  0.00000000e+00  0.00000000e+00  0.00000000e+00  0.00000000e+00
  0.00000000e+00  0.00000000e+00  0.00000000e+00  0.00000000e+00
  0.00000000e+00  0.00000000e+00  0.00000000e+00  0.00000000e+00
  0.00000000e+00  0.00000000e+00 -1.87904781e-07 -1.60662666e-07
  0.00000000e+00  0.00000000e+00  0.00000000e+00  2.92004865e-06]","[[ 0.00010798  0.00532581]
 [-0.00023389  0.00258627]]",[],0.0,0.0
1787208558.2257485,1.9168080931669054,0.2545009761213239,1.996074952485202,"[ 9.51370598e-06 -3.61235016e-07  0.00000000e+00  0.00000000e+00
  0.00000000e+00 -1.87904781e-07 -3.61235016e-07  1.01395674e-05
  0.00000000e+00  0.00000000e+00  0.00000000e+00 -1.60662666e-07
  0.00000000e+00  0.00000000e+00  0.00000000e+00  0.00000000e+00
  0.00000000e+00  0.00000000e+00  0.00000000e+00  0.00000000e+00
  0.00000000e+00  0.00000000e+00  0.00000000e+00  0.00000000e+00
  0.00000000e+00  0.00000000e+00  0.00000000e+00  0.00000000e+00
  0.00000000e+00  0.00000000e+00 -1.87904781e-07 -1.60662666e-07
  0.00000000e+00  0.00000000e+00  0.00000000e+00  2.92004865e-06]","[[ 0.00010798  0.00532581]
 [-0.00023389  0.00258627]]",[],0.0,0.0
1787208558.2696416,1.913006535487301,0.2475878511923571,1.9929020271098645,"[ 7.92324275e-06 -3.92048596e-07  0.00000000e+00  0.00000000e+00
  0.00000000e+00 -1.40490504e-07 -3.92048596e-07  8.59532784e-06
  0.00000000e+00  0.00000000e+00  0.00000000e+00 -1.71047407e-07
  0.00000000e+00  0.00000000e+00  0.00000000e+00  0.00000000e+00
  0.00000000e+00  0.00000000e+00  0.00000000e+00  0.00000000e+00
  0.00000000e+00  0.00000000e+00  0.00000000e+00  0.00000000e+00
  0.00000000e+00  0.00000000e+00  0.00000000e+00  0.00000000e+00
  0.00000000e+00  0.00000000e+00 -1.40490504e-07 -1.71047407e-07
  0.00000000e+00  0.00000000e+00  0.00000000e+00  2.94318600e-06]","[[ 9.17535411e-05  4.38890877e-03]
 [-1.99283076e-04  2.19722871e-03]]",[],0.0,0.0
1787208558.319146,1.913006535487301,0.2475878511923571,1.9929020271098645,"[ 7.92324275e-06 -3.92048596e-07  0.00000000e+00  0.00000000e+00
  0.00000000e+00 -1.40490504e-07 -3.92048596e-07  8.59532784e-06
  0.00000000e+00  0.00000000e+00  0.00000000e+00 -1.71047407e-07
  0.00000000e+00  0.00000000e+00  0.00000000e+00  0.00000000e+00
  0.00000000e+00  0.00000000e+00  0.00000000e+00  0.00000000e+00
  0.00000000e+00  0.00000000e+00  0.00000000e+00  0.00000000e+00
  0.00000000e+00  0.00000000e+00  0.00000000e+00  0.00000000e+00
  0.00000000e+00  0.00000000e+00 -1.40490504e-07 -1.71047407e-07
  0.00000000e+00  0.00000000e+00  0.00000000e+00  2.94318600e-06]","[[ 9.17535411e-05  4.38890877e-03]
 [-1.99283076e-04  2.19722871e-03]]",[],0.0,0.0
1787208558.3692145,1.913006535487301,0.2475878511923571,1.9929020271098645,"[ 7.92324275e-06 -3.92048596e-07  0.00000000e+00  0.00000000e+00
  0.00000000e+00 -1.40490504e-07 -3.92048596e-07  8.59532784e-06
  0.00000000e+00  0.00000000e+00  0.00000000e+00 -1.71047407e-07
  0.00000000e+00  0.00000000e+00  0.00000000e+00  0.00000000e+00
  0.00000000e+00  0.00000000e+00  0.00000000e+00  0.00000000e+00
  0.00000000e+00  0.00000000e+00  0.00000000e+00  0.00000000e+00
  0.00000000e+00  0.00000000e+00  0.00000000e+00  0.00000000e+00
  0.00000000e+00  0.00000000e+00 -1.40490504e-07 -1.71047407e-07
  0.00000000e+00  0.00000000e+00  0.00000000e+00  2.94318600e-06]","[[ 9.17535411e-05  4.38890877e-03]
 [-1.99283076e-04  2.19722871e-03]]",[],0.0,0.0
1787208558.4173913,1.913006535487301,0.2475878511923571,1.9929020271098645,"[ 7.92324275e-06 -3.92048596e-07  0.00000000e+00  0.00000000e+00
  0.00000000e+00 -1.40490504e-07 -3.92048596e-07  8.59532784e-06
  0.00000000e+00  0.00000000e+00  0.00000000e+00 -1.71047407e-07
  0.00000000e+00  0.00000000e+00  0.00000000e+00  0.00000000e+00
  0.00000000e+00  0.00000000e+00  0.00000000e+00  0.00000000e+00
  0.00000000e+00  0.00000000e+00  0.00000000e+00  0.00000000e+00
  0.00000000e+00  0.00000000e+00  0.00000000e+00  0.00000000e+00
  0.00000000e+00  0.00000000e+00 -1.40490504e-07 -1.71047407e-07
  0.00000000e+00  0.00000000e+00  0.00000000e+00  2.94318600e-06]","[[ 9.17535411e-05  4.38890877e-03]
 [-1.99283076e-04  2.19722871e-03]]",[],0.0,0.0
1787208558.470487,1.913006535487301,0.2475878511923571,1.9929020271098645,"[ 7.92324275e-06 -3.92048596e-07  0.00000000e+00  0.00000000e+00
  0.00000000e+00 -1.40490504e-07 -3.92048596e-07  8.59532784e-06
  0.00000000e+00  0.00000000e+00  0.00000000e+00 -1.71047407e-07
  0.00000000e+00  0.00000000e+00  0.00000000e+00  0.00000000e+00
  0.00000000e+00  0.00000000e+00  0.00000000e+00  0.00000000e+00
  0.00000000e+00  0.00000000e+00  0.00000000e+00  0.00000000e+00
  0.00000000e+00  0.00000000e+00  0.00000000e+00  0.00000000e+00
  0.00000000e+00  0.00000000e+00 -1.40490504e-07 -1.71047407e-07
  0.00000000e+00  0.00000000e+00  0.00000000e+00  2.94318600e-06]","[[ 9.17535411e-05  4.38890877e-03]
 [-1.99283076e-04  2.19722871e-03]]",[],0.0,0.0
1787208558.5172932,1.913006535487301,0.2475878511923571,1.9929020271098645,"[ 7.92324275e-06 -3.92048596e-07  0.00000000e+00  0.00000000e+00
  0.00000000e+00 -1.40490504e-07 -3.92048596e-07  8.59532784e-06
  0.00000000e+00  0.00000000e+00  0.00000000e+00 -1.71047407e-07
  0.00000000e+00  0.00000000e+00  0.00000000e+00  0.00000000e+00
  0.00000000e+00  0.00000000e+00  0.00000000e+00  0.00000000e+00
  0.00000000e+00  0.00000000e+00  0.00000000e+00  0.00000000e+00
  0.00000000e+00  0.00000000e+00  0.00000000e+00  0.00000000e+00
  0.00000000e+00  0.00000000e+00 -1.40490504e-07 -1.71047407e-07
  0.00000000e+00  0.00000000e+00  0.00000000e+00  2.94318600e-06]","[[ 9.17535411e-05  4.38890877e-03]
 [-1.99283076e-04  2.19722871e-03]]",[],0.0,0.0
1787208558.5692303,1.913006535487301,0.2475878511923571,1.9929020271098645,"[ 7.92324275e-06 -3.92048596e-07  0.00000000e+00  0.00000000e+00
  0.00000000e+00 -1.40490504e-07 -3.92048596e-07  8.59532784e-06
  0.00000000e+00  0.00000000e+00  0.00000000e+00 -1.71047407e-07
  0.00000000e+00  0.00000000e+00  0.00000000e+00  0.00000000e+00
  0.00000000e+00  0.00000000e+00  0.00000000e+00  0.00000000e+00
  0.00000000e+00  0.00000000e+00  0.00000000e+00  0.00000000e+00
  0.00000000e+00  0.00000000e+00  0.00000000e+00  0.00000000e+00
  0.00000000e+00  0.00000000e+00 -1.40490504e-07 -1.71047407e-07
  0.00000000e+00  0.00000000e+00  0.00000000e+00  2.94318600e-06]","[[ 9.17535411e-05  4.38890877e-03]
 [-1.99283076e-04  2.19722871e-03]]",[],0.0,0.0
1787208558.6198666,1.913006535487301,0.2475878511923571,1.9929020271098645,"[ 7.92324275e-06 -3.92048596e-07  0.00000000e+00  0.00000000e+00
  0.00000000e+00 -1.40490504e-07 -3.92048596e-07  8.59532784e-06
  0.00000000e+00  0.00000000e+00  0.00000000e+00 -1.71047407e-07
  0.00000000e+00  0.00000000e+00  0.00000000e+00  0.00000000e+00
  0.00000000e+00  0.00000000e+00  0.00000000e+00  0.00000000e+00
  0.00000000e+00  0.00000000e+00  0.00000000e+00  0.00000000e+00
  0.00000000e+00  0.00000000e+00  0.00000000e+00  0.00000000e+00
  0.00000000e+00  0.00000000e+00 -1.40490504e-07 -1.71047407e-07
  0.00000000e+00  0.00000000e+00  0.00000000e+00  2.94318600e-06]","[[ 9.17535411e-05  4.38890877e-03]
 [-1.99283076e-04  2.19722871e-03]]",[],0.0,0.0
1787208558.6690474,1.913006535487301,0.2475878511923571,1.9929020271098645,"[ 7.92324275e-06 -3.92048596e-07  0.00000000e+00  0.00000000e+00
  0.00000000e+00 -1.40490504e-07 -3.92048596e-07  8.59532784e-06
  0.00000000e+00  0.00000000e+00  0.00000000e+00 -1.71047407e-07
  0.00000000e+00  0.00000000e+00  0.00000000e+00  0.00000000e+00
  0.00000000e+00  0.00000000e+00  0.00000000e+00  0.00000000e+00
  0.00000000e+00  0.00000000e+00  0.00000000e+00  0.00000000e+00
  0.00000000e+00  0.00000000e+00  0.00000000e+00  0.00000000e+00
  0.00000000e+00  0.00000000e+00 -1.40490504e-07 -1.71047407e-07
  0.00000000e+00  0.00000000e+00  0.00000000e+00  2.94318600e-06]","[[ 9.17535411e-05  4.38890877e-03]
 [-1.99283076e-04  2.19722871e-03]]",[],0.0,0.0
1787208558.7182157,1.913006535487301,0.2475878511923571,1.9929020271098645,"[ 7.92324275e-06 -3.92048596e-07  0.00000000e+00  0.00000000e+00
  0.00000000e+00 -1.40490504e-07 -3.92048596e-07  8.59532784e-06
  0.00000000e+00  0.00000000e+00  0.00000000e+00 -1.71047407e-07
  0.00000000e+00  0.00000000e+00  0.00000000e+00  0.00000000e+00
  0.00000000e+00  0.00000000e+00  0.00000000e+00  0.00000000e+00
  0.00000000e+00  0.00000000e+00  0.00000000e+00  0.00000000e+00
  0.00000000e+00  0.00000000e+00  0.00000000e+00  0.00000000e+00
  0.00000000e+00  0.00000000e+00 -1.40490504e-07 -1.71047407e-07
  0.00000000e+00  0.00000000e+00  0.00000000e+00  2.94318600e-06]","[[ 9.17535411e-05  4.38890877e-03]
 [-1.99283076e-04  2.19722871e-03]]",[],0.0,0.0
1787208558.769162,1.913006535487301,0.2475878511923571,1.9929020271098645,"[ 7.92324275e-06 -3.92048596e-07  0.00000000e+00  0.00000000e+00
  0.00000000e+00 -1.40490504e-07 -3.92048596e-07  8.59532784e-06
  0.00000000e+00  0.00000000e+00  0.00000000e+00 -1.71047407e-07
  0.00000000e+00  0.00000000e+00  0.00000000e+00  0.00000000e+00
  0.00000000e+00  0.00000000e+00  0.00000000e+00  0.00000000e+00
  0.00000000e+00  0.00000000e+00  0.00000000e+00  0.00000000e+00
  0.00000000e+00  0.00000000e+00  0.00000000e+00  0.00000000e+00
  0.00000000e+00  0.00000000e+00 -1.40490504e-07 -1.71047407e-07
  0.00000000e+00  0.00000000e+00  0.00000000e+00  2.94318600e-06]","[[ 9.17535411e-05  4.38890877e-03]
 [-1.99283076e-04  2.19722871e-03]]",[],0.0,0.0
1787208558.8212183,1.913006535487301,0.2475878511923571,1.9929020271098645,"[ 7.92324275e-06 -3.92048596e-07  0.00000000e+00  0.00000000e+00
  0.00000000e+00 -1.40490504e-07 -3.92048596e-07  8.59532784e-06
  0.00000000e+00  0.00000000e+00  0.00000000e+00 -1.71047407e-07
  0.00000000e+00  0.00000000e+00  0.00000000e+00  0.00000000e+00
  0.00000000e+00  0.00000000e+00  0.00000000e+00  0.00000000e+00
  0.00000000e+00  0.00000000e+00  0.00000000e+00  0.00000000e+00
  0.00000000e+00  0.00000000e+00  0.00000000e+00  0.00000000e+00
  0.00000000e+00  0.00000000e+00 -1.40490504e-07 -1.71047407e-07
  0.00000000e+00  0.00000000e+00  0.00000000e+00  2.94318600e-06]","[[ 9.17535411e-05  4.38890877e-03]
 [-1.99283076e-04  2.19722871e-03]]",[],0.0,0.0
1787208558.8670325,1.913006535487301,0.2475878511923571,1.9929020271098645,"[ 7.92324275e-06 -3.92048596e-07  0.00000000e+00  0.00000000e+00
  0.00000000e+00 -1.40490504e-07 -3.92048596e-07  8.59532784e-06
  0.00000000e+00  0.00000000e+00  0.00000000e+00 -1.71047407e-07
  0.00000000e+00  0.00000000e+00  0.00000000e+00  0.00000000e+00
  0.00000000e+00  0.00000000e+00  0.00000000e+00  0.00000000e+00
  0.00000000e+00  0.00000000e+00  0.00000000e+00  0.00000000e+00
  0.00000000e+00  0.00000000e+00  0.00000000e+00  0.00000000e+00
  0.00000000e+00  0.00000000e+00 -1.40490504e-07 -1.71047407e-07
  0.00000000e+00  0.00000000e+00  0.00000000e+00  2.94318600e-06]","[[ 9.17535411e-05  4.38890877e-03]
 [-1.99283076e-04  2.19722871e-03]]",[],0.0,0.0
1787208558.9169786,1.913006535487301,0.2475878511923571,1.9929020271098645,"[ 7.92324275e-06 -3.92048596e-07  0.00000000e+00  0.00000000e+00
  0.00000000e+00 -1.40490504e-07 -3.92048596e-07  8.59532784e-06
  0.00000000e+00  0.00000000e+00  0.00000000e+00 -1.71047407e-07
  0.00000000e+00  0.00000000e+00  0.00000000e+00  0.00000000e+00
  0.00000000e+00  0.00000000e+00  0.00000000e+00  0.00000000e+00
  0.00000000e+00  0.00000000e+00  0.00000000e+00  0.00000000e+00
  0.00000000e+00  0.00000000e+00  0.00000000e+00  0.00000000e+00
  0.00000000e+00  0.00000000e+00 -1.40490504e-07 -1.71047407e-07
  0.00000000e+00  0.00000000e+00  0.00000000e+00  2.94318600e-06]","[[ 9.17535411e-05  4.38890877e-03]
 [-1.99283076e-04  2.19722871e-03]]",[],0.0,0.0
1787208558.968867,1.913006535487301,0.2475878511923571,1.9929020271098645,"[ 7.92324275e-06 -3.92048596e-07  0.00000000e+00  0.00000000e+00
  0.00000000e+00 -1.40490504e-07 -3.92048596e-07  8.59532784e-06
  0.00000000e+00  0.00000000e+00  0.00000000e+00 -1.71047407e-07
  0.00000000e+00  0.00000000e+00  0.00000000e+00  0.00000000e+00
  0.00000000e+00  0.00000000e+00  0.00000000e+00  0.00000000e+00
  0.00000000e+00  0.00000000e+00  0.00000000e+00  0.00000000e+00
  0.00000000e+00  0.00000000e+00  0.00000000e+00  0.00000000e+00
  0.00000000e+00  0.00000000e+00 -1.40490504e-07 -1.71047407e-07
  0.00000000e+00  0.00000000e+00  0.00000000e+00  2.94318600e-06]","[[ 9.17535411e-05  4.38890877e-03]
 [-1.99283076e-04  2.19722871e-03]]",[],0.0,0.0
1787208559.0170777,1.9106499036849394,0.24436043165982838,1.9928757096969543,"[ 6.90919049e-06 -3.38022452e-07  0.00000000e+00  0.00000000e+00
  0.00000000e+00 -9.03305998e-08 -3.38022452e-07  7.47436483e-06
  0.00000000e+00  0.00000000e+00  0.00000000e+00 -1.17575346e-07
  0.00000000e+00  0.00000000e+00  0.00000000e+00  0.00000000e+00
  0.00000000e+00  0.00000000e+00  0.00000000e+00  0.00000000e+00
  0.00000000e+00  0.00000000e+00  0.00000000e+00  0.00000000e+00
  0.00000000e+00  0.00000000e+00  0.00000000e+00  0.00000000e+00
  0.00000000e+00  0.00000000e+00 -9.03305998e-08 -1.17575346e-07
  0.00000000e+00  0.00000000e+00  0.00000000e+00  2.94221890e-06]","[[ 7.01865889e-05  3.97879076e-03]
 [-1.77327754e-04  1.63654140e-03]]",[],0.0,0.0
1787208559.0762644,1.9106499036849394,0.24436043165982838,1.9928757096969543,"[ 6.90919049e-06 -3.38022452e-07  0.00000000e+00  0.00000000e+00
  0.00000000e+00 -9.03305998e-08 -3.38022452e-07  7.47436483e-06
  0.00000000e+00  0.00000000e+00  0.00000000e+00 -1.17575346e-07
  0.00000000e+00  0.00000000e+00  0.00000000e+00  0.00000000e+00
  0.00000000e+00  0.00000000e+00  0.00000000e+00  0.00000000e+00
  0.00000000e+00  0.00000000e+00  0.00000000e+00  0.00000000e+00
  0.00000000e+00  0.00000000e+00  0.00000000e+00  0.00000000e+00
  0.00000000e+00  0.00000000e+00 -9.03305998e-08 -1.17575346e-07
  0.00000000e+00  0.00000000e+00  0.00000000e+00  2.94221890e-06]","[[ 7.01865889e-05  3.97879076e-03]
 [-1.77327754e-04  1.63654140e-03]]",[],0.0,0.0
1787208559.1172483,1.9106499036849394,0.24436043165982838,1.9928757096969543,"[ 6.90919049e-06 -3.38022452e-07  0.00000000e+00  0.00000000e+00
  0.00000000e+00 -9.03305998e-08 -3.38022452e-07  7.47436483e-06
  0.00000000e+00  0.00000000e+00  0.00000000e+00 -1.17575346e-07
  0.00000000e+00  0.00000000e+00  0.00000000e+00  0.00000000e+00
  0.00000000e+00  0.00000000e+00  0.00000000e+00  0.00000000e+00
  0.00000000e+00  0.00000000e+00  0.00000000e+00  0.00000000e+00
  0.00000000e+00  0.00000000e+00  0.00000000e+00  0.00000000e+00
  0.00000000e+00  0.00000000e+00 -9.03305998e-08 -1.17575346e-07
  0.00000000e+00  0.00000000e+00  0.00000000e+00  2.94221890e-06]","[[ 7.01865889e-05  3.97879076e-03]
 [-1.77327754e-04  1.63654140e-03]]",[],0.0,0.0
1787208559.166879,1.9106499036849394,0.24436043165982838,1.9928757096969543,"[ 6.90919049e-06 -3.38022452e-07  0.00000000e+00  0.00000000e+00
  0.00000000e+00 -9.03305998e-08 -3.38022452e-07  7.47436483e-06
  0.00000000e+00  0.00000000e+00  0.00000000e+00 -1.17575346e-07
  0.00000000e+00  0.00000000e+00  0.00000000e+00  0.00000000e+00
  0.00000000e+00  0.00000000e+00  0.00000000e+00  0.00000000e+00
  0.00000000e+00  0.00000000e+00  0.00000000e+00  0.00000000e+00
  0.00000000e+00  0.00000000e+00  0.00000000e+00  0.00000000e+00
  0.00000000e+00  0.00000000e+00 -9.03305998e-08 -1.17575346e-07
  0.00000000e+00  0.00000000e+00  0.00000000e+00  2.94221890e-06]","[[ 7.01865889e-05  3.97879076e-03]
 [-1.77327754e-04  1.63654140e-03]]",[],0.0,0.0
1787208559.2168384,1.9106499036849394,0.24436043165982838,1.9928757096969543,"[ 6.90919049e-06 -3.38022452e-07  0.00000000e+00  0.00000000e+00
  0.00000000e+00 -9.03305998e-08 -3.38022452e-07  7.47436483e-06
  0.00000000e+00  0.00000000e+00  0.00000000e+00 -1.17575346e-07
  0.00000000e+00  0.00000000e+00  0.00000000e+00  0.00000000e+00
  0.00000000e+00  0.00000000e+00  0.00000000e+00  0.00000000e+00
  0.00000000e+00  0.00000000e+00  0.00000000e+00  0.00000000e+00
  0.00000000e+00  0.00000000e+00  0.00000000e+00  0.00000000e+00
  0.00000000e+00  0.00000000e+00 -9.03305998e-08 -1.17575346e-07
  0.00000000e+00  0.00000000e+00  0.00000000e+00  2.94221890e-06]","[[ 7.01865889e-05  3.97879076e-03]
 [-1.77327754e-04  1.63654140e-03]]",[],0.0,0.0
1787208559.2704573,1.9106499036849394,0.24436043165982838,1.9928757096969543,"[ 6.90919049e-06 -3.38022452e-07  0.00000000e+00  0.00000000e+00
  0.00000000e+00 -9.03305998e-08 -3.38022452e-07  7.47436483e-06
  0.00000000e+00  0.00000000e+00  0.00000000e+00 -1.17575346e-07
  0.00000000e+00  0.00000000e+00  0.00000000e+00  0.00000000e+00
  0.00000000e+00  0.00000000e+00  0.00000000e+00  0.00000000e+00
  0.00000000e+00  0.00000000e+00  0.00000000e+00  0.00000000e+00
  0.00000000e+00  0.00000000e+00  0.00000000e+00  0.00000000e+00
  0.00000000e+00  0.00000000e+00 -9.03305998e-08 -1.17575346e-07
  0.00000000e+00  0.00000000e+00  0.00000000e+00  2.94221890e-06]","[[ 7.01865889e-05  3.97879076e-03]
 [-1.77327754e-04  1.63654140e-03]]",[],0.0,0.0
1787208559.325009,1.9106499036849394,0.24436043165982838,1.9928757096969543,"[ 6.90919049e-06 -3.38022452e-07  0.00000000e+00  0.00000000e+00
  0.00000000e+00 -9.03305998e-08 -3.38022452e-07  7.47436483e-06
  0.00000000e+00  0.00000000e+00  0.00000000e+00 -1.17575346e-07
  0.00000000e+00  0.00000000e+00  0.00000000e+00  0.00000000e+00
  0.00000000e+00  0.00000000e+00  0.00000000e+00  0.00000000e+00
  0.00000000e+00  0.00000000e+00  0.00000000e+00  0.00000000e+00
  0.00000000e+00  0.00000000e+00  0.00000000e+00  0.00000000e+00
  0.00000000e+00  0.00000000e+00 -9.03305998e-08 -1.17575346e-07
  0.00000000e+00  0.00000000e+00  0.00000000e+00  2.94221890e-06]","[[ 7.01865889e-05  3.97879076e-03]
 [-1.77327754e-04  1.63654140e-03]]",[],0.0,0.0
1787208559.3863628,1.9106499036849394,0.24436043165982838,1.9928757096969543,"[ 6.90919049e-06 -3.38022452e-07  0.00000000e+00  0.00000000e+00
  0.00000000e+00 -9.03305998e-08 -3.38022452e-07  7.47436483e-06
  0.00000000e+00  0.00000000e+00  0.00000000e+00 -1.17575346e-07
  0.00000000e+00  0.00000000e+00  0.00000000e+00  0.00000000e+00
  0.00000000e+00  0.00000000e+00  0.00000000e+00  0.00000000e+00
  0.00000000e+00  0.00000000e+00  0.00000000e+00  0.00000000e+00
  0.00000000e+00  0.00000000e+00  0.00000000e+00  0.00000000e+00
  0.00000000e+00  0.00000000e+00 -9.03305998e-08 -1.17575346e-07
  0.00000000e+00  0.00000000e+00  0.00000000e+00  2.94221890e-06]","[[ 7.01865889e-05  3.97879076e-03]
 [-1.77327754e-04  1.63654140e-03]]",[],0.0,0.0
1787208559.4190297,1.9106499036849394,0.24436043165982838,1.9928757096969543,"[ 6.90919049e-06 -3.38022452e-07  0.00000000e+00  0.00000000e+00
  0.00000000e+00 -9.03305998e-08 -3.38022452e-07  7.47436483e-06
  0.00000000e+00  0.00000000e+00  0.00000000e+00 -1.17575346e-07
  0.00000000e+00  0.00000000e+00  0.00000000e+00  0.00000000e+00
  0.00000000e+00  0.00000000e+00  0.00000000e+00  0.00000000e+00
  0.00000000e+00  0.00000000e+00  0.00000000e+00  0.00000000e+00
  0.00000000e+00  0.00000000e+00  0.00000000e+00  0.00000000e+00
  0.00000000e+00  0.00000000e+00 -9.03305998e-08 -1.17575346e-07
  0.00000000e+00  0.00000000e+00  0.00000000e+00  2.94221890e-06]","[[ 7.01865889e-05  3.97879076e-03]
 [-1.77327754e-04  1.63654140e-03]]",[],0.0,0.0
1787208559.470531,1.9106499036849394,0.24436043165982838,1.9928757096969543,"[ 6.90919049e-06 -3.38022452e-07  0.00000000e+00  0.00000000e+00
  0.00000000e+00 -9.03305998e-08 -3.38022452e-07  7.47436483e-06
  0.00000000e+00  0.00000000e+00  0.00000000e+00 -1.17575346e-07
  0.00000000e+00  0.00000000e+00  0.00000000e+00  0.00000000e+00
  0.00000000e+00  0.00000000e+00  0.00000000e+00  0.00000000e+00
  0.00000000e+00  0.00000000e+00  0.00000000e+00  0.00000000e+00
  0.00000000e+00  0.00000000e+00  0.00000000e+00  0.00000000e+00
  0.00000000e+00  0.00000000e+00 -9.03305998e-08 -1.17575346e-07
  0.00000000e+00  0.00000000e+00  0.00000000e+00  2.94221890e-06]","[[ 7.01865889e-05  3.97879076e-03]
 [-1.77327754e-04  1.63654140e-03]]",[],0.0,0.0
1787208559.522182,1.9106499036849394,0.24436043165982838,1.9928757096969543,"[ 6.90919049e-06 -3.38022452e-07  0.00000000e+00  0.00000000e+00
  0.00000000e+00 -9.03305998e-08 -3.38022452e-07  7.47436483e-06
  0.00000000e+00  0.00000000e+00  0.00000000e+00 -1.17575346e-07
  0.00000000e+00  0.00000000e+00  0.00000000e+00  0.00000000e+00
  0.00000000e+00  0.00000000e+00  0.00000000e+00  0.00000000e+00
  0.00000000e+00  0.00000000e+00  0.00000000e+00  0.00000000e+00
  0.00000000e+00  0.00000000e+00  0.00000000e+00  0.00000000e+00
  0.00000000e+00  0.00000000e+00 -9.03305998e-08 -1.17575346e-07
  0.00000000e+00  0.00000000e+00  0.00000000e+00  2.94221890e-06]","[[ 7.01865889e-05  3.97879076e-03]
 [-1.77327754e-04  1.63654140e-03]]",[],0.0,0.0
1787208559.5724826,1.9106499036849394,0.24436043165982838,1.9928757096969543,"[ 6.90919049e-06 -3.38022452e-07  0.00000000e+00  0.00000000e+00
  0.00000000e+00 -9.03305998e-08 -3.38022452e-07  7.47436483e-06
  0.00000000e+00  0.00000000e+00  0.00000000e+00 -1.17575346e-07
  0.00000000e+00  0.00000000e+00  0.00000000e+00  0.00000000e+00
  0.00000000e+00  0.00000000e+00  0.00000000e+00  0.00000000e+00
  0.00000000e+00  0.00000000e+00  0.00000000e+00  0.00000000e+00
  0.00000000e+00  0.00000000e+00  0.00000000e+00  0.00000000e+00
  0.00000000e+00  0.00000000e+00 -9.03305998e-08 -1.17575346e-07
  0.00000000e+00  0.00000000e+00  0.00000000e+00  2.94221890e-06]","[[ 7.01865889e-05  3.97879076e-03]
 [-1.77327754e-04  1.63654140e-03]]",[],0.0,0.0
1787208559.6209419,1.9106499036849394,0.24436043165982838,1.9928757096969543,"[ 6.90919049e-06 -3.38022452e-07  0.00000000e+00  0.00000000e+00
  0.00000000e+00 -9.03305998e-08 -3.38022452e-07  7.47436483e-06
  0.00000000e+00  0.00000000e+00  0.00000000e+00 -1.17575346e-07
  0.00000000e+00  0.00000000e+00  0.00000000e+00  0.00000000e+00
  0.00000000e+00  0.00000000e+00  0.00000000e+00  0.00000000e+00
  0.00000000e+00  0.00000000e+00  0.00000000e+00  0.00000000e+00
  0.00000000e+00  0.00000000e+00  0.00000000e+00  0.00000000e+00
  0.00000000e+00  0.00000000e+00 -9.03305998e-08 -1.17575346e-07
  0.00000000e+00  0.00000000e+00  0.00000000e+00  2.94221890e-06]","[[ 7.01865889e-05  3.97879076e-03]
 [-1.77327754e-04  1.63654140e-03]]",[],0.0,0.0
1787208559.6693897,1.9106499036849394,0.24436043165982838,1.9928757096969543,"[ 6.90919049e-06 -3.38022452e-07  0.00000000e+00  0.00000000e+00
  0.00000000e+00 -9.03305998e-08 -3.38022452e-07  7.47436483e-06
  0.00000000e+00  0.00000000e+00  0.00000000e+00 -1.17575346e-07
  0.00000000e+00  0.00000000e+00  0.00000000e+00  0.00000000e+00
  0.00000000e+00  0.00000000e+00  0.00000000e+00  0.00000000e+00
  0.00000000e+00  0.00000000e+00  0.00000000e+00  0.00000000e+00
  0.00000000e+00  0.00000000e+00  0.00000000e+00  0.00000000e+00
  0.00000000e+00  0.00000000e+00 -9.03305998e-08 -1.17575346e-07
  0.00000000e+00  0.00000000e+00  0.00000000e+00  2.94221890e-06]","[[ 7.01865889e-05  3.97879076e-03]
 [-1.77327754e-04  1.63654140e-03]]",[],0.0,0.0
1787208559.722699,1.9106499036849394,0.24436043165982838,1.9928757096969543,"[ 6.90919049e-06 -3.38022452e-07  0.00000000e+00  0.00000000e+00
  0.00000000e+00 -9.03305998e-08 -3.38022452e-07  7.47436483e-06
  0.00000000e+00  0.00000000e+00  0.00000000e+00 -1.17575346e-07
  0.00000000e+00  0.00000000e+00  0.00000000e+00  0.00000000e+00
  0.00000000e+00  0.00000000e+00  0.00000000e+00  0.00000000e+00
  0.00000000e+00  0.00000000e+00  0.00000000e+00  0.00000000e+00
  0.00000000e+00  0.00000000e+00  0.00000000e+00  0.00000000e+00
  0.00000000e+00  0.00000000e+00 -9.03305998e-08 -1.17575346e-07
  0.00000000e+00  0.00000000e+00  0.00000000e+00  2.94221890e-06]","[[ 7.01865889e-05  3.97879076e-03]
 [-1.77327754e-04  1.63654140e-03]]",[],0.0,0.0
1787208559.8051836,1.9106499036849394,0.24436043165982838,1.9928757096969543,"[ 6.90919049e-06 -3.38022452e-07  0.00000000e+00  0.00000000e+00
  0.00000000e+00 -9.03305998e-08 -3.38022452e-07  7.47436483e-06
  0.00000000e+00  0.00000000e+00  0.00000000e+00 -1.17575346e-07
  0.00000000e+00  0.00000000e+00  0.00000000e+00  0.00000000e+00
  0.00000000e+00  0.00000000e+00  0.00000000e+00  0.00000000e+00
  0.00000000e+00  0.00000000e+00  0.00000000e+00  0.00000000e+00
  0.00000000e+00  0.00000000e+00  0.00000000e+00  0.00000000e+00
  0.00000000e+00  0.00000000e+00 -9.03305998e-08 -1.17575346e-07
  0.00000000e+00  0.00000000e+00  0.00000000e+00  2.94221890e-06]","[[ 7.01865889e-05  3.97879076e-03]
 [-1.77327754e-04  1.63654140e-03]]",[],0.0,0.0
1787208559.8183234,1.9106499036849394,0.24436043165982838,1.9928757096969543,"[ 6.90919049e-06 -3.38022452e-07  0.00000000e+00  0.00000000e+00
  0.00000000e+00 -9.03305998e-08 -3.38022452e-07  7.47436483e-06
  0.00000000e+00  0.00000000e+00  0.00000000e+00 -1.17575346e-07
  0.00000000e+00  0.00000000e+00  0.00000000e+00  0.00000000e+00
  0.00000000e+00  0.00000000e+00  0.00000000e+00  0.00000000e+00
  0.00000000e+00  0.00000000e+00  0.00000000e+00  0.00000000e+00
  0.00000000e+00  0.00000000e+00  0.00000000e+00  0.00000000e+00
  0.00000000e+00  0.00000000e+00 -9.03305998e-08 -1.17575346e-07
  0.00000000e+00  0.00000000e+00  0.00000000e+00  2.94221890e-06]","[[ 7.01865889e-05  3.97879076e-03]
 [-1.77327754e-04  1.63654140e-03]]",[],0.0,0.0
1787208559.8711848,1.9126166064779238,0.24169163386018735,1.9949168384743754,"[ 6.06532278e-06 -3.46498787e-07  0.00000000e+00  0.00000000e+00
  0.00000000e+00 -9.89576471e-08 -3.46498787e-07  6.65639807e-06
  0.00000000e+00  0.00000000e+00  0.00000000e+00 -1.34756319e-07
  0.00000000e+00  0.00000000e+00  0.00000000e+00  0.00000000e+00
  0.00000000e+00  0.00000000e+00  0.00000000e+00  0.00000000e+00
  0.00000000e+00  0.00000000e+00  0.00000000e+00  0.00000000e+00
  0.00000000e+00  0.00000000e+00  0.00000000e+00  0.00000000e+00
  0.00000000e+00  0.00000000e+00 -9.89576471e-08 -1.34756319e-07
  0.00000000e+00  0.00000000e+00  0.00000000e+00  2.93054465e-06]","[[ 7.08208804e-05  3.33243914e-03]
 [-1.54992863e-04  1.66608071e-03]]",[],0.0,0.0
1787208559.919661,1.9126166064779238,0.24169163386018735,1.9949168384743754,"[ 6.06532278e-06 -3.46498787e-07  0.00000000e+00  0.00000000e+00
  0.00000000e+00 -9.89576471e-08 -3.46498787e-07  6.65639807e-06
  0.00000000e+00  0.00000000e+00  0.00000000e+00 -1.34756319e-07
  0.00000000e+00  0.00000000e+00  0.00000000e+00  0.00000000e+00
  0.00000000e+00  0.00000000e+00  0.00000000e+00  0.00000000e+00
  0.00000000e+00  0.00000000e+00  0.00000000e+00  0.00000000e+00
  0.00000000e+00  0.00000000e+00  0.00000000e+00  0.00000000e+00
  0.00000000e+00  0.00000000e+00 -9.89576471e-08 -1.34756319e-07
  0.00000000e+00  0.00000000e+00  0.00000000e+00  2.93054465e-06]","[[ 7.08208804e-05  3.33243914e-03]
 [-1.54992863e-04  1.66608071e-03]]",[],0.0,0.0
1787208559.9750643,1.9126166064779238,0.24169163386018735,1.9949168384743754,"[ 6.06532278e-06 -3.46498787e-07  0.00000000e+00  0.00000000e+00
  0.00000000e+00 -9.89576471e-08 -3.46498787e-07  6.65639807e-06
  0.00000000e+00  0.00000000e+00  0.00000000e+00 -1.34756319e-07
  0.00000000e+00  0.00000000e+00  0.00000000e+00  0.00000000e+00
  0.00000000e+00  0.00000000e+00  0.00000000e+00  0.00000000e+00
  0.00000000e+00  0.00000000e+00  0.00000000e+00  0.00000000e+00
  0.00000000e+00  0.00000000e+00  0.00000000e+00  0.00000000e+00
  0.00000000e+00  0.00000000e+00 -9.89576471e-08 -1.34756319e-07
  0.00000000e+00  0.00000000e+00  0.00000000e+00  2.93054465e-06]","[[ 7.08208804e-05  3.33243914e-03]
 [-1.54992863e-04  1.66608071e-03]]",[],0.0,0.0
1787208560.0177808,1.9126166064779238,0.24169163386018735,1.9949168384743754,"[ 6.06532278e-06 -3.46498787e-07  0.00000000e+00  0.00000000e+00
  0.00000000e+00 -9.89576471e-08 -3.46498787e-07  6.65639807e-06
  0.00000000e+00  0.00000000e+00  0.00000000e+00 -1.34756319e-07
  0.00000000e+00  0.00000000e+00  0.00000000e+00  0.00000000e+00
  0.00000000e+00  0.00000000e+00  0.00000000e+00  0.00000000e+00
  0.00000000e+00  0.00000000e+00  0.00000000e+00  0.00000000e+00
  0.00000000e+00  0.00000000e+00  0.00000000e+00  0.00000000e+00
  0.00000000e+00  0.00000000e+00 -9.89576471e-08 -1.34756319e-07
  0.00000000e+00  0.00000000e+00  0.00000000e+00  2.93054465e-06]","[[ 7.08208804e-05  3.33243914e-03]
 [-1.54992863e-04  1.66608071e-03]]",[],0.0,0.0
1787208560.092493,1.9126166064779238,0.24169163386018735,1.9949168384743754,"[ 6.06532278e-06 -3.46498787e-07  0.00000000e+00  0.00000000e+00
  0.00000000e+00 -9.89576471e-08 -3.46498787e-07  6.65639807e-06
  0.00000000e+00  0.00000000e+00  0.00000000e+00 -1.34756319e-07
  0.00000000e+00  0.00000000e+00  0.00000000e+00  0.00000000e+00
  0.00000000e+00  0.00000000e+00  0.00000000e+00  0.00000000e+00
  0.00000000e+00  0.00000000e+00  0.00000000e+00  0.00000000e+00
  0.00000000e+00  0.00000000e+00  0.00000000e+00  0.00000000e+00
  0.00000000e+00  0.00000000e+00 -9.89576471e-08 -1.34756319e-07
  0.00000000e+00  0.00000000e+00  0.00000000e+00  2.93054465e-06]","[[ 7.08208804e-05  3.33243914e-03]
 [-1.54992863e-04  1.66608071e-03]]",[],0.0,0.0
1787208560.119811,1.9126166064779238,0.24169163386018735,1.9949168384743754,"[ 6.06532278e-06 -3.46498787e-07  0.00000000e+00  0.00000000e+00
  0.00000000e+00 -9.89576471e-08 -3.46498787e-07  6.65639807e-06
  0.00000000e+00  0.00000000e+00  0.00000000e+00 -1.34756319e-07
  0.00000000e+00  0.00000000e+00  0.00000000e+00  0.00000000e+00
  0.00000000e+00  0.00000000e+00  0.00000000e+00  0.00000000e+00
  0.00000000e+00  0.00000000e+00  0.00000000e+00  0.00000000e+00
  0.00000000e+00  0.00000000e+00  0.00000000e+00  0.00000000e+00
  0.00000000e+00  0.00000000e+00 -9.89576471e-08 -1.34756319e-07
  0.00000000e+00  0.00000000e+00  0.00000000e+00  2.93054465e-06]","[[ 7.08208804e-05  3.33243914e-03]
 [-1.54992863e-04  1.66608071e-03]]",[],0.0,0.0
1787208560.1711392,1.9126166064779238,0.24169163386018735,1.9949168384743754,"[ 6.06532278e-06 -3.46498787e-07  0.00000000e+00  0.00000000e+00
  0.00000000e+00 -9.89576471e-08 -3.46498787e-07  6.65639807e-06
  0.00000000e+00  0.00000000e+00  0.00000000e+00 -1.34756319e-07
  0.00000000e+00  0.00000000e+00  0.00000000e+00  0.00000000e+00
  0.00000000e+00  0.00000000e+00  0.00000000e+00  0.00000000e+00
  0.00000000e+00  0.00000000e+00  0.00000000e+00  0.00000000e+00
  0.00000000e+00  0.00000000e+00  0.00000000e+00  0.00000000e+00
  0.00000000e+00  0.00000000e+00 -9.89576471e-08 -1.34756319e-07
  0.00000000e+00  0.00000000e+00  0.00000000e+00  2.93054465e-06]","[[ 7.08208804e-05  3.33243914e-03]
 [-1.54992863e-04  1.66608071e-03]]",[],0.0,0.0
1787208560.2193742,1.9126166064779238,0.24169163386018735,1.9949168384743754,"[ 6.06532278e-06 -3.46498787e-07  0.00000000e+00  0.00000000e+00
  0.00000000e+00 -9.89576471e-08 -3.46498787e-07  6.65639807e-06
  0.00000000e+00  0.00000000e+00  0.00000000e+00 -1.34756319e-07
  0.00000000e+00  0.00000000e+00  0.00000000e+00  0.00000000e+00
  0.00000000e+00  0.00000000e+00  0.00000000e+00  0.00000000e+00
  0.00000000e+00  0.00000000e+00  0.00000000e+00  0.00000000e+00
  0.00000000e+00  0.00000000e+00  0.00000000e+00  0.00000000e+00
  0.00000000e+00  0.00000000e+00 -9.89576471e-08 -1.34756319e-07
  0.00000000e+00  0.00000000e+00  0.00000000e+00  2.93054465e-06]","[[ 7.08208804e-05  3.33243914e-03]
 [-1.54992863e-04  1.66608071e-03]]",[],0.0,0.0
1787208560.2699556,1.9126166064779238,0.24169163386018735,1.9949168384743754,"[ 6.06532278e-06 -3.46498787e-07  0.00000000e+00  0.00000000e+00
  0.00000000e+00 -9.89576471e-08 -3.46498787e-07  6.65639807e-06
  0.00000000e+00  0.00000000e+00  0.00000000e+00 -1.34756319e-07
  0.00000000e+00  0.00000000e+00  0.00000000e+00  0.00000000e+00
  0.00000000e+00  0.00000000e+00  0.00000000e+00  0.00000000e+00
  0.00000000e+00  0.00000000e+00  0.00000000e+00  0.00000000e+00
  0.00000000e+00  0.00000000e+00  0.00000000e+00  0.00000000e+00
  0.00000000e+00  0.00000000e+00 -9.89576471e-08 -1.34756319e-07
  0.00000000e+00  0.00000000e+00  0.00000000e+00  2.93054465e-06]","[[ 7.08208804e-05  3.33243914e-03]
 [-1.54992863e-04  1.66608071e-03]]",[],0.0,0.0
1787208560.317318,1.9126166064779238,0.24169163386018735,1.9949168384743754,"[ 6.06532278e-06 -3.46498787e-07  0.00000000e+00  0.00000000e+00
  0.00000000e+00 -9.89576471e-08 -3.46498787e-07  6.65639807e-06
  0.00000000e+00  0.00000000e+00  0.00000000e+00 -1.34756319e-07
  0.00000000e+00  0.00000000e+00  0.00000000e+00  0.00000000e+00
  0.00000000e+00  0.00000000e+00  0.00000000e+00  0.00000000e+00
  0.00000000e+00  0.00000000e+00  0.00000000e+00  0.00000000e+00
  0.00000000e+00  0.00000000e+00  0.00000000e+00  0.00000000e+00
  0.00000000e+00  0.00000000e+00 -9.89576471e-08 -1.34756319e-07
  0.00000000e+00  0.00000000e+00  0.00000000e+00  2.93054465e-06]","[[ 7.08208804e-05  3.33243914e-03]
 [-1.54992863e-04  1.66608071e-03]]",[],0.0,0.0
1787208560.3740141,1.9126166064779238,0.24169163386018735,1.9949168384743754,"[ 6.06532278e-06 -3.46498787e-07  0.00000000e+00  0.00000000e+00
  0.00000000e+00 -9.89576471e-08 -3.46498787e-07  6.65639807e-06
  0.00000000e+00  0.00000000e+00  0.00000000e+00 -1.34756319e-07
  0.00000000e+00  0.00000000e+00  0.00000000e+00  0.00000000e+00
  0.00000000e+00  0.00000000e+00  0.00000000e+00  0.00000000e+00
  0.00000000e+00  0.00000000e+00  0.00000000e+00  0.00000000e+00
  0.00000000e+00  0.00000000e+00  0.00000000e+00  0.00000000e+00
  0.00000000e+00  0.00000000e+00 -9.89576471e-08 -1.34756319e-07
  0.00000000e+00  0.00000000e+00  0.00000000e+00  2.93054465e-06]","[[ 7.08208804e-05  3.33243914e-03]
 [-1.54992863e-04  1.66608071e-03]]",[],0.0,0.0
1787208560.4220219,1.9126166064779238,0.24169163386018735,1.9949168384743754,"[ 6.06532278e-06 -3.46498787e-07  0.00000000e+00  0.00000000e+00
  0.00000000e+00 -9.89576471e-08 -3.46498787e-07  6.65639807e-06
  0.00000000e+00  0.00000000e+00  0.00000000e+00 -1.34756319e-07
  0.00000000e+00  0.00000000e+00  0.00000000e+00  0.00000000e+00
  0.00000000e+00  0.00000000e+00  0.00000000e+00  0.00000000e+00
  0.00000000e+00  0.00000000e+00  0.00000000e+00  0.00000000e+00
  0.00000000e+00  0.00000000e+00  0.00000000e+00  0.00000000e+00
  0.00000000e+00  0.00000000e+00 -9.89576471e-08 -1.34756319e-07
  0.00000000e+00  0.00000000e+00  0.00000000e+00  2.93054465e-06]","[[ 7.08208804e-05  3.33243914e-03]
 [-1.54992863e-04  1.66608071e-03]]",[],0.0,0.0
1787208560.4806185,1.9126166064779238,0.24169163386018735,1.9949168384743754,"[ 6.06532278e-06 -3.46498787e-07  0.00000000e+00  0.00000000e+00
  0.00000000e+00 -9.89576471e-08 -3.46498787e-07  6.65639807e-06
  0.00000000e+00  0.00000000e+00  0.00000000e+00 -1.34756319e-07
  0.00000000e+00  0.00000000e+00  0.00000000e+00  0.00000000e+00
  0.00000000e+00  0.00000000e+00  0.00000000e+00  0.00000000e+00
  0.00000000e+00  0.00000000e+00  0.00000000e+00  0.00000000e+00
  0.00000000e+00  0.00000000e+00  0.00000000e+00  0.00000000e+00
  0.00000000e+00  0.00000000e+00 -9.89576471e-08 -1.34756319e-07
  0.00000000e+00  0.00000000e+00  0.00000000e+00  2.93054465e-06]","[[ 7.08208804e-05  3.33243914e-03]
 [-1.54992863e-04  1.66608071e-03]]",[],0.0,0.0
1787208560.5171185,1.9126166064779238,0.24169163386018735,1.9949168384743754,"[ 6.06532278e-06 -3.46498787e-07  0.00000000e+00  0.00000000e+00
  0.00000000e+00 -9.89576471e-08 -3.46498787e-07  6.65639807e-06
  0.00000000e+00  0.00000000e+00  0.00000000e+00 -1.34756319e-07
  0.00000000e+00  0.00000000e+00  0.00000000e+00  0.00000000e+00
  0.00000000e+00  0.00000000e+00  0.00000000e+00  0.00000000e+00
  0.00000000e+00  0.00000000e+00  0.00000000e+00  0.00000000e+00
  0.00000000e+00  0.00000000e+00  0.00000000e+00  0.00000000e+00
  0.00000000e+00  0.00000000e+00 -9.89576471e-08 -1.34756319e-07
  0.00000000e+00  0.00000000e+00  0.00000000e+00  2.93054465e-06]","[[ 7.08208804e-05  3.33243914e-03]
 [-1.54992863e-04  1.66608071e-03]]",[],0.0,0.0
1787208560.567674,1.9126166064779238,0.24169163386018735,1.9949168384743754,"[ 6.06532278e-06 -3.46498787e-07  0.00000000e+00  0.00000000e+00
  0.00000000e+00 -9.89576471e-08 -3.46498787e-07  6.65639807e-06
  0.00000000e+00  0.00000000e+00  0.00000000e+00 -1.34756319e-07
  0.00000000e+00  0.00000000e+00  0.00000000e+00  0.00000000e+00
  0.00000000e+00  0.00000000e+00  0.00000000e+00  0.00000000e+00
  0.00000000e+00  0.00000000e+00  0.00000000e+00  0.00000000e+00
  0.00000000e+00  0.00000000e+00  0.00000000e+00  0.00000000e+00
  0.00000000e+00  0.00000000e+00 -9.89576471e-08 -1.34756319e-07
  0.00000000e+00  0.00000000e+00  0.00000000e+00  2.93054465e-06]","[[ 7.08208804e-05  3.33243914e-03]
 [-1.54992863e-04  1.66608071e-03]]",[],0.0,0.0
1787208560.6172805,1.9126166064779238,0.24169163386018735,1.9949168384743754,"[ 6.06532278e-06 -3.46498787e-07  0.00000000e+00  0.00000000e+00
  0.00000000e+00 -9.89576471e-08 -3.46498787e-07  6.65639807e-06
  0.00000000e+00  0.00000000e+00  0.00000000e+00 -1.34756319e-07
  0.00000000e+00  0.00000000e+00  0.00000000e+00  0.00000000e+00
  0.00000000e+00  0.00000000e+00  0.00000000e+00  0.00000000e+00
  0.00000000e+00  0.00000000e+00  0.00000000e+00  0.00000000e+00
  0.00000000e+00  0.00000000e+00  0.00000000e+00  0.00000000e+00
  0.00000000e+00  0.00000000e+00 -9.89576471e-08 -1.34756319e-07
  0.00000000e+00  0.00000000e+00  0.00000000e+00  2.93054465e-06]","[[ 7.08208804e-05  3.33243914e-03]
 [-1.54992863e-04  1.66608071e-03]]",[],0.0,0.0
1787208560.6670907,1.91070545976573,0.23797390536931948,1.9948937460767322,"[ 5.38717404e-06 -3.74471888e-07  0.00000000e+00  0.00000000e+00
  0.00000000e+00 -1.06495576e-07 -3.74471888e-07  6.00698598e-06
  0.00000000e+00  0.00000000e+00  0.00000000e+00 -3.89715314e-08
  0.00000000e+00  0.00000000e+00  0.00000000e+00  0.00000000e+00
  0.00000000e+00  0.00000000e+00  0.00000000e+00  0.00000000e+00
  0.00000000e+00  0.00000000e+00  0.00000000e+00  0.00000000e+00
  0.00000000e+00  0.00000000e+00  0.00000000e+00  0.00000000e+00
  0.00000000e+00  0.00000000e+00 -1.06495576e-07 -3.89715314e-08
  0.00000000e+00  0.00000000e+00  0.00000000e+00  2.84966303e-06]","[[ 6.44487523e-05  2.97068672e-03]
 [-1.40499445e-04  1.33305059e-03]]",[],0.0,0.0
1787208560.7233608,1.91070545976573,0.23797390536931948,1.9948937460767322,"[ 5.38717404e-06 -3.74471888e-07  0.00000000e+00  0.00000000e+00
  0.00000000e+00 -1.06495576e-07 -3.74471888e-07  6.00698598e-06
  0.00000000e+00  0.00000000e+00  0.00000000e+00 -3.89715314e-08
  0.00000000e+00  0.00000000e+00  0.00000000e+00  0.00000000e+00
  0.00000000e+00  0.00000000e+00  0.00000000e+00  0.00000000e+00
  0.00000000e+00  0.00000000e+00  0.00000000e+00  0.00000000e+00
  0.00000000e+00  0.00000000e+00  0.00000000e+00  0.00000000e+00
  0.00000000e+00  0.00000000e+00 -1.06495576e-07 -3.89715314e-08
  0.00000000e+00  0.00000000e+00  0.00000000e+00  2.84966303e-06]","[[ 6.44487523e-05  2.97068672e-03]
 [-1.40499445e-04  1.33305059e-03]]",[],0.0,0.0
1787208560.7853863,1.91070545976573,0.23797390536931948,1.9948937460767322,"[ 5.38717404e-06 -3.74471888e-07  0.00000000e+00  0.00000000e+00
  0.00000000e+00 -1.06495576e-07 -3.74471888e-07  6.00698598e-06
  0.00000000e+00  0.00000000e+00  0.00000000e+00 -3.89715314e-08
  0.00000000e+00  0.00000000e+00  0.00000000e+00  0.00000000e+00
  0.00000000e+00  0.00000000e+00  0.00000000e+00  0.00000000e+00
  0.00000000e+00  0.00000000e+00  0.00000000e+00  0.00000000e+00
  0.00000000e+00  0.00000000e+00  0.00000000e+00  0.00000000e+00
  0.00000000e+00  0.00000000e+00 -1.06495576e-07 -3.89715314e-08
  0.00000000e+00  0.00000000e+00  0.00000000e+00  2.84966303e-06]","[[ 6.44487523e-05  2.97068672e-03]
 [-1.40499445e-04  1.33305059e-03]]",[],0.0,0.0
1787208560.8271096,1.91070545976573,0.23797390536931948,1.9948937460767322,"[ 5.38717404e-06 -3.74471888e-07  0.00000000e+00  0.00000000e+00
  0.00000000e+00 -1.06495576e-07 -3.74471888e-07  6.00698598e-06
  0.00000000e+00  0.00000000e+00  0.00000000e+00 -3.89715314e-08
  0.00000000e+00  0.00000000e+00  0.00000000e+00  0.00000000e+00
  0.00000000e+00  0.00000000e+00  0.00000000e+00  0.00000000e+00
  0.00000000e+00  0.00000000e+00  0.00000000e+00  0.00000000e+00
  0.00000000e+00  0.00000000e+00  0.00000000e+00  0.00000000e+00
  0.00000000e+00  0.00000000e+00 -1.06495576e-07 -3.89715314e-08
  0.00000000e+00  0.00000000e+00  0.00000000e+00  2.84966303e-06]","[[ 6.44487523e-05  2.97068672e-03]
 [-1.40499445e-04  1.33305059e-03]]",[],0.0,0.0
1787208560.867747,1.91070545976573,0.23797390536931948,1.9948937460767322,"[ 5.38717404e-06 -3.74471888e-07  0.00000000e+00  0.00000000e+00
  0.00000000e+00 -1.06495576e-07 -3.74471888e-07  6.00698598e-06
  0.00000000e+00  0.00000000e+00  0.00000000e+00 -3.89715314e-08
  0.00000000e+00  0.00000000e+00  0.00000000e+00  0.00000000e+00
  0.00000000e+00  0.00000000e+00  0.00000000e+00  0.00000000e+00
  0.00000000e+00  0.00000000e+00  0.00000000e+00  0.00000000e+00
  0.00000000e+00  0.00000000e+00  0.00000000e+00  0.00000000e+00
  0.00000000e+00  0.00000000e+00 -1.06495576e-07 -3.89715314e-08
  0.00000000e+00  0.00000000e+00  0.00000000e+00  2.84966303e-06]","[[ 6.44487523e-05  2.97068672e-03]
 [-1.40499445e-04  1.33305059e-03]]",[],0.0,0.0
1787208560.9182332,1.91070545976573,0.23797390536931948,1.9948937460767322,"[ 5.38717404e-06 -3.74471888e-07  0.00000000e+00  0.00000000e+00
  0.00000000e+00 -1.06495576e-07 -3.74471888e-07  6.00698598e-06
  0.00000000e+00  0.00000000e+00  0.00000000e+00 -3.89715314e-08
  0.00000000e+00  0.00000000e+00  0.00000000e+00  0.00000000e+00
  0.00000000e+00  0.00000000e+00  0.00000000e+00  0.00000000e+00
  0.00000000e+00  0.00000000e+00  0.00000000e+00  0.00000000e+00
  0.00000000e+00  0.00000000e+00  0.00000000e+00  0.00000000e+00
  0.00000000e+00  0.00000000e+00 -1.06495576e-07 -3.89715314e-08
  0.00000000e+00  0.00000000e+00  0.00000000e+00  2.84966303e-06]","[[ 6.44487523e-05  2.97068672e-03]
 [-1.40499445e-04  1.33305059e-03]]",[],0.0,0.0
1787208560.982694,1.91070545976573,0.23797390536931948,1.9948937460767322,"[ 5.38717404e-06 -3.74471888e-07  0.00000000e+00  0.00000000e+00
  0.00000000e+00 -1.06495576e-07 -3.74471888e-07  6.00698598e-06
  0.00000000e+00  0.00000000e+00  0.00000000e+00 -3.89715314e-08
  0.00000000e+00  0.00000000e+00  0.00000000e+00  0.00000000e+00
  0.00000000e+00  0.00000000e+00  0.00000000e+00  0.00000000e+00
  0.00000000e+00  0.00000000e+00  0.00000000e+00  0.00000000e+00
  0.00000000e+00  0.00000000e+00  0.00000000e+00  0.00000000e+00
  0.00000000e+00  0.00000000e+00 -1.06495576e-07 -3.89715314e-08
  0.00000000e+00  0.00000000e+00  0.00000000e+00  2.84966303e-06]","[[ 6.44487523e-05  2.97068672e-03]
 [-1.40499445e-04  1.33305059e-03]]",[],0.0,0.0
1787208561.0247624,1.91070545976573,0.23797390536931948,1.9948937460767322,"[ 5.38717404e-06 -3.74471888e-07  0.00000000e+00  0.00000000e+00
  0.00000000e+00 -1.06495576e-07 -3.74471888e-07  6.00698598e-06
  0.00000000e+00  0.00000000e+00  0.00000000e+00 -3.89715314e-08
  0.00000000e+00  0.00000000e+00  0.00000000e+00  0.00000000e+00
  0.00000000e+00  0.00000000e+00  0.00000000e+00  0.00000000e+00
  0.00000000e+00  0.00000000e+00  0.00000000e+00  0.00000000e+00
  0.00000000e+00  0.00000000e+00  0.00000000e+00  0.00000000e+00
  0.00000000e+00  0.00000000e+00 -1.06495576e-07 -3.89715314e-08
  0.00000000e+00  0.00000000e+00  0.00000000e+00  2.84966303e-06]","[[ 6.44487523e-05  2.97068672e-03]
 [-1.40499445e-04  1.33305059e-03]]",[],0.0,0.0
1787208561.0671864,1.91070545976573,0.23797390536931948,1.9948937460767322,"[ 5.38717404e-06 -3.74471888e-07  0.00000000e+00  0.00000000e+00
  0.00000000e+00 -1.06495576e-07 -3.74471888e-07  6.00698598e-06
  0.00000000e+00  0.00000000e+00  0.00000000e+00 -3.89715314e-08
  0.00000000e+00  0.00000000e+00  0.00000000e+00  0.00000000e+00
  0.00000000e+00  0.00000000e+00  0.00000000e+00  0.00000000e+00
  0.00000000e+00  0.00000000e+00  0.00000000e+00  0.00000000e+00
  0.00000000e+00  0.00000000e+00  0.00000000e+00  0.00000000e+00
  0.00000000e+00  0.00000000e+00 -1.06495576e-07 -3.89715314e-08
  0.00000000e+00  0.00000000e+00  0.00000000e+00  2.84966303e-06]","[[ 6.44487523e-05  2.97068672e-03]
 [-1.40499445e-04  1.33305059e-03]]",[],0.0,0.0
1787208561.1210897,1.91070545976573,0.23797390536931948,1.9948937460767322,"[ 5.38717404e-06 -3.74471888e-07  0.00000000e+00  0.00000000e+00
  0.00000000e+00 -1.06495576e-07 -3.74471888e-07  6.00698598e-06
  0.00000000e+00  0.00000000e+00  0.00000000e+00 -3.89715314e-08
  0.00000000e+00  0.00000000e+00  0.00000000e+00  0.00000000e+00
  0.00000000e+00  0.00000000e+00  0.00000000e+00  0.00000000e+00
  0.00000000e+00  0.00000000e+00  0.00000000e+00  0.00000000e+00
  0.00000000e+00  0.00000000e+00  0.00000000e+00  0.00000000e+00
  0.00000000e+00  0.00000000e+00 -1.06495576e-07 -3.89715314e-08
  0.00000000e+00  0.00000000e+00  0.00000000e+00  2.84966303e-06]","[[ 6.44487523e-05  2.97068672e-03]
 [-1.40499445e-04  1.33305059e-03]]",[],0.0,0.0
1787208561.1685972,1.91070545976573,0.23797390536931948,1.9948937460767322,"[ 5.38717404e-06 -3.74471888e-07  0.00000000e+00  0.00000000e+00
  0.00000000e+00 -1.06495576e-07 -3.74471888e-07  6.00698598e-06
  0.00000000e+00  0.00000000e+00  0.00000000e+00 -3.89715314e-08
  0.00000000e+00  0.00000000e+00  0.00000000e+00  0.00000000e+00
  0.00000000e+00  0.00000000e+00  0.00000000e+00  0.00000000e+00
  0.00000000e+00  0.00000000e+00  0.00000000e+00  0.00000000e+00
  0.00000000e+00  0.00000000e+00  0.00000000e+00  0.00000000e+00
  0.00000000e+00  0.00000000e+00 -1.06495576e-07 -3.89715314e-08
  0.00000000e+00  0.00000000e+00  0.00000000e+00  2.84966303e-06]","[[ 6.44487523e-05  2.97068672e-03]
 [-1.40499445e-04  1.33305059e-03]]",[],0.0,0.0
1787208561.2205238,1.91070545976573,0.23797390536931948,1.9948937460767322,"[ 5.38717404e-06 -3.74471888e-07  0.00000000e+00  0.00000000e+00
  0.00000000e+00 -1.06495576e-07 -3.74471888e-07  6.00698598e-06
  0.00000000e+00  0.00000000e+00  0.00000000e+00 -3.89715314e-08
  0.00000000e+00  0.00000000e+00  0.00000000e+00  0.00000000e+00
  0.00000000e+00  0.00000000e+00  0.00000000e+00  0.00000000e+00
  0.00000000e+00  0.00000000e+00  0.00000000e+00  0.00000000e+00
  0.00000000e+00  0.00000000e+00  0.00000000e+00  0.00000000e+00
  0.00000000e+00  0.00000000e+00 -1.06495576e-07 -3.89715314e-08
  0.00000000e+00  0.00000000e+00  0.00000000e+00  2.84966303e-06]","[[ 6.44487523e-05  2.97068672e-03]
 [-1.40499445e-04  1.33305059e-03]]",[],0.0,0.0
1787208561.2963884,1.91070545976573,0.23797390536931948,1.9948937460767322,"[ 5.38717404e-06 -3.74471888e-07  0.00000000e+00  0.00000000e+00
  0.00000000e+00 -1.06495576e-07 -3.74471888e-07  6.00698598e-06
  0.00000000e+00  0.00000000e+00  0.00000000e+00 -3.89715314e-08
  0.00000000e+00  0.00000000e+00  0.00000000e+00  0.00000000e+00
  0.00000000e+00  0.00000000e+00  0.00000000e+00  0.00000000e+00
  0.00000000e+00  0.00000000e+00  0.00000000e+00  0.00000000e+00
  0.00000000e+00  0.00000000e+00  0.00000000e+00  0.00000000e+00
  0.00000000e+00  0.00000000e+00 -1.06495576e-07 -3.89715314e-08
  0.00000000e+00  0.00000000e+00  0.00000000e+00  2.84966303e-06]","[[ 6.44487523e-05  2.97068672e-03]
 [-1.40499445e-04  1.33305059e-03]]",[],0.0,0.0
1787208561.326477,1.91070545976573,0.23797390536931948,1.9948937460767322,"[ 5.38717404e-06 -3.74471888e-07  0.00000000e+00  0.00000000e+00
  0.00000000e+00 -1.06495576e-07 -3.74471888e-07  6.00698598e-06
  0.00000000e+00  0.00000000e+00  0.00000000e+00 -3.89715314e-08
  0.00000000e+00  0.00000000e+00  0.00000000e+00  0.00000000e+00
  0.00000000e+00  0.00000000e+00  0.00000000e+00  0.00000000e+00
  0.00000000e+00  0.00000000e+00  0.00000000e+00  0.00000000e+00
  0.00000000e+00  0.00000000e+00  0.00000000e+00  0.00000000e+00
  0.00000000e+00  0.00000000e+00 -1.06495576e-07 -3.89715314e-08
  0.00000000e+00  0.00000000e+00  0.00000000e+00  2.84966303e-06]","[[ 6.44487523e-05  2.97068672e-03]
 [-1.40499445e-04  1.33305059e-03]]",[],0.0,0.0
1787208561.366938,1.91070545976573,0.23797390536931948,1.9948937460767322,"[ 5.38717404e-06 -3.74471888e-07  0.00000000e+00  0.00000000e+00
  0.00000000e+00 -1.06495576e-07 -3.74471888e-07  6.00698598e-06
  0.00000000e+00  0.00000000e+00  0.00000000e+00 -3.89715314e-08
  0.00000000e+00  0.00000000e+00  0.00000000e+00  0.00000000e+00
  0.00000000e+00  0.00000000e+00  0.00000000e+00  0.00000000e+00
  0.00000000e+00  0.00000000e+00  0.00000000e+00  0.00000000e+00
  0.00000000e+00  0.00000000e+00  0.00000000e+00  0.00000000e+00
  0.00000000e+00  0.00000000e+00 -1.06495576e-07 -3.89715314e-08
  0.00000000e+00  0.00000000e+00  0.00000000e+00  2.84966303e-06]","[[ 6.44487523e-05  2.97068672e-03]
 [-1.40499445e-04  1.33305059e-03]]",[],0.0,0.0
1787208561.4297483,1.91070545976573,0.23797390536931948,1.9948937460767322,"[ 5.38717404e-06 -3.74471888e-07  0.00000000e+00  0.00000000e+00
  0.00000000e+00 -1.06495576e-07 -3.74471888e-07  6.00698598e-06
  0.00000000e+00  0.00000000e+00  0.00000000e+00 -3.89715314e-08
  0.00000000e+00  0.00000000e+00  0.00000000e+00  0.00000000e+00
  0.00000000e+00  0.00000000e+00  0.00000000e+00  0.00000000e+00
  0.00000000e+00  0.00000000e+00  0.00000000e+00  0.00000000e+00
  0.00000000e+00  0.00000000e+00  0.00000000e+00  0.00000000e+00
  0.00000000e+00  0.00000000e+00 -1.06495576e-07 -3.89715314e-08
  0.00000000e+00  0.00000000e+00  0.00000000e+00  2.84966303e-06]","[[ 6.44487523e-05  2.97068672e-03]
 [-1.40499445e-04  1.33305059e-03]]",[],0.0,0.0
1787208561.4672992,1.9091805067225125,0.23665416246619747,1.989714993717578,"[ 4.87931235e-06 -3.90797524e-07  0.00000000e+00  0.00000000e+00
  0.00000000e+00 -1.03229113e-07 -3.90797524e-07  5.49684124e-06
  0.00000000e+00  0.00000000e+00  0.00000000e+00 -4.34107597e-08
  0.00000000e+00  0.00000000e+00  0.00000000e+00  0.00000000e+00
  0.00000000e+00  0.00000000e+00  0.00000000e+00  0.00000000e+00
  0.00000000e+00  0.00000000e+00  0.00000000e+00  0.00000000e+00
  0.00000000e+00  0.00000000e+00  0.00000000e+00  0.00000000e+00
  0.00000000e+00  0.00000000e+00 -1.03229113e-07 -4.34107597e-08
  0.00000000e+00  0.00000000e+00  0.00000000e+00  2.92082296e-06]","[[ 5.94222645e-05  2.68852255e-03]
 [-1.29123360e-04  1.20227964e-03]]",[],0.0,0.0
1787208561.520544,1.9091805067225125,0.23665416246619747,1.989714993717578,"[ 4.87931235e-06 -3.90797524e-07  0.00000000e+00  0.00000000e+00
  0.00000000e+00 -1.03229113e-07 -3.90797524e-07  5.49684124e-06
  0.00000000e+00  0.00000000e+00  0.00000000e+00 -4.34107597e-08
  0.00000000e+00  0.00000000e+00  0.00000000e+00  0.00000000e+00
  0.00000000e+00  0.00000000e+00  0.00000000e+00  0.00000000e+00
  0.00000000e+00  0.00000000e+00  0.00000000e+00  0.00000000e+00
  0.00000000e+00  0.00000000e+00  0.00000000e+00  0.00000000e+00
  0.00000000e+00  0.00000000e+00 -1.03229113e-07 -4.34107597e-08
  0.00000000e+00  0.00000000e+00  0.00000000e+00  2.92082296e-06]","[[ 5.94222645e-05  2.68852255e-03]
 [-1.29123360e-04  1.20227964e-03]]",[],0.0,0.0
1787208561.5673587,1.9091805067225125,0.23665416246619747,1.989714993717578,"[ 4.87931235e-06 -3.90797524e-07  0.00000000e+00  0.00000000e+00
  0.00000000e+00 -1.03229113e-07 -3.90797524e-07  5.49684124e-06
  0.00000000e+00  0.00000000e+00  0.00000000e+00 -4.34107597e-08
  0.00000000e+00  0.00000000e+00  0.00000000e+00  0.00000000e+00
  0.00000000e+00  0.00000000e+00  0.00000000e+00  0.00000000e+00
  0.00000000e+00  0.00000000e+00  0.00000000e+00  0.00000000e+00
  0.00000000e+00  0.00000000e+00  0.00000000e+00  0.00000000e+00
  0.00000000e+00  0.00000000e+00 -1.03229113e-07 -4.34107597e-08
  0.00000000e+00  0.00000000e+00  0.00000000e+00  2.92082296e-06]","[[ 5.94222645e-05  2.68852255e-03]
 [-1.29123360e-04  1.20227964e-03]]",[],0.0,0.0
1787208561.624644,1.9091805067225125,0.23665416246619747,1.989714993717578,"[ 4.87931235e-06 -3.90797524e-07  0.00000000e+00  0.00000000e+00
  0.00000000e+00 -1.03229113e-07 -3.90797524e-07  5.49684124e-06
  0.00000000e+00  0.00000000e+00  0.00000000e+00 -4.34107597e-08
  0.00000000e+00  0.00000000e+00  0.00000000e+00  0.00000000e+00
  0.00000000e+00  0.00000000e+00  0.00000000e+00  0.00000000e+00
  0.00000000e+00  0.00000000e+00  0.00000000e+00  0.00000000e+00
  0.00000000e+00  0.00000000e+00  0.00000000e+00  0.00000000e+00
  0.00000000e+00  0.00000000e+00 -1.03229113e-07 -4.34107597e-08
  0.00000000e+00  0.00000000e+00  0.00000000e+00  2.92082296e-06]","[[ 5.94222645e-05  2.68852255e-03]
 [-1.29123360e-04  1.20227964e-03]]",[],0.0,0.0
1787208561.6670592,1.9091805067225125,0.23665416246619747,1.989714993717578,"[ 4.87931235e-06 -3.90797524e-07  0.00000000e+00  0.00000000e+00
  0.00000000e+00 -1.03229113e-07 -3.90797524e-07  5.49684124e-06
  0.00000000e+00  0.00000000e+00  0.00000000e+00 -4.34107597e-08
  0.00000000e+00  0.00000000e+00  0.00000000e+00  0.00000000e+00
  0.00000000e+00  0.00000000e+00  0.00000000e+00  0.00000000e+00
  0.00000000e+00  0.00000000e+00  0.00000000e+00  0.00000000e+00
  0.00000000e+00  0.00000000e+00  0.00000000e+00  0.00000000e+00
  0.00000000e+00  0.00000000e+00 -1.03229113e-07 -4.34107597e-08
  0.00000000e+00  0.00000000e+00  0.00000000e+00  2.92082296e-06]","[[ 5.94222645e-05  2.68852255e-03]
 [-1.29123360e-04  1.20227964e-03]]",[],0.0,0.0
1787208561.7181792,1.9091805067225125,0.23665416246619747,1.989714993717578,"[ 4.87931235e-06 -3.90797524e-07  0.00000000e+00  0.00000000e+00
  0.00000000e+00 -1.03229113e-07 -3.90797524e-07  5.49684124e-06
  0.00000000e+00  0.00000000e+00  0.00000000e+00 -4.34107597e-08
  0.00000000e+00  0.00000000e+00  0.00000000e+00  0.00000000e+00
  0.00000000e+00  0.00000000e+00  0.00000000e+00  0.00000000e+00
  0.00000000e+00  0.00000000e+00  0.00000000e+00  0.00000000e+00
  0.00000000e+00  0.00000000e+00  0.00000000e+00  0.00000000e+00
  0.00000000e+00  0.00000000e+00 -1.03229113e-07 -4.34107597e-08
  0.00000000e+00  0.00000000e+00  0.00000000e+00  2.92082296e-06]","[[ 5.94222645e-05  2.68852255e-03]
 [-1.29123360e-04  1.20227964e-03]]",[],0.0,0.0
1787208561.768273,1.9091805067225125,0.23665416246619747,1.989714993717578,"[ 4.87931235e-06 -3.90797524e-07  0.00000000e+00  0.00000000e+00
  0.00000000e+00 -1.03229113e-07 -3.90797524e-07  5.49684124e-06
  0.00000000e+00  0.00000000e+00  0.00000000e+00 -4.34107597e-08
  0.00000000e+00  0.00000000e+00  0.00000000e+00  0.00000000e+00
  0.00000000e+00  0.00000000e+00  0.00000000e+00  0.00000000e+00
  0.00000000e+00  0.00000000e+00  0.00000000e+00  0.00000000e+00
  0.00000000e+00  0.00000000e+00  0.00000000e+00  0.00000000e+00
  0.00000000e+00  0.00000000e+00 -1.03229113e-07 -4.34107597e-08
  0.00000000e+00  0.00000000e+00  0.00000000e+00  2.92082296e-06]","[[ 5.94222645e-05  2.68852255e-03]
 [-1.29123360e-04  1.20227964e-03]]",[],0.0,0.0
1787208561.8172746,1.9091805067225125,0.23665416246619747,1.989714993717578,"[ 4.87931235e-06 -3.90797524e-07  0.00000000e+00  0.00000000e+00
  0.00000000e+00 -1.03229113e-07 -3.90797524e-07  5.49684124e-06
  0.00000000e+00  0.00000000e+00  0.00000000e+00 -4.34107597e-08
  0.00000000e+00  0.00000000e+00  0.00000000e+00  0.00000000e+00
  0.00000000e+00  0.00000000e+00  0.00000000e+00  0.00000000e+00
  0.00000000e+00  0.00000000e+00  0.00000000e+00  0.00000000e+00
  0.00000000e+00  0.00000000e+00  0.00000000e+00  0.00000000e+00
  0.00000000e+00  0.00000000e+00 -1.03229113e-07 -4.34107597e-08
  0.00000000e+00  0.00000000e+00  0.00000000e+00  2.92082296e-06]","[[ 5.94222645e-05  2.68852255e-03]
 [-1.29123360e-04  1.20227964e-03]]",[],0.0,0.0
1787208561.87234,1.9091805067225125,0.23665416246619747,1.989714993717578,"[ 4.87931235e-06 -3.90797524e-07  0.00000000e+00  0.00000000e+00
  0.00000000e+00 -1.03229113e-07 -3.90797524e-07  5.49684124e-06
  0.00000000e+00  0.00000000e+00  0.00000000e+00 -4.34107597e-08
  0.00000000e+00  0.00000000e+00  0.00000000e+00  0.00000000e+00
  0.00000000e+00  0.00000000e+00  0.00000000e+00  0.00000000e+00
  0.00000000e+00  0.00000000e+00  0.00000000e+00  0.00000000e+00
  0.00000000e+00  0.00000000e+00  0.00000000e+00  0.00000000e+00
  0.00000000e+00  0.00000000e+00 -1.03229113e-07 -4.34107597e-08
  0.00000000e+00  0.00000000e+00  0.00000000e+00  2.92082296e-06]","[[ 5.94222645e-05  2.68852255e-03]
 [-1.29123360e-04  1.20227964e-03]]",[],0.0,0.0
1787208561.918363,1.9091805067225125,0.23665416246619747,1.989714993717578,"[ 4.87931235e-06 -3.90797524e-07  0.00000000e+00  0.00000000e+00
  0.00000000e+00 -1.03229113e-07 -3.90797524e-07  5.49684124e-06
  0.00000000e+00  0.00000000e+00  0.00000000e+00 -4.34107597e-08
  0.00000000e+00  0.00000000e+00  0.00000000e+00  0.00000000e+00
  0.00000000e+00  0.00000000e+00  0.00000000e+00  0.00000000e+00
  0.00000000e+00  0.00000000e+00  0.00000000e+00  0.00000000e+00
  0.00000000e+00  0.00000000e+00  0.00000000e+00  0.00000000e+00
  0.00000000e+00  0.00000000e+00 -1.03229113e-07 -4.34107597e-08
  0.00000000e+00  0.00000000e+00  0.00000000e+00  2.92082296e-06]","[[ 5.94222645e-05  2.68852255e-03]
 [-1.29123360e-04  1.20227964e-03]]",[],0.0,0.0
1787208561.971578,1.9091805067225125,0.23665416246619747,1.989714993717578,"[ 4.87931235e-06 -3.90797524e-07  0.00000000e+00  0.00000000e+00
  0.00000000e+00 -1.03229113e-07 -3.90797524e-07  5.49684124e-06
  0.00000000e+00  0.00000000e+00  0.00000000e+00 -4.34107597e-08
  0.00000000e+00  0.00000000e+00  0.00000000e+00  0.00000000e+00
  0.00000000e+00  0.00000000e+00  0.00000000e+00  0.00000000e+00
  0.00000000e+00  0.00000000e+00  0.00000000e+00  0.00000000e+00
  0.00000000e+00  0.00000000e+00  0.00000000e+00  0.00000000e+00
  0.00000000e+00  0.00000000e+00 -1.03229113e-07 -4.34107597e-08
  0.00000000e+00  0.00000000e+00  0.00000000e+00  2.92082296e-06]","[[ 5.94222645e-05  2.68852255e-03]
 [-1.29123360e-04  1.20227964e-03]]",[],0.0,0.0
1787208562.017729,1.9091805067225125,0.23665416246619747,1.989714993717578,"[ 4.87931235e-06 -3.90797524e-07  0.00000000e+00  0.00000000e+00
  0.00000000e+00 -1.03229113e-07 -3.90797524e-07  5.49684124e-06
  0.00000000e+00  0.00000000e+00  0.00000000e+00 -4.34107597e-08
  0.00000000e+00  0.00000000e+00  0.00000000e+00  0.00000000e+00
  0.00000000e+00  0.00000000e+00  0.00000000e+00  0.00000000e+00
  0.00000000e+00  0.00000000e+00  0.00000000e+00  0.00000000e+00
  0.00000000e+00  0.00000000e+00  0.00000000e+00  0.00000000e+00
  0.00000000e+00  0.00000000e+00 -1.03229113e-07 -4.34107597e-08
  0.00000000e+00  0.00000000e+00  0.00000000e+00  2.92082296e-06]","[[ 5.94222645e-05  2.68852255e-03]
 [-1.29123360e-04  1.20227964e-03]]",[],0.0,0.0
1787208562.0682788,1.9091805067225125,0.23665416246619747,1.989714993717578,"[ 4.87931235e-06 -3.90797524e-07  0.00000000e+00  0.00000000e+00
  0.00000000e+00 -1.03229113e-07 -3.90797524e-07  5.49684124e-06
  0.00000000e+00  0.00000000e+00  0.00000000e+00 -4.34107597e-08
  0.00000000e+00  0.00000000e+00  0.00000000e+00  0.00000000e+00
  0.00000000e+00  0.00000000e+00  0.00000000e+00  0.00000000e+00
  0.00000000e+00  0.00000000e+00  0.00000000e+00  0.00000000e+00
  0.00000000e+00  0.00000000e+00  0.00000000e+00  0.00000000e+00
  0.00000000e+00  0.00000000e+00 -1.03229113e-07 -4.34107597e-08
  0.00000000e+00  0.00000000e+00  0.00000000e+00  2.92082296e-06]","[[ 5.94222645e-05  2.68852255e-03]
 [-1.29123360e-04  1.20227964e-03]]",[],0.0,0.0
1787208562.1171443,1.9091805067225125,0.23665416246619747,1.989714993717578,"[ 4.87931235e-06 -3.90797524e-07  0.00000000e+00  0.00000000e+00
  0.00000000e+00 -1.03229113e-07 -3.90797524e-07  5.49684124e-06
  0.00000000e+00  0.00000000e+00  0.00000000e+00 -4.34107597e-08
  0.00000000e+00  0.00000000e+00  0.00000000e+00  0.00000000e+00
  0.00000000e+00  0.00000000e+00  0.00000000e+00  0.00000000e+00
  0.00000000e+00  0.00000000e+00  0.00000000e+00  0.00000000e+00
  0.00000000e+00  0.00000000e+00  0.00000000e+00  0.00000000e+00
  0.00000000e+00  0.00000000e+00 -1.03229113e-07 -4.34107597e-08
  0.00000000e+00  0.00000000e+00  0.00000000e+00  2.92082296e-06]","[[ 5.94222645e-05  2.68852255e-03]
 [-1.29123360e-04  1.20227964e-03]]",[],0.0,0.0
1787208562.199068,1.9091805067225125,0.23665416246619747,1.989714993717578,"[ 4.87931235e-06 -3.90797524e-07  0.00000000e+00  0.00000000e+00
  0.00000000e+00 -1.03229113e-07 -3.90797524e-07  5.49684124e-06
  0.00000000e+00  0.00000000e+00  0.00000000e+00 -4.34107597e-08
  0.00000000e+00  0.00000000e+00  0.00000000e+00  0.00000000e+00
  0.00000000e+00  0.00000000e+00  0.00000000e+00  0.00000000e+00
  0.00000000e+00  0.00000000e+00  0.00000000e+00  0.00000000e+00
  0.00000000e+00  0.00000000e+00  0.00000000e+00  0.00000000e+00
  0.00000000e+00  0.00000000e+00 -1.03229113e-07 -4.34107597e-08
  0.00000000e+00  0.00000000e+00  0.00000000e+00  2.92082296e-06]","[[ 5.94222645e-05  2.68852255e-03]
 [-1.29123360e-04  1.20227964e-03]]",[],0.0,0.0
1787208562.2528212,1.9083608768764426,0.2339701341197332,1.9894273007336079,"[ 4.47356794e-06 -3.96942805e-07  0.00000000e+00  0.00000000e+00
  0.00000000e+00 -7.67117158e-08 -3.96942805e-07  5.11743178e-06
  0.00000000e+00  0.00000000e+00  0.00000000e+00 -7.31342777e-08
  0.00000000e+00  0.00000000e+00  0.00000000e+00  0.00000000e+00
  0.00000000e+00  0.00000000e+00  0.00000000e+00  0.00000000e+00
  0.00000000e+00  0.00000000e+00  0.00000000e+00  0.00000000e+00
  0.00000000e+00  0.00000000e+00  0.00000000e+00  0.00000000e+00
  0.00000000e+00  0.00000000e+00 -7.67117158e-08 -7.31342777e-08
  0.00000000e+00  0.00000000e+00  0.00000000e+00  2.96555073e-06]","[[ 5.52929943e-05  2.42630536e-03]
 [-1.20584061e-04  1.15351416e-03]]",[],0.0,0.0
1787208562.2679548,1.9083608768764426,0.2339701341197332,1.9894273007336079,"[ 4.47356794e-06 -3.96942805e-07  0.00000000e+00  0.00000000e+00
  0.00000000e+00 -7.67117158e-08 -3.96942805e-07  5.11743178e-06
  0.00000000e+00  0.00000000e+00  0.00000000e+00 -7.31342777e-08
  0.00000000e+00  0.00000000e+00  0.00000000e+00  0.00000000e+00
  0.00000000e+00  0.00000000e+00  0.00000000e+00  0.00000000e+00
  0.00000000e+00  0.00000000e+00  0.00000000e+00  0.00000000e+00
  0.00000000e+00  0.00000000e+00  0.00000000e+00  0.00000000e+00
  0.00000000e+00  0.00000000e+00 -7.67117158e-08 -7.31342777e-08
  0.00000000e+00  0.00000000e+00  0.00000000e+00  2.96555073e-06]","[[ 5.52929943e-05  2.42630536e-03]
 [-1.20584061e-04  1.15351416e-03]]",[],0.0,0.0
1787208562.3242378,1.9083608768764426,0.2339701341197332,1.9894273007336079,"[ 4.47356794e-06 -3.96942805e-07  0.00000000e+00  0.00000000e+00
  0.00000000e+00 -7.67117158e-08 -3.96942805e-07  5.11743178e-06
  0.00000000e+00  0.00000000e+00  0.00000000e+00 -7.31342777e-08
  0.00000000e+00  0.00000000e+00  0.00000000e+00  0.00000000e+00
  0.00000000e+00  0.00000000e+00  0.00000000e+00  0.00000000e+00
  0.00000000e+00  0.00000000e+00  0.00000000e+00  0.00000000e+00
  0.00000000e+00  0.00000000e+00  0.00000000e+00  0.00000000e+00
  0.00000000e+00  0.00000000e+00 -7.67117158e-08 -7.31342777e-08
  0.00000000e+00  0.00000000e+00  0.00000000e+00  2.96555073e-06]","[[ 5.52929943e-05  2.42630536e-03]
 [-1.20584061e-04  1.15351416e-03]]",[],0.0,0.0
1787208562.368314,1.9083608768764426,0.2339701341197332,1.9894273007336079,"[ 4.47356794e-06 -3.96942805e-07  0.00000000e+00  0.00000000e+00
  0.00000000e+00 -7.67117158e-08 -3.96942805e-07  5.11743178e-06
  0.00000000e+00  0.00000000e+00  0.00000000e+00 -7.31342777e-08
  0.00000000e+00  0.00000000e+00  0.00000000e+00  0.00000000e+00
