time,x,y,yaw,cov_prop,K_gain,innovation,v_ekf,omega_ekf
1787214831.456197,0.3348719946265133,-0.9064364579345201,0.16384578286226414,"[ 2.73974378e-05 -3.30370557e-06  0.00000000e+00  0.00000000e+00
  0.00000000e+00 -3.50366456e-06 -3.30370557e-06  1.94807043e-05
  0.00000000e+00  0.00000000e+00  0.00000000e+00  3.70514630e-06
  0.00000000e+00  0.00000000e+00  0.00000000e+00  0.00000000e+00
  0.00000000e+00  0.00000000e+00  0.00000000e+00  0.00000000e+00
  0.00000000e+00  0.00000000e+00  0.00000000e+00  0.00000000e+00
  0.00000000e+00  0.00000000e+00  0.00000000e+00  0.00000000e+00
  0.00000000e+00  0.00000000e+00 -3.50366456e-06  3.70514630e-06
  0.00000000e+00  0.00000000e+00  0.00000000e+00  4.52664413e-06]","[[-0.00068987  0.00586301]
 [ 0.00013616 -0.01148194]]",[],0.0,0.0
1787214831.506003,0.3348719946265133,-0.9064364579345201,0.16384578286226414,"[ 2.73974378e-05 -3.30370557e-06  0.00000000e+00  0.00000000e+00
  0.00000000e+00 -3.50366456e-06 -3.30370557e-06  1.94807043e-05
  0.00000000e+00  0.00000000e+00  0.00000000e+00  3.70514630e-06
  0.00000000e+00  0.00000000e+00  0.00000000e+00  0.00000000e+00
  0.00000000e+00  0.00000000e+00  0.00000000e+00  0.00000000e+00
  0.00000000e+00  0.00000000e+00  0.00000000e+00  0.00000000e+00
  0.00000000e+00  0.00000000e+00  0.00000000e+00  0.00000000e+00
  0.00000000e+00  0.00000000e+00 -3.50366456e-06  3.70514630e-06
  0.00000000e+00  0.00000000e+00  0.00000000e+00  4.52664413e-06]","[[-0.00068987  0.00586301]
 [ 0.00013616 -0.01148194]]",[],0.0,0.0
1787214831.5565557,0.3348719946265133,-0.9064364579345201,0.16384578286226414,"[ 2.73974378e-05 -3.30370557e-06  0.00000000e+00  0.00000000e+00
  0.00000000e+00 -3.50366456e-06 -3.30370557e-06  1.94807043e-05
  0.00000000e+00  0.00000000e+00  0.00000000e+00  3.70514630e-06
  0.00000000e+00  0.00000000e+00  0.00000000e+00  0.00000000e+00
  0.00000000e+00  0.00000000e+00  0.00000000e+00  0.00000000e+00
  0.00000000e+00  0.00000000e+00  0.00000000e+00  0.00000000e+00
  0.00000000e+00  0.00000000e+00  0.00000000e+00  0.00000000e+00
  0.00000000e+00  0.00000000e+00 -3.50366456e-06  3.70514630e-06
  0.00000000e+00  0.00000000e+00  0.00000000e+00  4.52664413e-06]","[[-0.00068987  0.00586301]
 [ 0.00013616 -0.01148194]]",[],0.0,0.0
1787214831.6062922,0.3348719946265133,-0.9064364579345201,0.16384578286226414,"[ 2.73974378e-05 -3.30370557e-06  0.00000000e+00  0.00000000e+00
  0.00000000e+00 -3.50366456e-06 -3.30370557e-06  1.94807043e-05
  0.00000000e+00  0.00000000e+00  0.00000000e+00  3.70514630e-06
  0.00000000e+00  0.00000000e+00  0.00000000e+00  0.00000000e+00
  0.00000000e+00  0.00000000e+00  0.00000000e+00  0.00000000e+00
  0.00000000e+00  0.00000000e+00  0.00000000e+00  0.00000000e+00
  0.00000000e+00  0.00000000e+00  0.00000000e+00  0.00000000e+00
  0.00000000e+00  0.00000000e+00 -3.50366456e-06  3.70514630e-06
  0.00000000e+00  0.00000000e+00  0.00000000e+00  4.52664413e-06]","[[-0.00068987  0.00586301]
 [ 0.00013616 -0.01148194]]",[],0.0,0.0
1787214831.6566763,0.3348719946265133,-0.9064364579345201,0.16384578286226414,"[ 2.73974378e-05 -3.30370557e-06  0.00000000e+00  0.00000000e+00
  0.00000000e+00 -3.50366456e-06 -3.30370557e-06  1.94807043e-05
  0.00000000e+00  0.00000000e+00  0.00000000e+00  3.70514630e-06
  0.00000000e+00  0.00000000e+00  0.00000000e+00  0.00000000e+00
  0.00000000e+00  0.00000000e+00  0.00000000e+00  0.00000000e+00
  0.00000000e+00  0.00000000e+00  0.00000000e+00  0.00000000e+00
  0.00000000e+00  0.00000000e+00  0.00000000e+00  0.00000000e+00
  0.00000000e+00  0.00000000e+00 -3.50366456e-06  3.70514630e-06
  0.00000000e+00  0.00000000e+00  0.00000000e+00  4.52664413e-06]","[[-0.00068987  0.00586301]
 [ 0.00013616 -0.01148194]]",[],0.0,0.0
1787214831.706118,0.3348719946265133,-0.9064364579345201,0.16384578286226414,"[ 2.73974378e-05 -3.30370557e-06  0.00000000e+00  0.00000000e+00
  0.00000000e+00 -3.50366456e-06 -3.30370557e-06  1.94807043e-05
  0.00000000e+00  0.00000000e+00  0.00000000e+00  3.70514630e-06
  0.00000000e+00  0.00000000e+00  0.00000000e+00  0.00000000e+00
  0.00000000e+00  0.00000000e+00  0.00000000e+00  0.00000000e+00
  0.00000000e+00  0.00000000e+00  0.00000000e+00  0.00000000e+00
  0.00000000e+00  0.00000000e+00  0.00000000e+00  0.00000000e+00
  0.00000000e+00  0.00000000e+00 -3.50366456e-06  3.70514630e-06
  0.00000000e+00  0.00000000e+00  0.00000000e+00  4.52664413e-06]","[[-0.00068987  0.00586301]
 [ 0.00013616 -0.01148194]]",[],0.0,0.0
1787214831.7666447,0.3348719946265133,-0.9064364579345201,0.16384578286226414,"[ 2.73974378e-05 -3.30370557e-06  0.00000000e+00  0.00000000e+00
  0.00000000e+00 -3.50366456e-06 -3.30370557e-06  1.94807043e-05
  0.00000000e+00  0.00000000e+00  0.00000000e+00  3.70514630e-06
  0.00000000e+00  0.00000000e+00  0.00000000e+00  0.00000000e+00
  0.00000000e+00  0.00000000e+00  0.00000000e+00  0.00000000e+00
  0.00000000e+00  0.00000000e+00  0.00000000e+00  0.00000000e+00
  0.00000000e+00  0.00000000e+00  0.00000000e+00  0.00000000e+00
  0.00000000e+00  0.00000000e+00 -3.50366456e-06  3.70514630e-06
  0.00000000e+00  0.00000000e+00  0.00000000e+00  4.52664413e-06]","[[-0.00068987  0.00586301]
 [ 0.00013616 -0.01148194]]",[],0.0,0.0
1787214831.806146,0.3348719946265133,-0.9064364579345201,0.16384578286226414,"[ 2.73974378e-05 -3.30370557e-06  0.00000000e+00  0.00000000e+00
  0.00000000e+00 -3.50366456e-06 -3.30370557e-06  1.94807043e-05
  0.00000000e+00  0.00000000e+00  0.00000000e+00  3.70514630e-06
  0.00000000e+00  0.00000000e+00  0.00000000e+00  0.00000000e+00
  0.00000000e+00  0.00000000e+00  0.00000000e+00  0.00000000e+00
  0.00000000e+00  0.00000000e+00  0.00000000e+00  0.00000000e+00
  0.00000000e+00  0.00000000e+00  0.00000000e+00  0.00000000e+00
  0.00000000e+00  0.00000000e+00 -3.50366456e-06  3.70514630e-06
  0.00000000e+00  0.00000000e+00  0.00000000e+00  4.52664413e-06]","[[-0.00068987  0.00586301]
 [ 0.00013616 -0.01148194]]",[],0.0,0.0
1787214831.8563676,0.3348719946265133,-0.9064364579345201,0.16384578286226414,"[ 2.73974378e-05 -3.30370557e-06  0.00000000e+00  0.00000000e+00
  0.00000000e+00 -3.50366456e-06 -3.30370557e-06  1.94807043e-05
  0.00000000e+00  0.00000000e+00  0.00000000e+00  3.70514630e-06
  0.00000000e+00  0.00000000e+00  0.00000000e+00  0.00000000e+00
  0.00000000e+00  0.00000000e+00  0.00000000e+00  0.00000000e+00
  0.00000000e+00  0.00000000e+00  0.00000000e+00  0.00000000e+00
  0.00000000e+00  0.00000000e+00  0.00000000e+00  0.00000000e+00
  0.00000000e+00  0.00000000e+00 -3.50366456e-06  3.70514630e-06
  0.00000000e+00  0.00000000e+00  0.00000000e+00  4.52664413e-06]","[[-0.00068987  0.00586301]
 [ 0.00013616 -0.01148194]]",[],0.0,0.0
1787214831.90776,0.3348719946265133,-0.9064364579345201,0.16384578286226414,"[ 2.73974378e-05 -3.30370557e-06  0.00000000e+00  0.00000000e+00
  0.00000000e+00 -3.50366456e-06 -3.30370557e-06  1.94807043e-05
  0.00000000e+00  0.00000000e+00  0.00000000e+00  3.70514630e-06
  0.00000000e+00  0.00000000e+00  0.00000000e+00  0.00000000e+00
  0.00000000e+00  0.00000000e+00  0.00000000e+00  0.00000000e+00
  0.00000000e+00  0.00000000e+00  0.00000000e+00  0.00000000e+00
  0.00000000e+00  0.00000000e+00  0.00000000e+00  0.00000000e+00
  0.00000000e+00  0.00000000e+00 -3.50366456e-06  3.70514630e-06
  0.00000000e+00  0.00000000e+00  0.00000000e+00  4.52664413e-06]","[[-0.00068987  0.00586301]
 [ 0.00013616 -0.01148194]]",[],0.0,0.0
1787214831.9558303,0.3047942106985236,-0.9045264963983307,0.16338140716623384,"[ 1.41235192e-05 -8.23124645e-07  0.00000000e+00  0.00000000e+00
  0.00000000e+00 -1.31872255e-06 -8.23124645e-07  9.40714232e-06
  0.00000000e+00  0.00000000e+00  0.00000000e+00  1.55654728e-06
  0.00000000e+00  0.00000000e+00  0.00000000e+00  0.00000000e+00
  0.00000000e+00  0.00000000e+00  0.00000000e+00  0.00000000e+00
  0.00000000e+00  0.00000000e+00  0.00000000e+00  0.00000000e+00
  0.00000000e+00  0.00000000e+00  0.00000000e+00  0.00000000e+00
  0.00000000e+00  0.00000000e+00 -1.31872255e-06  1.55654728e-06
  0.00000000e+00  0.00000000e+00  0.00000000e+00  2.93702212e-06]","[[-3.46514722e-04  3.31396340e-03]
 [-1.32698657e-05 -6.34225448e-03]]",[],0.0,0.0
1787214832.0061455,0.3047942106985236,-0.9045264963983307,0.16338140716623384,"[ 1.41235192e-05 -8.23124645e-07  0.00000000e+00  0.00000000e+00
  0.00000000e+00 -1.31872255e-06 -8.23124645e-07  9.40714232e-06
  0.00000000e+00  0.00000000e+00  0.00000000e+00  1.55654728e-06
  0.00000000e+00  0.00000000e+00  0.00000000e+00  0.00000000e+00
  0.00000000e+00  0.00000000e+00  0.00000000e+00  0.00000000e+00
  0.00000000e+00  0.00000000e+00  0.00000000e+00  0.00000000e+00
  0.00000000e+00  0.00000000e+00  0.00000000e+00  0.00000000e+00
  0.00000000e+00  0.00000000e+00 -1.31872255e-06  1.55654728e-06
  0.00000000e+00  0.00000000e+00  0.00000000e+00  2.93702212e-06]","[[-3.46514722e-04  3.31396340e-03]
 [-1.32698657e-05 -6.34225448e-03]]",[],0.0,0.0
1787214832.0561318,0.3047942106985236,-0.9045264963983307,0.16338140716623384,"[ 1.41235192e-05 -8.23124645e-07  0.00000000e+00  0.00000000e+00
  0.00000000e+00 -1.31872255e-06 -8.23124645e-07  9.40714232e-06
  0.00000000e+00  0.00000000e+00  0.00000000e+00  1.55654728e-06
  0.00000000e+00  0.00000000e+00  0.00000000e+00  0.00000000e+00
  0.00000000e+00  0.00000000e+00  0.00000000e+00  0.00000000e+00
  0.00000000e+00  0.00000000e+00  0.00000000e+00  0.00000000e+00
  0.00000000e+00  0.00000000e+00  0.00000000e+00  0.00000000e+00
  0.00000000e+00  0.00000000e+00 -1.31872255e-06  1.55654728e-06
  0.00000000e+00  0.00000000e+00  0.00000000e+00  2.93702212e-06]","[[-3.46514722e-04  3.31396340e-03]
 [-1.32698657e-05 -6.34225448e-03]]",[],0.0,0.0
1787214832.1063807,0.3047942106985236,-0.9045264963983307,0.16338140716623384,"[ 1.41235192e-05 -8.23124645e-07  0.00000000e+00  0.00000000e+00
  0.00000000e+00 -1.31872255e-06 -8.23124645e-07  9.40714232e-06
  0.00000000e+00  0.00000000e+00  0.00000000e+00  1.55654728e-06
  0.00000000e+00  0.00000000e+00  0.00000000e+00  0.00000000e+00
  0.00000000e+00  0.00000000e+00  0.00000000e+00  0.00000000e+00
  0.00000000e+00  0.00000000e+00  0.00000000e+00  0.00000000e+00
  0.00000000e+00  0.00000000e+00  0.00000000e+00  0.00000000e+00
  0.00000000e+00  0.00000000e+00 -1.31872255e-06  1.55654728e-06
  0.00000000e+00  0.00000000e+00  0.00000000e+00  2.93702212e-06]","[[-3.46514722e-04  3.31396340e-03]
 [-1.32698657e-05 -6.34225448e-03]]",[],0.0,0.0
1787214832.1565855,0.3047942106985236,-0.9045264963983307,0.16338140716623384,"[ 1.41235192e-05 -8.23124645e-07  0.00000000e+00  0.00000000e+00
  0.00000000e+00 -1.31872255e-06 -8.23124645e-07  9.40714232e-06
  0.00000000e+00  0.00000000e+00  0.00000000e+00  1.55654728e-06
  0.00000000e+00  0.00000000e+00  0.00000000e+00  0.00000000e+00
  0.00000000e+00  0.00000000e+00  0.00000000e+00  0.00000000e+00
  0.00000000e+00  0.00000000e+00  0.00000000e+00  0.00000000e+00
  0.00000000e+00  0.00000000e+00  0.00000000e+00  0.00000000e+00
  0.00000000e+00  0.00000000e+00 -1.31872255e-06  1.55654728e-06
  0.00000000e+00  0.00000000e+00  0.00000000e+00  2.93702212e-06]","[[-3.46514722e-04  3.31396340e-03]
 [-1.32698657e-05 -6.34225448e-03]]",[],0.0,0.0
1787214832.2096217,0.3047942106985236,-0.9045264963983307,0.16338140716623384,"[ 1.41235192e-05 -8.23124645e-07  0.00000000e+00  0.00000000e+00
  0.00000000e+00 -1.31872255e-06 -8.23124645e-07  9.40714232e-06
  0.00000000e+00  0.00000000e+00  0.00000000e+00  1.55654728e-06
  0.00000000e+00  0.00000000e+00  0.00000000e+00  0.00000000e+00
  0.00000000e+00  0.00000000e+00  0.00000000e+00  0.00000000e+00
  0.00000000e+00  0.00000000e+00  0.00000000e+00  0.00000000e+00
  0.00000000e+00  0.00000000e+00  0.00000000e+00  0.00000000e+00
  0.00000000e+00  0.00000000e+00 -1.31872255e-06  1.55654728e-06
  0.00000000e+00  0.00000000e+00  0.00000000e+00  2.93702212e-06]","[[-3.46514722e-04  3.31396340e-03]
 [-1.32698657e-05 -6.34225448e-03]]",[],0.0,0.0
1787214832.2613628,0.3047942106985236,-0.9045264963983307,0.16338140716623384,"[ 1.41235192e-05 -8.23124645e-07  0.00000000e+00  0.00000000e+00
  0.00000000e+00 -1.31872255e-06 -8.23124645e-07  9.40714232e-06
  0.00000000e+00  0.00000000e+00  0.00000000e+00  1.55654728e-06
  0.00000000e+00  0.00000000e+00  0.00000000e+00  0.00000000e+00
  0.00000000e+00  0.00000000e+00  0.00000000e+00  0.00000000e+00
  0.00000000e+00  0.00000000e+00  0.00000000e+00  0.00000000e+00
  0.00000000e+00  0.00000000e+00  0.00000000e+00  0.00000000e+00
  0.00000000e+00  0.00000000e+00 -1.31872255e-06  1.55654728e-06
  0.00000000e+00  0.00000000e+00  0.00000000e+00  2.93702212e-06]","[[-3.46514722e-04  3.31396340e-03]
 [-1.32698657e-05 -6.34225448e-03]]",[],0.0,0.0
1787214832.3091688,0.3047942106985236,-0.9045264963983307,0.16338140716623384,"[ 1.41235192e-05 -8.23124645e-07  0.00000000e+00  0.00000000e+00
  0.00000000e+00 -1.31872255e-06 -8.23124645e-07  9.40714232e-06
  0.00000000e+00  0.00000000e+00  0.00000000e+00  1.55654728e-06
  0.00000000e+00  0.00000000e+00  0.00000000e+00  0.00000000e+00
  0.00000000e+00  0.00000000e+00  0.00000000e+00  0.00000000e+00
  0.00000000e+00  0.00000000e+00  0.00000000e+00  0.00000000e+00
  0.00000000e+00  0.00000000e+00  0.00000000e+00  0.00000000e+00
  0.00000000e+00  0.00000000e+00 -1.31872255e-06  1.55654728e-06
  0.00000000e+00  0.00000000e+00  0.00000000e+00  2.93702212e-06]","[[-3.46514722e-04  3.31396340e-03]
 [-1.32698657e-05 -6.34225448e-03]]",[],0.0,0.0
1787214832.3567865,0.3047942106985236,-0.9045264963983307,0.16338140716623384,"[ 1.41235192e-05 -8.23124645e-07  0.00000000e+00  0.00000000e+00
  0.00000000e+00 -1.31872255e-06 -8.23124645e-07  9.40714232e-06
  0.00000000e+00  0.00000000e+00  0.00000000e+00  1.55654728e-06
  0.00000000e+00  0.00000000e+00  0.00000000e+00  0.00000000e+00
  0.00000000e+00  0.00000000e+00  0.00000000e+00  0.00000000e+00
  0.00000000e+00  0.00000000e+00  0.00000000e+00  0.00000000e+00
  0.00000000e+00  0.00000000e+00  0.00000000e+00  0.00000000e+00
  0.00000000e+00  0.00000000e+00 -1.31872255e-06  1.55654728e-06
  0.00000000e+00  0.00000000e+00  0.00000000e+00  2.93702212e-06]","[[-3.46514722e-04  3.31396340e-03]
 [-1.32698657e-05 -6.34225448e-03]]",[],0.0,0.0
1787214832.412469,0.3047942106985236,-0.9045264963983307,0.16338140716623384,"[ 1.41235192e-05 -8.23124645e-07  0.00000000e+00  0.00000000e+00
  0.00000000e+00 -1.31872255e-06 -8.23124645e-07  9.40714232e-06
  0.00000000e+00  0.00000000e+00  0.00000000e+00  1.55654728e-06
  0.00000000e+00  0.00000000e+00  0.00000000e+00  0.00000000e+00
  0.00000000e+00  0.00000000e+00  0.00000000e+00  0.00000000e+00
  0.00000000e+00  0.00000000e+00  0.00000000e+00  0.00000000e+00
  0.00000000e+00  0.00000000e+00  0.00000000e+00  0.00000000e+00
  0.00000000e+00  0.00000000e+00 -1.31872255e-06  1.55654728e-06
  0.00000000e+00  0.00000000e+00  0.00000000e+00  2.93702212e-06]","[[-3.46514722e-04  3.31396340e-03]
 [-1.32698657e-05 -6.34225448e-03]]",[],0.0,0.0
1787214832.4589982,0.28080035317274243,-0.9041853182755931,0.15525853054988262,"[ 9.49006839e-06 -3.93976316e-07  0.00000000e+00  0.00000000e+00
  0.00000000e+00 -8.56324074e-07 -3.93976316e-07  6.15972376e-06
  0.00000000e+00  0.00000000e+00  0.00000000e+00  9.91974258e-07
  0.00000000e+00  0.00000000e+00  0.00000000e+00  0.00000000e+00
  0.00000000e+00  0.00000000e+00  0.00000000e+00  0.00000000e+00
  0.00000000e+00  0.00000000e+00  0.00000000e+00  0.00000000e+00
  0.00000000e+00  0.00000000e+00  0.00000000e+00  0.00000000e+00
  0.00000000e+00  0.00000000e+00 -8.56324074e-07  9.91974258e-07
  0.00000000e+00  0.00000000e+00  0.00000000e+00  2.70670547e-06]","[[-2.36567565e-04  1.65847221e-03]
 [ 2.90536694e-06 -3.46091219e-03]]",[],0.0,0.0
1787214832.506631,0.28080035317274243,-0.9041853182755931,0.15525853054988262,"[ 9.49006839e-06 -3.93976316e-07  0.00000000e+00  0.00000000e+00
  0.00000000e+00 -8.56324074e-07 -3.93976316e-07  6.15972376e-06
  0.00000000e+00  0.00000000e+00  0.00000000e+00  9.91974258e-07
  0.00000000e+00  0.00000000e+00  0.00000000e+00  0.00000000e+00
  0.00000000e+00  0.00000000e+00  0.00000000e+00  0.00000000e+00
  0.00000000e+00  0.00000000e+00  0.00000000e+00  0.00000000e+00
  0.00000000e+00  0.00000000e+00  0.00000000e+00  0.00000000e+00
  0.00000000e+00  0.00000000e+00 -8.56324074e-07  9.91974258e-07
  0.00000000e+00  0.00000000e+00  0.00000000e+00  2.70670547e-06]","[[-2.36567565e-04  1.65847221e-03]
 [ 2.90536694e-06 -3.46091219e-03]]",[],0.0,0.0
1787214832.5576801,0.28080035317274243,-0.9041853182755931,0.15525853054988262,"[ 9.49006839e-06 -3.93976316e-07  0.00000000e+00  0.00000000e+00
  0.00000000e+00 -8.56324074e-07 -3.93976316e-07  6.15972376e-06
  0.00000000e+00  0.00000000e+00  0.00000000e+00  9.91974258e-07
  0.00000000e+00  0.00000000e+00  0.00000000e+00  0.00000000e+00
  0.00000000e+00  0.00000000e+00  0.00000000e+00  0.00000000e+00
  0.00000000e+00  0.00000000e+00  0.00000000e+00  0.00000000e+00
  0.00000000e+00  0.00000000e+00  0.00000000e+00  0.00000000e+00
  0.00000000e+00  0.00000000e+00 -8.56324074e-07  9.91974258e-07
  0.00000000e+00  0.00000000e+00  0.00000000e+00  2.70670547e-06]","[[-2.36567565e-04  1.65847221e-03]
 [ 2.90536694e-06 -3.46091219e-03]]",[],0.0,0.0
1787214832.6061232,0.28080035317274243,-0.9041853182755931,0.15525853054988262,"[ 9.49006839e-06 -3.93976316e-07  0.00000000e+00  0.00000000e+00
  0.00000000e+00 -8.56324074e-07 -3.93976316e-07  6.15972376e-06
  0.00000000e+00  0.00000000e+00  0.00000000e+00  9.91974258e-07
  0.00000000e+00  0.00000000e+00  0.00000000e+00  0.00000000e+00
  0.00000000e+00  0.00000000e+00  0.00000000e+00  0.00000000e+00
  0.00000000e+00  0.00000000e+00  0.00000000e+00  0.00000000e+00
  0.00000000e+00  0.00000000e+00  0.00000000e+00  0.00000000e+00
  0.00000000e+00  0.00000000e+00 -8.56324074e-07  9.91974258e-07
  0.00000000e+00  0.00000000e+00  0.00000000e+00  2.70670547e-06]","[[-2.36567565e-04  1.65847221e-03]
 [ 2.90536694e-06 -3.46091219e-03]]",[],0.0,0.0
1787214832.655957,0.28080035317274243,-0.9041853182755931,0.15525853054988262,"[ 9.49006839e-06 -3.93976316e-07  0.00000000e+00  0.00000000e+00
  0.00000000e+00 -8.56324074e-07 -3.93976316e-07  6.15972376e-06
  0.00000000e+00  0.00000000e+00  0.00000000e+00  9.91974258e-07
  0.00000000e+00  0.00000000e+00  0.00000000e+00  0.00000000e+00
  0.00000000e+00  0.00000000e+00  0.00000000e+00  0.00000000e+00
  0.00000000e+00  0.00000000e+00  0.00000000e+00  0.00000000e+00
  0.00000000e+00  0.00000000e+00  0.00000000e+00  0.00000000e+00
  0.00000000e+00  0.00000000e+00 -8.56324074e-07  9.91974258e-07
  0.00000000e+00  0.00000000e+00  0.00000000e+00  2.70670547e-06]","[[-2.36567565e-04  1.65847221e-03]
 [ 2.90536694e-06 -3.46091219e-03]]",[],0.0,0.0
1787214832.7184396,0.28080035317274243,-0.9041853182755931,0.15525853054988262,"[ 9.49006839e-06 -3.93976316e-07  0.00000000e+00  0.00000000e+00
  0.00000000e+00 -8.56324074e-07 -3.93976316e-07  6.15972376e-06
  0.00000000e+00  0.00000000e+00  0.00000000e+00  9.91974258e-07
  0.00000000e+00  0.00000000e+00  0.00000000e+00  0.00000000e+00
  0.00000000e+00  0.00000000e+00  0.00000000e+00  0.00000000e+00
  0.00000000e+00  0.00000000e+00  0.00000000e+00  0.00000000e+00
  0.00000000e+00  0.00000000e+00  0.00000000e+00  0.00000000e+00
  0.00000000e+00  0.00000000e+00 -8.56324074e-07  9.91974258e-07
  0.00000000e+00  0.00000000e+00  0.00000000e+00  2.70670547e-06]","[[-2.36567565e-04  1.65847221e-03]
 [ 2.90536694e-06 -3.46091219e-03]]",[],0.0,0.0
1787214832.7560706,0.28080035317274243,-0.9041853182755931,0.15525853054988262,"[ 9.49006839e-06 -3.93976316e-07  0.00000000e+00  0.00000000e+00
  0.00000000e+00 -8.56324074e-07 -3.93976316e-07  6.15972376e-06
  0.00000000e+00  0.00000000e+00  0.00000000e+00  9.91974258e-07
  0.00000000e+00  0.00000000e+00  0.00000000e+00  0.00000000e+00
  0.00000000e+00  0.00000000e+00  0.00000000e+00  0.00000000e+00
  0.00000000e+00  0.00000000e+00  0.00000000e+00  0.00000000e+00
  0.00000000e+00  0.00000000e+00  0.00000000e+00  0.00000000e+00
  0.00000000e+00  0.00000000e+00 -8.56324074e-07  9.91974258e-07
  0.00000000e+00  0.00000000e+00  0.00000000e+00  2.70670547e-06]","[[-2.36567565e-04  1.65847221e-03]
 [ 2.90536694e-06 -3.46091219e-03]]",[],0.0,0.0
1787214832.8082786,0.28080035317274243,-0.9041853182755931,0.15525853054988262,"[ 9.49006839e-06 -3.93976316e-07  0.00000000e+00  0.00000000e+00
  0.00000000e+00 -8.56324074e-07 -3.93976316e-07  6.15972376e-06
  0.00000000e+00  0.00000000e+00  0.00000000e+00  9.91974258e-07
  0.00000000e+00  0.00000000e+00  0.00000000e+00  0.00000000e+00
  0.00000000e+00  0.00000000e+00  0.00000000e+00  0.00000000e+00
  0.00000000e+00  0.00000000e+00  0.00000000e+00  0.00000000e+00
  0.00000000e+00  0.00000000e+00  0.00000000e+00  0.00000000e+00
  0.00000000e+00  0.00000000e+00 -8.56324074e-07  9.91974258e-07
  0.00000000e+00  0.00000000e+00  0.00000000e+00  2.70670547e-06]","[[-2.36567565e-04  1.65847221e-03]
 [ 2.90536694e-06 -3.46091219e-03]]",[],0.0,0.0
1787214832.8596027,0.28080035317274243,-0.9041853182755931,0.15525853054988262,"[ 9.49006839e-06 -3.93976316e-07  0.00000000e+00  0.00000000e+00
  0.00000000e+00 -8.56324074e-07 -3.93976316e-07  6.15972376e-06
  0.00000000e+00  0.00000000e+00  0.00000000e+00  9.91974258e-07
  0.00000000e+00  0.00000000e+00  0.00000000e+00  0.00000000e+00
  0.00000000e+00  0.00000000e+00  0.00000000e+00  0.00000000e+00
  0.00000000e+00  0.00000000e+00  0.00000000e+00  0.00000000e+00
  0.00000000e+00  0.00000000e+00  0.00000000e+00  0.00000000e+00
  0.00000000e+00  0.00000000e+00 -8.56324074e-07  9.91974258e-07
  0.00000000e+00  0.00000000e+00  0.00000000e+00  2.70670547e-06]","[[-2.36567565e-04  1.65847221e-03]
 [ 2.90536694e-06 -3.46091219e-03]]",[],0.0,0.0
1787214832.9110088,0.28080035317274243,-0.9041853182755931,0.15525853054988262,"[ 9.49006839e-06 -3.93976316e-07  0.00000000e+00  0.00000000e+00
  0.00000000e+00 -8.56324074e-07 -3.93976316e-07  6.15972376e-06
  0.00000000e+00  0.00000000e+00  0.00000000e+00  9.91974258e-07
  0.00000000e+00  0.00000000e+00  0.00000000e+00  0.00000000e+00
  0.00000000e+00  0.00000000e+00  0.00000000e+00  0.00000000e+00
  0.00000000e+00  0.00000000e+00  0.00000000e+00  0.00000000e+00
  0.00000000e+00  0.00000000e+00  0.00000000e+00  0.00000000e+00
  0.00000000e+00  0.00000000e+00 -8.56324074e-07  9.91974258e-07
  0.00000000e+00  0.00000000e+00  0.00000000e+00  2.70670547e-06]","[[-2.36567565e-04  1.65847221e-03]
 [ 2.90536694e-06 -3.46091219e-03]]",[],0.0,0.0
1787214832.9611967,0.2641780887281501,-0.9050738700064959,0.15139957896321657,"[ 7.15046042e-06 -2.67198203e-07  0.00000000e+00  0.00000000e+00
  0.00000000e+00 -6.87895258e-07 -2.67198203e-07  4.55117883e-06
  0.00000000e+00  0.00000000e+00  0.00000000e+00  6.75761973e-07
  0.00000000e+00  0.00000000e+00  0.00000000e+00  0.00000000e+00
  0.00000000e+00  0.00000000e+00  0.00000000e+00  0.00000000e+00
  0.00000000e+00  0.00000000e+00  0.00000000e+00  0.00000000e+00
  0.00000000e+00  0.00000000e+00  0.00000000e+00  0.00000000e+00
  0.00000000e+00  0.00000000e+00 -6.87895258e-07  6.75761973e-07
  0.00000000e+00  0.00000000e+00  0.00000000e+00  2.58741872e-06]","[[-1.75853613e-04  1.81190554e-03]
 [-1.00627734e-05 -3.45111874e-03]]",[],0.0,0.0
1787214833.0126476,0.2641780887281501,-0.9050738700064959,0.15139957896321657,"[ 7.15046042e-06 -2.67198203e-07  0.00000000e+00  0.00000000e+00
  0.00000000e+00 -6.87895258e-07 -2.67198203e-07  4.55117883e-06
  0.00000000e+00  0.00000000e+00  0.00000000e+00  6.75761973e-07
  0.00000000e+00  0.00000000e+00  0.00000000e+00  0.00000000e+00
  0.00000000e+00  0.00000000e+00  0.00000000e+00  0.00000000e+00
  0.00000000e+00  0.00000000e+00  0.00000000e+00  0.00000000e+00
  0.00000000e+00  0.00000000e+00  0.00000000e+00  0.00000000e+00
  0.00000000e+00  0.00000000e+00 -6.87895258e-07  6.75761973e-07
  0.00000000e+00  0.00000000e+00  0.00000000e+00  2.58741872e-06]","[[-1.75853613e-04  1.81190554e-03]
 [-1.00627734e-05 -3.45111874e-03]]",[],0.0,0.0
1787214833.057512,0.2641780887281501,-0.9050738700064959,0.15139957896321657,"[ 7.15046042e-06 -2.67198203e-07  0.00000000e+00  0.00000000e+00
  0.00000000e+00 -6.87895258e-07 -2.67198203e-07  4.55117883e-06
  0.00000000e+00  0.00000000e+00  0.00000000e+00  6.75761973e-07
  0.00000000e+00  0.00000000e+00  0.00000000e+00  0.00000000e+00
  0.00000000e+00  0.00000000e+00  0.00000000e+00  0.00000000e+00
  0.00000000e+00  0.00000000e+00  0.00000000e+00  0.00000000e+00
  0.00000000e+00  0.00000000e+00  0.00000000e+00  0.00000000e+00
  0.00000000e+00  0.00000000e+00 -6.87895258e-07  6.75761973e-07
  0.00000000e+00  0.00000000e+00  0.00000000e+00  2.58741872e-06]","[[-1.75853613e-04  1.81190554e-03]
 [-1.00627734e-05 -3.45111874e-03]]",[],0.0,0.0
1787214833.1073494,0.2641780887281501,-0.9050738700064959,0.15139957896321657,"[ 7.15046042e-06 -2.67198203e-07  0.00000000e+00  0.00000000e+00
  0.00000000e+00 -6.87895258e-07 -2.67198203e-07  4.55117883e-06
  0.00000000e+00  0.00000000e+00  0.00000000e+00  6.75761973e-07
  0.00000000e+00  0.00000000e+00  0.00000000e+00  0.00000000e+00
  0.00000000e+00  0.00000000e+00  0.00000000e+00  0.00000000e+00
  0.00000000e+00  0.00000000e+00  0.00000000e+00  0.00000000e+00
  0.00000000e+00  0.00000000e+00  0.00000000e+00  0.00000000e+00
  0.00000000e+00  0.00000000e+00 -6.87895258e-07  6.75761973e-07
  0.00000000e+00  0.00000000e+00  0.00000000e+00  2.58741872e-06]","[[-1.75853613e-04  1.81190554e-03]
 [-1.00627734e-05 -3.45111874e-03]]",[],0.0,0.0
1787214833.1585271,0.2641780887281501,-0.9050738700064959,0.15139957896321657,"[ 7.15046042e-06 -2.67198203e-07  0.00000000e+00  0.00000000e+00
  0.00000000e+00 -6.87895258e-07 -2.67198203e-07  4.55117883e-06
  0.00000000e+00  0.00000000e+00  0.00000000e+00  6.75761973e-07
  0.00000000e+00  0.00000000e+00  0.00000000e+00  0.00000000e+00
  0.00000000e+00  0.00000000e+00  0.00000000e+00  0.00000000e+00
  0.00000000e+00  0.00000000e+00  0.00000000e+00  0.00000000e+00
  0.00000000e+00  0.00000000e+00  0.00000000e+00  0.00000000e+00
  0.00000000e+00  0.00000000e+00 -6.87895258e-07  6.75761973e-07
  0.00000000e+00  0.00000000e+00  0.00000000e+00  2.58741872e-06]","[[-1.75853613e-04  1.81190554e-03]
 [-1.00627734e-05 -3.45111874e-03]]",[],0.0,0.0
1787214833.2251904,0.2641780887281501,-0.9050738700064959,0.15139957896321657,"[ 7.15046042e-06 -2.67198203e-07  0.00000000e+00  0.00000000e+00
  0.00000000e+00 -6.87895258e-07 -2.67198203e-07  4.55117883e-06
  0.00000000e+00  0.00000000e+00  0.00000000e+00  6.75761973e-07
  0.00000000e+00  0.00000000e+00  0.00000000e+00  0.00000000e+00
  0.00000000e+00  0.00000000e+00  0.00000000e+00  0.00000000e+00
  0.00000000e+00  0.00000000e+00  0.00000000e+00  0.00000000e+00
  0.00000000e+00  0.00000000e+00  0.00000000e+00  0.00000000e+00
  0.00000000e+00  0.00000000e+00 -6.87895258e-07  6.75761973e-07
  0.00000000e+00  0.00000000e+00  0.00000000e+00  2.58741872e-06]","[[-1.75853613e-04  1.81190554e-03]
 [-1.00627734e-05 -3.45111874e-03]]",[],0.0,0.0
1787214833.2560427,0.2641780887281501,-0.9050738700064959,0.15139957896321657,"[ 7.15046042e-06 -2.67198203e-07  0.00000000e+00  0.00000000e+00
  0.00000000e+00 -6.87895258e-07 -2.67198203e-07  4.55117883e-06
  0.00000000e+00  0.00000000e+00  0.00000000e+00  6.75761973e-07
  0.00000000e+00  0.00000000e+00  0.00000000e+00  0.00000000e+00
  0.00000000e+00  0.00000000e+00  0.00000000e+00  0.00000000e+00
  0.00000000e+00  0.00000000e+00  0.00000000e+00  0.00000000e+00
  0.00000000e+00  0.00000000e+00  0.00000000e+00  0.00000000e+00
  0.00000000e+00  0.00000000e+00 -6.87895258e-07  6.75761973e-07
  0.00000000e+00  0.00000000e+00  0.00000000e+00  2.58741872e-06]","[[-1.75853613e-04  1.81190554e-03]
 [-1.00627734e-05 -3.45111874e-03]]",[],0.0,0.0
1787214833.3074908,0.2641780887281501,-0.9050738700064959,0.15139957896321657,"[ 7.15046042e-06 -2.67198203e-07  0.00000000e+00  0.00000000e+00
  0.00000000e+00 -6.87895258e-07 -2.67198203e-07  4.55117883e-06
  0.00000000e+00  0.00000000e+00  0.00000000e+00  6.75761973e-07
  0.00000000e+00  0.00000000e+00  0.00000000e+00  0.00000000e+00
  0.00000000e+00  0.00000000e+00  0.00000000e+00  0.00000000e+00
  0.00000000e+00  0.00000000e+00  0.00000000e+00  0.00000000e+00
  0.00000000e+00  0.00000000e+00  0.00000000e+00  0.00000000e+00
  0.00000000e+00  0.00000000e+00 -6.87895258e-07  6.75761973e-07
  0.00000000e+00  0.00000000e+00  0.00000000e+00  2.58741872e-06]","[[-1.75853613e-04  1.81190554e-03]
 [-1.00627734e-05 -3.45111874e-03]]",[],0.0,0.0
1787214833.3562233,0.2641780887281501,-0.9050738700064959,0.15139957896321657,"[ 7.15046042e-06 -2.67198203e-07  0.00000000e+00  0.00000000e+00
  0.00000000e+00 -6.87895258e-07 -2.67198203e-07  4.55117883e-06
  0.00000000e+00  0.00000000e+00  0.00000000e+00  6.75761973e-07
  0.00000000e+00  0.00000000e+00  0.00000000e+00  0.00000000e+00
  0.00000000e+00  0.00000000e+00  0.00000000e+00  0.00000000e+00
  0.00000000e+00  0.00000000e+00  0.00000000e+00  0.00000000e+00
  0.00000000e+00  0.00000000e+00  0.00000000e+00  0.00000000e+00
  0.00000000e+00  0.00000000e+00 -6.87895258e-07  6.75761973e-07
  0.00000000e+00  0.00000000e+00  0.00000000e+00  2.58741872e-06]","[[-1.75853613e-04  1.81190554e-03]
 [-1.00627734e-05 -3.45111874e-03]]",[],0.0,0.0
1787214833.409266,0.2641780887281501,-0.9050738700064959,0.15139957896321657,"[ 7.15046042e-06 -2.67198203e-07  0.00000000e+00  0.00000000e+00
  0.00000000e+00 -6.87895258e-07 -2.67198203e-07  4.55117883e-06
  0.00000000e+00  0.00000000e+00  0.00000000e+00  6.75761973e-07
  0.00000000e+00  0.00000000e+00  0.00000000e+00  0.00000000e+00
  0.00000000e+00  0.00000000e+00  0.00000000e+00  0.00000000e+00
  0.00000000e+00  0.00000000e+00  0.00000000e+00  0.00000000e+00
  0.00000000e+00  0.00000000e+00  0.00000000e+00  0.00000000e+00
  0.00000000e+00  0.00000000e+00 -6.87895258e-07  6.75761973e-07
  0.00000000e+00  0.00000000e+00  0.00000000e+00  2.58741872e-06]","[[-1.75853613e-04  1.81190554e-03]
 [-1.00627734e-05 -3.45111874e-03]]",[],0.0,0.0
1787214833.4564118,0.2475515034767367,-0.9062610386061707,0.13863140857210787,"[ 5.80522402e-06 -1.93014992e-07  0.00000000e+00  0.00000000e+00
  0.00000000e+00 -4.95046513e-07 -1.93014992e-07  3.66175570e-06
  0.00000000e+00  0.00000000e+00  0.00000000e+00  5.66362201e-07
  0.00000000e+00  0.00000000e+00  0.00000000e+00  0.00000000e+00
  0.00000000e+00  0.00000000e+00  0.00000000e+00  0.00000000e+00
  0.00000000e+00  0.00000000e+00  0.00000000e+00  0.00000000e+00
  0.00000000e+00  0.00000000e+00  0.00000000e+00  0.00000000e+00
  0.00000000e+00  0.00000000e+00 -4.95046513e-07  5.66362201e-07
  0.00000000e+00  0.00000000e+00  0.00000000e+00  2.57356535e-06]","[[-1.43277819e-04  1.18976331e-03]
 [-7.09270467e-06 -2.37251287e-03]]",[],0.0,0.0
1787214833.5086436,0.2475515034767367,-0.9062610386061707,0.13863140857210787,"[ 5.80522402e-06 -1.93014992e-07  0.00000000e+00  0.00000000e+00
  0.00000000e+00 -4.95046513e-07 -1.93014992e-07  3.66175570e-06
  0.00000000e+00  0.00000000e+00  0.00000000e+00  5.66362201e-07
  0.00000000e+00  0.00000000e+00  0.00000000e+00  0.00000000e+00
  0.00000000e+00  0.00000000e+00  0.00000000e+00  0.00000000e+00
  0.00000000e+00  0.00000000e+00  0.00000000e+00  0.00000000e+00
  0.00000000e+00  0.00000000e+00  0.00000000e+00  0.00000000e+00
  0.00000000e+00  0.00000000e+00 -4.95046513e-07  5.66362201e-07
  0.00000000e+00  0.00000000e+00  0.00000000e+00  2.57356535e-06]","[[-1.43277819e-04  1.18976331e-03]
 [-7.09270467e-06 -2.37251287e-03]]",[],0.0,0.0
1787214833.5592422,0.2475515034767367,-0.9062610386061707,0.13863140857210787,"[ 5.80522402e-06 -1.93014992e-07  0.00000000e+00  0.00000000e+00
  0.00000000e+00 -4.95046513e-07 -1.93014992e-07  3.66175570e-06
  0.00000000e+00  0.00000000e+00  0.00000000e+00  5.66362201e-07
  0.00000000e+00  0.00000000e+00  0.00000000e+00  0.00000000e+00
  0.00000000e+00  0.00000000e+00  0.00000000e+00  0.00000000e+00
  0.00000000e+00  0.00000000e+00  0.00000000e+00  0.00000000e+00
  0.00000000e+00  0.00000000e+00  0.00000000e+00  0.00000000e+00
  0.00000000e+00  0.00000000e+00 -4.95046513e-07  5.66362201e-07
  0.00000000e+00  0.00000000e+00  0.00000000e+00  2.57356535e-06]","[[-1.43277819e-04  1.18976331e-03]
 [-7.09270467e-06 -2.37251287e-03]]",[],0.0,0.0
1787214833.6272347,0.2475515034767367,-0.9062610386061707,0.13863140857210787,"[ 5.80522402e-06 -1.93014992e-07  0.00000000e+00  0.00000000e+00
  0.00000000e+00 -4.95046513e-07 -1.93014992e-07  3.66175570e-06
  0.00000000e+00  0.00000000e+00  0.00000000e+00  5.66362201e-07
  0.00000000e+00  0.00000000e+00  0.00000000e+00  0.00000000e+00
  0.00000000e+00  0.00000000e+00  0.00000000e+00  0.00000000e+00
  0.00000000e+00  0.00000000e+00  0.00000000e+00  0.00000000e+00
  0.00000000e+00  0.00000000e+00  0.00000000e+00  0.00000000e+00
  0.00000000e+00  0.00000000e+00 -4.95046513e-07  5.66362201e-07
  0.00000000e+00  0.00000000e+00  0.00000000e+00  2.57356535e-06]","[[-1.43277819e-04  1.18976331e-03]
 [-7.09270467e-06 -2.37251287e-03]]",[],0.0,0.0
1787214833.6560757,0.2475515034767367,-0.9062610386061707,0.13863140857210787,"[ 5.80522402e-06 -1.93014992e-07  0.00000000e+00  0.00000000e+00
  0.00000000e+00 -4.95046513e-07 -1.93014992e-07  3.66175570e-06
  0.00000000e+00  0.00000000e+00  0.00000000e+00  5.66362201e-07
  0.00000000e+00  0.00000000e+00  0.00000000e+00  0.00000000e+00
  0.00000000e+00  0.00000000e+00  0.00000000e+00  0.00000000e+00
  0.00000000e+00  0.00000000e+00  0.00000000e+00  0.00000000e+00
  0.00000000e+00  0.00000000e+00  0.00000000e+00  0.00000000e+00
  0.00000000e+00  0.00000000e+00 -4.95046513e-07  5.66362201e-07
  0.00000000e+00  0.00000000e+00  0.00000000e+00  2.57356535e-06]","[[-1.43277819e-04  1.18976331e-03]
 [-7.09270467e-06 -2.37251287e-03]]",[],0.0,0.0
1787214833.7060277,0.2475515034767367,-0.9062610386061707,0.13863140857210787,"[ 5.80522402e-06 -1.93014992e-07  0.00000000e+00  0.00000000e+00
  0.00000000e+00 -4.95046513e-07 -1.93014992e-07  3.66175570e-06
  0.00000000e+00  0.00000000e+00  0.00000000e+00  5.66362201e-07
  0.00000000e+00  0.00000000e+00  0.00000000e+00  0.00000000e+00
  0.00000000e+00  0.00000000e+00  0.00000000e+00  0.00000000e+00
  0.00000000e+00  0.00000000e+00  0.00000000e+00  0.00000000e+00
  0.00000000e+00  0.00000000e+00  0.00000000e+00  0.00000000e+00
  0.00000000e+00  0.00000000e+00 -4.95046513e-07  5.66362201e-07
  0.00000000e+00  0.00000000e+00  0.00000000e+00  2.57356535e-06]","[[-1.43277819e-04  1.18976331e-03]
 [-7.09270467e-06 -2.37251287e-03]]",[],0.0,0.0
1787214833.7628675,0.2475515034767367,-0.9062610386061707,0.13863140857210787,"[ 5.80522402e-06 -1.93014992e-07  0.00000000e+00  0.00000000e+00
  0.00000000e+00 -4.95046513e-07 -1.93014992e-07  3.66175570e-06
  0.00000000e+00  0.00000000e+00  0.00000000e+00  5.66362201e-07
  0.00000000e+00  0.00000000e+00  0.00000000e+00  0.00000000e+00
  0.00000000e+00  0.00000000e+00  0.00000000e+00  0.00000000e+00
  0.00000000e+00  0.00000000e+00  0.00000000e+00  0.00000000e+00
  0.00000000e+00  0.00000000e+00  0.00000000e+00  0.00000000e+00
  0.00000000e+00  0.00000000e+00 -4.95046513e-07  5.66362201e-07
  0.00000000e+00  0.00000000e+00  0.00000000e+00  2.57356535e-06]","[[-1.43277819e-04  1.18976331e-03]
 [-7.09270467e-06 -2.37251287e-03]]",[],0.0,0.0
1787214833.8347518,0.2475515034767367,-0.9062610386061707,0.13863140857210787,"[ 5.80522402e-06 -1.93014992e-07  0.00000000e+00  0.00000000e+00
  0.00000000e+00 -4.95046513e-07 -1.93014992e-07  3.66175570e-06
  0.00000000e+00  0.00000000e+00  0.00000000e+00  5.66362201e-07
  0.00000000e+00  0.00000000e+00  0.00000000e+00  0.00000000e+00
  0.00000000e+00  0.00000000e+00  0.00000000e+00  0.00000000e+00
  0.00000000e+00  0.00000000e+00  0.00000000e+00  0.00000000e+00
  0.00000000e+00  0.00000000e+00  0.00000000e+00  0.00000000e+00
  0.00000000e+00  0.00000000e+00 -4.95046513e-07  5.66362201e-07
  0.00000000e+00  0.00000000e+00  0.00000000e+00  2.57356535e-06]","[[-1.43277819e-04  1.18976331e-03]
 [-7.09270467e-06 -2.37251287e-03]]",[],0.0,0.0
1787214833.856423,0.2475515034767367,-0.9062610386061707,0.13863140857210787,"[ 5.80522402e-06 -1.93014992e-07  0.00000000e+00  0.00000000e+00
  0.00000000e+00 -4.95046513e-07 -1.93014992e-07  3.66175570e-06
  0.00000000e+00  0.00000000e+00  0.00000000e+00  5.66362201e-07
  0.00000000e+00  0.00000000e+00  0.00000000e+00  0.00000000e+00
  0.00000000e+00  0.00000000e+00  0.00000000e+00  0.00000000e+00
  0.00000000e+00  0.00000000e+00  0.00000000e+00  0.00000000e+00
  0.00000000e+00  0.00000000e+00  0.00000000e+00  0.00000000e+00
  0.00000000e+00  0.00000000e+00 -4.95046513e-07  5.66362201e-07
  0.00000000e+00  0.00000000e+00  0.00000000e+00  2.57356535e-06]","[[-1.43277819e-04  1.18976331e-03]
 [-7.09270467e-06 -2.37251287e-03]]",[],0.0,0.0
1787214833.9086773,0.2369722775057208,-0.9089351477870016,0.1320655804469002,"[ 4.82463472e-06 -1.47946983e-07  0.00000000e+00  0.00000000e+00
  0.00000000e+00 -3.70126312e-07 -1.47946983e-07  3.05655589e-06
  0.00000000e+00  0.00000000e+00  0.00000000e+00  5.02130112e-07
  0.00000000e+00  0.00000000e+00  0.00000000e+00  0.00000000e+00
  0.00000000e+00  0.00000000e+00  0.00000000e+00  0.00000000e+00
  0.00000000e+00  0.00000000e+00  0.00000000e+00  0.00000000e+00
  0.00000000e+00  0.00000000e+00  0.00000000e+00  0.00000000e+00
  0.00000000e+00  0.00000000e+00 -3.70126312e-07  5.02130112e-07
  0.00000000e+00  0.00000000e+00  0.00000000e+00  2.52494499e-06]","[[-1.19519861e-04  8.73204091e-04]
 [-4.53468576e-06 -2.02850322e-03]]",[],0.0,0.0
1787214833.9567695,0.2369722775057208,-0.9089351477870016,0.1320655804469002,"[ 4.82463472e-06 -1.47946983e-07  0.00000000e+00  0.00000000e+00
  0.00000000e+00 -3.70126312e-07 -1.47946983e-07  3.05655589e-06
  0.00000000e+00  0.00000000e+00  0.00000000e+00  5.02130112e-07
  0.00000000e+00  0.00000000e+00  0.00000000e+00  0.00000000e+00
  0.00000000e+00  0.00000000e+00  0.00000000e+00  0.00000000e+00
  0.00000000e+00  0.00000000e+00  0.00000000e+00  0.00000000e+00
  0.00000000e+00  0.00000000e+00  0.00000000e+00  0.00000000e+00
  0.00000000e+00  0.00000000e+00 -3.70126312e-07  5.02130112e-07
  0.00000000e+00  0.00000000e+00  0.00000000e+00  2.52494499e-06]","[[-1.19519861e-04  8.73204091e-04]
 [-4.53468576e-06 -2.02850322e-03]]",[],0.0,0.0
1787214834.0060856,0.2369722775057208,-0.9089351477870016,0.1320655804469002,"[ 4.82463472e-06 -1.47946983e-07  0.00000000e+00  0.00000000e+00
  0.00000000e+00 -3.70126312e-07 -1.47946983e-07  3.05655589e-06
  0.00000000e+00  0.00000000e+00  0.00000000e+00  5.02130112e-07
  0.00000000e+00  0.00000000e+00  0.00000000e+00  0.00000000e+00
  0.00000000e+00  0.00000000e+00  0.00000000e+00  0.00000000e+00
  0.00000000e+00  0.00000000e+00  0.00000000e+00  0.00000000e+00
  0.00000000e+00  0.00000000e+00  0.00000000e+00  0.00000000e+00
  0.00000000e+00  0.00000000e+00 -3.70126312e-07  5.02130112e-07
  0.00000000e+00  0.00000000e+00  0.00000000e+00  2.52494499e-06]","[[-1.19519861e-04  8.73204091e-04]
 [-4.53468576e-06 -2.02850322e-03]]",[],0.0,0.0
1787214834.0582266,0.2369722775057208,-0.9089351477870016,0.1320655804469002,"[ 4.82463472e-06 -1.47946983e-07  0.00000000e+00  0.00000000e+00
  0.00000000e+00 -3.70126312e-07 -1.47946983e-07  3.05655589e-06
  0.00000000e+00  0.00000000e+00  0.00000000e+00  5.02130112e-07
  0.00000000e+00  0.00000000e+00  0.00000000e+00  0.00000000e+00
  0.00000000e+00  0.00000000e+00  0.00000000e+00  0.00000000e+00
  0.00000000e+00  0.00000000e+00  0.00000000e+00  0.00000000e+00
  0.00000000e+00  0.00000000e+00  0.00000000e+00  0.00000000e+00
  0.00000000e+00  0.00000000e+00 -3.70126312e-07  5.02130112e-07
  0.00000000e+00  0.00000000e+00  0.00000000e+00  2.52494499e-06]","[[-1.19519861e-04  8.73204091e-04]
 [-4.53468576e-06 -2.02850322e-03]]",[],0.0,0.0
1787214834.1059902,0.2369722775057208,-0.9089351477870016,0.1320655804469002,"[ 4.82463472e-06 -1.47946983e-07  0.00000000e+00  0.00000000e+00
  0.00000000e+00 -3.70126312e-07 -1.47946983e-07  3.05655589e-06
  0.00000000e+00  0.00000000e+00  0.00000000e+00  5.02130112e-07
  0.00000000e+00  0.00000000e+00  0.00000000e+00  0.00000000e+00
  0.00000000e+00  0.00000000e+00  0.00000000e+00  0.00000000e+00
  0.00000000e+00  0.00000000e+00  0.00000000e+00  0.00000000e+00
  0.00000000e+00  0.00000000e+00  0.00000000e+00  0.00000000e+00
  0.00000000e+00  0.00000000e+00 -3.70126312e-07  5.02130112e-07
  0.00000000e+00  0.00000000e+00  0.00000000e+00  2.52494499e-06]","[[-1.19519861e-04  8.73204091e-04]
 [-4.53468576e-06 -2.02850322e-03]]",[],0.0,0.0
1787214834.1563065,0.2369722775057208,-0.9089351477870016,0.1320655804469002,"[ 4.82463472e-06 -1.47946983e-07  0.00000000e+00  0.00000000e+00
  0.00000000e+00 -3.70126312e-07 -1.47946983e-07  3.05655589e-06
  0.00000000e+00  0.00000000e+00  0.00000000e+00  5.02130112e-07
  0.00000000e+00  0.00000000e+00  0.00000000e+00  0.00000000e+00
  0.00000000e+00  0.00000000e+00  0.00000000e+00  0.00000000e+00
  0.00000000e+00  0.00000000e+00  0.00000000e+00  0.00000000e+00
  0.00000000e+00  0.00000000e+00  0.00000000e+00  0.00000000e+00
  0.00000000e+00  0.00000000e+00 -3.70126312e-07  5.02130112e-07
  0.00000000e+00  0.00000000e+00  0.00000000e+00  2.52494499e-06]","[[-1.19519861e-04  8.73204091e-04]
 [-4.53468576e-06 -2.02850322e-03]]",[],0.0,0.0
1787214834.2064865,0.2369722775057208,-0.9089351477870016,0.1320655804469002,"[ 4.82463472e-06 -1.47946983e-07  0.00000000e+00  0.00000000e+00
  0.00000000e+00 -3.70126312e-07 -1.47946983e-07  3.05655589e-06
  0.00000000e+00  0.00000000e+00  0.00000000e+00  5.02130112e-07
  0.00000000e+00  0.00000000e+00  0.00000000e+00  0.00000000e+00
  0.00000000e+00  0.00000000e+00  0.00000000e+00  0.00000000e+00
  0.00000000e+00  0.00000000e+00  0.00000000e+00  0.00000000e+00
  0.00000000e+00  0.00000000e+00  0.00000000e+00  0.00000000e+00
  0.00000000e+00  0.00000000e+00 -3.70126312e-07  5.02130112e-07
  0.00000000e+00  0.00000000e+00  0.00000000e+00  2.52494499e-06]","[[-1.19519861e-04  8.73204091e-04]
 [-4.53468576e-06 -2.02850322e-03]]",[],0.0,0.0
1787214834.2560906,0.2369722775057208,-0.9089351477870016,0.1320655804469002,"[ 4.82463472e-06 -1.47946983e-07  0.00000000e+00  0.00000000e+00
  0.00000000e+00 -3.70126312e-07 -1.47946983e-07  3.05655589e-06
  0.00000000e+00  0.00000000e+00  0.00000000e+00  5.02130112e-07
  0.00000000e+00  0.00000000e+00  0.00000000e+00  0.00000000e+00
  0.00000000e+00  0.00000000e+00  0.00000000e+00  0.00000000e+00
  0.00000000e+00  0.00000000e+00  0.00000000e+00  0.00000000e+00
  0.00000000e+00  0.00000000e+00  0.00000000e+00  0.00000000e+00
  0.00000000e+00  0.00000000e+00 -3.70126312e-07  5.02130112e-07
  0.00000000e+00  0.00000000e+00  0.00000000e+00  2.52494499e-06]","[[-1.19519861e-04  8.73204091e-04]
 [-4.53468576e-06 -2.02850322e-03]]",[],0.0,0.0
1787214834.3342311,0.2369722775057208,-0.9089351477870016,0.1320655804469002,"[ 4.82463472e-06 -1.47946983e-07  0.00000000e+00  0.00000000e+00
  0.00000000e+00 -3.70126312e-07 -1.47946983e-07  3.05655589e-06
  0.00000000e+00  0.00000000e+00  0.00000000e+00  5.02130112e-07
  0.00000000e+00  0.00000000e+00  0.00000000e+00  0.00000000e+00
  0.00000000e+00  0.00000000e+00  0.00000000e+00  0.00000000e+00
  0.00000000e+00  0.00000000e+00  0.00000000e+00  0.00000000e+00
  0.00000000e+00  0.00000000e+00  0.00000000e+00  0.00000000e+00
  0.00000000e+00  0.00000000e+00 -3.70126312e-07  5.02130112e-07
  0.00000000e+00  0.00000000e+00  0.00000000e+00  2.52494499e-06]","[[-1.19519861e-04  8.73204091e-04]
 [-4.53468576e-06 -2.02850322e-03]]",[],0.0,0.0
1787214834.3625941,0.2369722775057208,-0.9089351477870016,0.1320655804469002,"[ 4.82463472e-06 -1.47946983e-07  0.00000000e+00  0.00000000e+00
  0.00000000e+00 -3.70126312e-07 -1.47946983e-07  3.05655589e-06
  0.00000000e+00  0.00000000e+00  0.00000000e+00  5.02130112e-07
  0.00000000e+00  0.00000000e+00  0.00000000e+00  0.00000000e+00
  0.00000000e+00  0.00000000e+00  0.00000000e+00  0.00000000e+00
  0.00000000e+00  0.00000000e+00  0.00000000e+00  0.00000000e+00
  0.00000000e+00  0.00000000e+00  0.00000000e+00  0.00000000e+00
  0.00000000e+00  0.00000000e+00 -3.70126312e-07  5.02130112e-07
  0.00000000e+00  0.00000000e+00  0.00000000e+00  2.52494499e-06]","[[-1.19519861e-04  8.73204091e-04]
 [-4.53468576e-06 -2.02850322e-03]]",[],0.0,0.0
1787214834.780828,0.22931447960600101,-0.9107753304221504,0.12205520792799351,"[ 4.16164694e-06 -1.10099406e-07  0.00000000e+00  0.00000000e+00
  0.00000000e+00 -3.32616549e-07 -1.10099406e-07  2.63787054e-06
  0.00000000e+00  0.00000000e+00  0.00000000e+00  4.25734962e-07
  0.00000000e+00  0.00000000e+00  0.00000000e+00  0.00000000e+00
  0.00000000e+00  0.00000000e+00  0.00000000e+00  0.00000000e+00
  0.00000000e+00  0.00000000e+00  0.00000000e+00  0.00000000e+00
  0.00000000e+00  0.00000000e+00  0.00000000e+00  0.00000000e+00
  0.00000000e+00  0.00000000e+00 -3.32616549e-07  4.25734962e-07
  0.00000000e+00  0.00000000e+00  0.00000000e+00  2.56686034e-06]","[[-1.03352830e-04  7.41720659e-04]
 [-3.29344028e-06 -1.73417880e-03]]",[],0.0,0.0
1787214835.1769242,0.22172080871416391,-0.9120175463009514,0.11748273085397587,"[ 3.67028739e-06 -8.94613708e-08  0.00000000e+00  0.00000000e+00
  0.00000000e+00 -2.83442288e-07 -8.94613708e-08  2.31269584e-06
  0.00000000e+00  0.00000000e+00  0.00000000e+00  3.65778870e-07
  0.00000000e+00  0.00000000e+00  0.00000000e+00  0.00000000e+00
  0.00000000e+00  0.00000000e+00  0.00000000e+00  0.00000000e+00
  0.00000000e+00  0.00000000e+00  0.00000000e+00  0.00000000e+00
  0.00000000e+00  0.00000000e+00  0.00000000e+00  0.00000000e+00
  0.00000000e+00  0.00000000e+00 -2.83442288e-07  3.65778870e-07
  0.00000000e+00  0.00000000e+00  0.00000000e+00  2.40311513e-06]","[[-9.12932876e-05  6.17142340e-04]
 [-2.34067992e-06 -1.50934951e-03]]",[],0.0,0.0
1787214835.611534,0.21293737950393038,-0.9129298166061652,0.10837198427314035,"[ 3.28807295e-06 -7.70794562e-08  0.00000000e+00  0.00000000e+00
  0.00000000e+00 -2.33374134e-07 -7.70794562e-08  2.05718159e-06
  0.00000000e+00  0.00000000e+00  0.00000000e+00  3.32385209e-07
  0.00000000e+00  0.00000000e+00  0.00000000e+00  0.00000000e+00
  0.00000000e+00  0.00000000e+00  0.00000000e+00  0.00000000e+00
  0.00000000e+00  0.00000000e+00  0.00000000e+00  0.00000000e+00
  0.00000000e+00  0.00000000e+00  0.00000000e+00  0.00000000e+00
  0.00000000e+00  0.00000000e+00 -2.33374134e-07  3.32385209e-07
  0.00000000e+00  0.00000000e+00  0.00000000e+00  2.33880304e-06]","[[-8.16177944e-05  5.41838319e-04]
 [-3.11980488e-06 -1.35278765e-03]]",[],0.0,0.0
1787214836.0304983,0.20944468819618525,-0.9128770148962113,0.10012514008276298,"[ 2.98347739e-06 -7.00448889e-08  0.00000000e+00  0.00000000e+00
  0.00000000e+00 -2.13405341e-07 -7.00448889e-08  1.84518782e-06
  0.00000000e+00  0.00000000e+00  0.00000000e+00  3.19098104e-07
  0.00000000e+00  0.00000000e+00  0.00000000e+00  0.00000000e+00
  0.00000000e+00  0.00000000e+00  0.00000000e+00  0.00000000e+00
  0.00000000e+00  0.00000000e+00  0.00000000e+00  0.00000000e+00
  0.00000000e+00  0.00000000e+00  0.00000000e+00  0.00000000e+00
  0.00000000e+00  0.00000000e+00 -2.13405341e-07  3.19098104e-07
  0.00000000e+00  0.00000000e+00  0.00000000e+00  2.37659243e-06]","[[-7.40663444e-05  4.93409747e-04]
 [-2.72662167e-06 -1.24931074e-03]]",[],0.0,0.0
1787214836.4378192,0.20321823774612588,-0.9137433634792453,0.09103464828253971,"[ 2.75896252e-06 -6.70300512e-08  0.00000000e+00  0.00000000e+00
  0.00000000e+00 -1.83399928e-07 -6.70300512e-08  1.68154929e-06
  0.00000000e+00  0.00000000e+00  0.00000000e+00  2.89495422e-07
  0.00000000e+00  0.00000000e+00  0.00000000e+00  0.00000000e+00
  0.00000000e+00  0.00000000e+00  0.00000000e+00  0.00000000e+00
  0.00000000e+00  0.00000000e+00  0.00000000e+00  0.00000000e+00
  0.00000000e+00  0.00000000e+00  0.00000000e+00  0.00000000e+00
  0.00000000e+00  0.00000000e+00 -1.83399928e-07  2.89495422e-07
  0.00000000e+00  0.00000000e+00  0.00000000e+00  2.40382432e-06]","[[-6.86650957e-05  4.08638862e-04]
 [-1.41388233e-06 -1.13641289e-03]]",[],0.0,0.0
1787214836.5420916,0.19824823917236145,-0.9154400118057465,0.07771805438013545,"[ 2.54961870e-06 -6.09594168e-08  0.00000000e+00  0.00000000e+00
  0.00000000e+00 -1.52183238e-07 -6.09594168e-08  1.54494558e-06
  0.00000000e+00  0.00000000e+00  0.00000000e+00  2.61015505e-07
  0.00000000e+00  0.00000000e+00  0.00000000e+00  0.00000000e+00
  0.00000000e+00  0.00000000e+00  0.00000000e+00  0.00000000e+00
  0.00000000e+00  0.00000000e+00  0.00000000e+00  0.00000000e+00
  0.00000000e+00  0.00000000e+00  0.00000000e+00  0.00000000e+00
  0.00000000e+00  0.00000000e+00 -1.52183238e-07  2.61015505e-07
  0.00000000e+00  0.00000000e+00  0.00000000e+00  2.33206771e-06]","[[-6.35827684e-05  3.25769485e-04]
 [-4.23628521e-07 -1.03652099e-03]]",[],0.0,0.0
1787214836.8935065,0.19824823917236145,-0.9154400118057465,0.07771805438013545,"[ 2.54961870e-06 -6.09594168e-08  0.00000000e+00  0.00000000e+00
  0.00000000e+00 -1.52183238e-07 -6.09594168e-08  1.54494558e-06
  0.00000000e+00  0.00000000e+00  0.00000000e+00  2.61015505e-07
  0.00000000e+00  0.00000000e+00  0.00000000e+00  0.00000000e+00
  0.00000000e+00  0.00000000e+00  0.00000000e+00  0.00000000e+00
  0.00000000e+00  0.00000000e+00  0.00000000e+00  0.00000000e+00
  0.00000000e+00  0.00000000e+00  0.00000000e+00  0.00000000e+00
  0.00000000e+00  0.00000000e+00 -1.52183238e-07  2.61015505e-07
  0.00000000e+00  0.00000000e+00  0.00000000e+00  2.33206771e-06]","[[-6.35827684e-05  3.25769485e-04]
 [-4.23628521e-07 -1.03652099e-03]]",[],0.0,0.0
1787214837.3186393,0.19217379189017386,-0.9177869540485627,0.061523322765979056,"[ 2.38433441e-06 -5.87908583e-08  0.00000000e+00  0.00000000e+00
  0.00000000e+00 -1.37037273e-07 -5.87908583e-08  1.42698938e-06
  0.00000000e+00  0.00000000e+00  0.00000000e+00  2.38354604e-07
  0.00000000e+00  0.00000000e+00  0.00000000e+00  0.00000000e+00
  0.00000000e+00  0.00000000e+00  0.00000000e+00  0.00000000e+00
  0.00000000e+00  0.00000000e+00  0.00000000e+00  0.00000000e+00
  0.00000000e+00  0.00000000e+00  0.00000000e+00  0.00000000e+00
  0.00000000e+00  0.00000000e+00 -1.37037273e-07  2.38354604e-07
  0.00000000e+00  0.00000000e+00  0.00000000e+00  2.38792955e-06]","[[-5.94665797e-05  2.94908078e-04]
 [-2.65035497e-07 -9.52650266e-04]]",[],0.0,0.0
1787214837.7606742,0.18888715318551164,-0.9187970982132507,0.054603802746864716,"[ 2.24534336e-06 -5.69698187e-08  0.00000000e+00  0.00000000e+00
  0.00000000e+00 -1.46281041e-07 -5.69698187e-08  1.32198093e-06
  0.00000000e+00  0.00000000e+00  0.00000000e+00  2.16950584e-07
  0.00000000e+00  0.00000000e+00  0.00000000e+00  0.00000000e+00
  0.00000000e+00  0.00000000e+00  0.00000000e+00  0.00000000e+00
  0.00000000e+00  0.00000000e+00  0.00000000e+00  0.00000000e+00
  0.00000000e+00  0.00000000e+00  0.00000000e+00  0.00000000e+00
  0.00000000e+00  0.00000000e+00 -1.46281041e-07  2.16950584e-07
  0.00000000e+00  0.00000000e+00  0.00000000e+00  2.30262611e-06]","[[-5.60828764e-05  2.75107689e-04]
 [ 6.26391677e-07 -7.53603072e-04]]",[],0.0,0.0
1787214838.1481428,0.18530952970257936,-0.9200254805491621,0.046978913321732665,"[ 2.13718228e-06 -5.35193703e-08  0.00000000e+00  0.00000000e+00
  0.00000000e+00 -1.12977617e-07 -5.35193703e-08  1.23784011e-06
  0.00000000e+00  0.00000000e+00  0.00000000e+00  2.02656322e-07
  0.00000000e+00  0.00000000e+00  0.00000000e+00  0.00000000e+00
  0.00000000e+00  0.00000000e+00  0.00000000e+00  0.00000000e+00
  0.00000000e+00  0.00000000e+00  0.00000000e+00  0.00000000e+00
  0.00000000e+00  0.00000000e+00  0.00000000e+00  0.00000000e+00
  0.00000000e+00  0.00000000e+00 -1.12977617e-07  2.02656322e-07
  0.00000000e+00  0.00000000e+00  0.00000000e+00  2.45002051e-06]","[[-5.33928368e-05  2.24221155e-04]
 [ 7.28178622e-07 -8.19194784e-04]]",[],0.0,0.0
1787214838.3033195,0.18279528941456114,-0.9213061758026154,0.03999117926743034,"[ 2.02704117e-06 -5.37088341e-08  0.00000000e+00  0.00000000e+00
  0.00000000e+00 -1.25068845e-07 -5.37088341e-08  1.16317214e-06
  0.00000000e+00  0.00000000e+00  0.00000000e+00  1.96953151e-07
  0.00000000e+00  0.00000000e+00  0.00000000e+00  0.00000000e+00
  0.00000000e+00  0.00000000e+00  0.00000000e+00  0.00000000e+00
  0.00000000e+00  0.00000000e+00  0.00000000e+00  0.00000000e+00
  0.00000000e+00  0.00000000e+00  0.00000000e+00  0.00000000e+00
  0.00000000e+00  0.00000000e+00 -1.25068845e-07  1.96953151e-07
  0.00000000e+00  0.00000000e+00  0.00000000e+00  2.33946704e-06]","[[-5.06636583e-05  2.34219739e-04]
 [ 1.10991772e-06 -7.80946460e-04]]",[],0.0,0.0
1787214838.3081608,0.18279528941456114,-0.9213061758026154,0.03999117926743034,"[ 2.02704117e-06 -5.37088341e-08  0.00000000e+00  0.00000000e+00
  0.00000000e+00 -1.25068845e-07 -5.37088341e-08  1.16317214e-06
  0.00000000e+00  0.00000000e+00  0.00000000e+00  1.96953151e-07
  0.00000000e+00  0.00000000e+00  0.00000000e+00  0.00000000e+00
  0.00000000e+00  0.00000000e+00  0.00000000e+00  0.00000000e+00
  0.00000000e+00  0.00000000e+00  0.00000000e+00  0.00000000e+00
  0.00000000e+00  0.00000000e+00  0.00000000e+00  0.00000000e+00
  0.00000000e+00  0.00000000e+00 -1.25068845e-07  1.96953151e-07
  0.00000000e+00  0.00000000e+00  0.00000000e+00  2.33946704e-06]","[[-5.06636583e-05  2.34219739e-04]
 [ 1.10991772e-06 -7.80946460e-04]]",[],0.0,0.0
1787214838.560566,0.18279528941456114,-0.9213061758026154,0.03999117926743034,"[ 2.02704117e-06 -5.37088341e-08  0.00000000e+00  0.00000000e+00
  0.00000000e+00 -1.25068845e-07 -5.37088341e-08  1.16317214e-06
  0.00000000e+00  0.00000000e+00  0.00000000e+00  1.96953151e-07
  0.00000000e+00  0.00000000e+00  0.00000000e+00  0.00000000e+00
  0.00000000e+00  0.00000000e+00  0.00000000e+00  0.00000000e+00
  0.00000000e+00  0.00000000e+00  0.00000000e+00  0.00000000e+00
  0.00000000e+00  0.00000000e+00  0.00000000e+00  0.00000000e+00
  0.00000000e+00  0.00000000e+00 -1.25068845e-07  1.96953151e-07
  0.00000000e+00  0.00000000e+00  0.00000000e+00  2.33946704e-06]","[[-5.06636583e-05  2.34219739e-04]
 [ 1.10991772e-06 -7.80946460e-04]]",[],0.0,0.0
1787214838.9782052,0.17977990220824258,-0.9231337698250127,0.029359307604504444,"[ 1.93986668e-06 -5.55178802e-08  0.00000000e+00  0.00000000e+00
  0.00000000e+00 -1.27828316e-07 -5.55178802e-08  1.09551383e-06
  0.00000000e+00  0.00000000e+00  0.00000000e+00  2.11485559e-07
  0.00000000e+00  0.00000000e+00  0.00000000e+00  0.00000000e+00
  0.00000000e+00  0.00000000e+00  0.00000000e+00  0.00000000e+00
  0.00000000e+00  0.00000000e+00  0.00000000e+00  0.00000000e+00
  0.00000000e+00  0.00000000e+00  0.00000000e+00  0.00000000e+00
  0.00000000e+00  0.00000000e+00 -1.27828316e-07  2.11485559e-07
  0.00000000e+00  0.00000000e+00  0.00000000e+00  2.41304670e-06]","[[-4.84619793e-05  2.47454563e-04]
 [ 8.72531809e-07 -7.79156416e-04]]",[],0.0,0.0
1787214839.381132,0.17565408726024606,-0.9246238143498755,0.018526828291712153,"[ 1.85836728e-06 -5.56154944e-08  0.00000000e+00  0.00000000e+00
  0.00000000e+00 -1.32295019e-07 -5.56154944e-08  1.03329409e-06
  0.00000000e+00  0.00000000e+00  0.00000000e+00  1.81882403e-07
  0.00000000e+00  0.00000000e+00  0.00000000e+00  0.00000000e+00
  0.00000000e+00  0.00000000e+00  0.00000000e+00  0.00000000e+00
  0.00000000e+00  0.00000000e+00  0.00000000e+00  0.00000000e+00
  0.00000000e+00  0.00000000e+00  0.00000000e+00  0.00000000e+00
  0.00000000e+00  0.00000000e+00 -1.32295019e-07  1.81882403e-07
  0.00000000e+00  0.00000000e+00  0.00000000e+00  2.31521138e-06]","[[-4.63745494e-05  2.85792647e-04]
 [ 4.22225286e-07 -8.54537831e-04]]",[],0.0,0.0
1787214839.7694578,0.1715747764308671,-0.9259552905210358,0.009194934323617508,"[ 1.78456365e-06 -5.61298431e-08  0.00000000e+00  0.00000000e+00
  0.00000000e+00 -1.10094993e-07 -5.61298431e-08  9.78085123e-07
  0.00000000e+00  0.00000000e+00  0.00000000e+00  1.78066089e-07
  0.00000000e+00  0.00000000e+00  0.00000000e+00  0.00000000e+00
  0.00000000e+00  0.00000000e+00  0.00000000e+00  0.00000000e+00
  0.00000000e+00  0.00000000e+00  0.00000000e+00  0.00000000e+00
  0.00000000e+00  0.00000000e+00  0.00000000e+00  0.00000000e+00
  0.00000000e+00  0.00000000e+00 -1.10094993e-07  1.78066089e-07
  0.00000000e+00  0.00000000e+00  0.00000000e+00  2.27976766e-06]","[[-4.45928976e-05  2.12938501e-04]
 [ 1.09539714e-06 -6.78644403e-04]]",[],0.0,0.0
1787214840.1584885,0.16655251328332002,-0.9276125351391434,-0.004982058884305474,"[ 1.71817745e-06 -5.87140265e-08  0.00000000e+00  0.00000000e+00
  0.00000000e+00 -9.68043141e-08 -5.87140265e-08  9.29673710e-07
  0.00000000e+00  0.00000000e+00  0.00000000e+00  1.68432804e-07
  0.00000000e+00  0.00000000e+00  0.00000000e+00  0.00000000e+00
  0.00000000e+00  0.00000000e+00  0.00000000e+00  0.00000000e+00
  0.00000000e+00  0.00000000e+00  0.00000000e+00  0.00000000e+00
  0.00000000e+00  0.00000000e+00  0.00000000e+00  0.00000000e+00
  0.00000000e+00  0.00000000e+00 -9.68043141e-08  1.68432804e-07
  0.00000000e+00  0.00000000e+00  0.00000000e+00  2.26698227e-06]","[[-4.29682672e-05  1.75454918e-04]
 [ 1.73007710e-06 -6.41063436e-04]]",[],0.0,0.0
1787214840.564398,0.16235702709480435,-0.9290342997378208,-0.018733819049073116,"[ 1.66173066e-06 -6.09519659e-08  0.00000000e+00  0.00000000e+00
  0.00000000e+00 -7.97721930e-08 -6.09519659e-08  8.86809807e-07
  0.00000000e+00  0.00000000e+00  0.00000000e+00  1.48759739e-07
  0.00000000e+00  0.00000000e+00  0.00000000e+00  0.00000000e+00
  0.00000000e+00  0.00000000e+00  0.00000000e+00  0.00000000e+00
  0.00000000e+00  0.00000000e+00  0.00000000e+00  0.00000000e+00
  0.00000000e+00  0.00000000e+00  0.00000000e+00  0.00000000e+00
  0.00000000e+00  0.00000000e+00 -7.97721930e-08  1.48759739e-07
  0.00000000e+00  0.00000000e+00  0.00000000e+00  2.26327652e-06]","[[-4.15710408e-05  1.33752325e-04]
 [ 2.27358376e-06 -5.90071028e-04]]",[],0.0,0.0
1787214840.949398,0.1579263655431002,-0.9302244141073026,-0.03171779772060602,"[ 1.61488443e-06 -6.21237541e-08  0.00000000e+00  0.00000000e+00
  0.00000000e+00 -7.33501958e-08 -6.21237541e-08  8.45896267e-07
  0.00000000e+00  0.00000000e+00  0.00000000e+00  1.50201295e-07
  0.00000000e+00  0.00000000e+00  0.00000000e+00  0.00000000e+00
  0.00000000e+00  0.00000000e+00  0.00000000e+00  0.00000000e+00
  0.00000000e+00  0.00000000e+00  0.00000000e+00  0.00000000e+00
  0.00000000e+00  0.00000000e+00  0.00000000e+00  0.00000000e+00
  0.00000000e+00  0.00000000e+00 -7.33501958e-08  1.50201295e-07
  0.00000000e+00  0.00000000e+00  0.00000000e+00  2.26211709e-06]","[[-4.03944996e-05  1.09374980e-04]
 [ 2.76972316e-06 -5.71596597e-04]]",[],0.0,0.0
1787214841.325003,0.1543109403772999,-0.9314270527005228,-0.04729028142818904,"[ 1.56675693e-06 -6.39095187e-08  0.00000000e+00  0.00000000e+00
  0.00000000e+00 -7.41976200e-08 -6.39095187e-08  8.09955854e-07
  0.00000000e+00  0.00000000e+00  0.00000000e+00  1.51973524e-07
  0.00000000e+00  0.00000000e+00  0.00000000e+00  0.00000000e+00
  0.00000000e+00  0.00000000e+00  0.00000000e+00  0.00000000e+00
  0.00000000e+00  0.00000000e+00  0.00000000e+00  0.00000000e+00
  0.00000000e+00  0.00000000e+00  0.00000000e+00  0.00000000e+00
  0.00000000e+00  0.00000000e+00 -7.41976200e-08  1.51973524e-07
  0.00000000e+00  0.00000000e+00  0.00000000e+00  2.27622102e-06]","[[-3.91852894e-05  1.04867764e-04]
 [ 3.00053759e-06 -5.69578498e-04]]",[],0.0,0.0
1787214841.70648,0.15019198209483545,-0.9328149379134522,-0.05981043189325997,"[ 1.52561867e-06 -6.78462395e-08  0.00000000e+00  0.00000000e+00
  0.00000000e+00 -6.75099020e-08 -6.78462395e-08  7.76763451e-07
  0.00000000e+00  0.00000000e+00  0.00000000e+00  1.50303891e-07
  0.00000000e+00  0.00000000e+00  0.00000000e+00  0.00000000e+00
  0.00000000e+00  0.00000000e+00  0.00000000e+00  0.00000000e+00
  0.00000000e+00  0.00000000e+00  0.00000000e+00  0.00000000e+00
  0.00000000e+00  0.00000000e+00  0.00000000e+00  0.00000000e+00
  0.00000000e+00  0.00000000e+00 -6.75099020e-08  1.50303891e-07
  0.00000000e+00  0.00000000e+00  0.00000000e+00  2.27152878e-06]","[[-3.81627895e-05  9.48569557e-05]
 [ 3.10454990e-06 -5.47089873e-04]]",[],0.0,0.0
1787214842.0934377,0.14633766568735074,-0.9337814983204252,-0.07223897369770339,"[ 1.48672865e-06 -7.19910994e-08  0.00000000e+00  0.00000000e+00
  0.00000000e+00 -5.94628205e-08 -7.19910994e-08  7.47121944e-07
  0.00000000e+00  0.00000000e+00  0.00000000e+00  1.37892283e-07
  0.00000000e+00  0.00000000e+00  0.00000000e+00  0.00000000e+00
  0.00000000e+00  0.00000000e+00  0.00000000e+00  0.00000000e+00
  0.00000000e+00  0.00000000e+00  0.00000000e+00  0.00000000e+00
  0.00000000e+00  0.00000000e+00  0.00000000e+00  0.00000000e+00
  0.00000000e+00  0.00000000e+00 -5.94628205e-08  1.37892283e-07
  0.00000000e+00  0.00000000e+00  0.00000000e+00  2.25380860e-06]","[[-3.71661000e-05  6.97049180e-05]
 [ 3.61739864e-06 -5.14264153e-04]]",[],0.0,0.0
1787214842.497267,0.14349069475907889,-0.934538830294461,-0.07928140582030352,"[ 1.45497227e-06 -7.43206313e-08  0.00000000e+00  0.00000000e+00
  0.00000000e+00 -4.99474055e-08 -7.43206313e-08  7.19811759e-07
  0.00000000e+00  0.00000000e+00  0.00000000e+00  1.24176093e-07
  0.00000000e+00  0.00000000e+00  0.00000000e+00  0.00000000e+00
  0.00000000e+00  0.00000000e+00  0.00000000e+00  0.00000000e+00
  0.00000000e+00  0.00000000e+00  0.00000000e+00  0.00000000e+00
  0.00000000e+00  0.00000000e+00  0.00000000e+00  0.00000000e+00
  0.00000000e+00  0.00000000e+00 -4.99474055e-08  1.24176093e-07
  0.00000000e+00  0.00000000e+00  0.00000000e+00  2.26327389e-06]","[[-3.63712784e-05  5.27998849e-05]
 [ 3.71039406e-06 -4.80836820e-04]]",[],0.0,0.0
1787214842.5060663,0.1405713990071288,-0.9352247014412455,-0.08948063748119983,"[ 1.42702945e-06 -7.80081623e-08  0.00000000e+00  0.00000000e+00
  0.00000000e+00 -5.74368681e-08 -7.80081623e-08  6.94486961e-07
  0.00000000e+00  0.00000000e+00  0.00000000e+00  1.20969094e-07
  0.00000000e+00  0.00000000e+00  0.00000000e+00  0.00000000e+00
  0.00000000e+00  0.00000000e+00  0.00000000e+00  0.00000000e+00
  0.00000000e+00  0.00000000e+00  0.00000000e+00  0.00000000e+00
  0.00000000e+00  0.00000000e+00  0.00000000e+00  0.00000000e+00
  0.00000000e+00  0.00000000e+00 -5.74368681e-08  1.20969094e-07
  0.00000000e+00  0.00000000e+00  0.00000000e+00  2.26694907e-06]","[[-3.57126855e-05  7.76977589e-05]
 [ 3.41428543e-06 -4.74682069e-04]]",[],0.0,0.0
1787214842.5753763,0.1405713990071288,-0.9352247014412455,-0.08948063748119983,"[ 1.42702945e-06 -7.80081623e-08  0.00000000e+00  0.00000000e+00
  0.00000000e+00 -5.74368681e-08 -7.80081623e-08  6.94486961e-07
  0.00000000e+00  0.00000000e+00  0.00000000e+00  1.20969094e-07
  0.00000000e+00  0.00000000e+00  0.00000000e+00  0.00000000e+00
  0.00000000e+00  0.00000000e+00  0.00000000e+00  0.00000000e+00
  0.00000000e+00  0.00000000e+00  0.00000000e+00  0.00000000e+00
  0.00000000e+00  0.00000000e+00  0.00000000e+00  0.00000000e+00
  0.00000000e+00  0.00000000e+00 -5.74368681e-08  1.20969094e-07
  0.00000000e+00  0.00000000e+00  0.00000000e+00  2.26694907e-06]","[[-3.57126855e-05  7.76977589e-05]
 [ 3.41428543e-06 -4.74682069e-04]]",[],0.0,0.0
1787214842.6072536,0.1405713990071288,-0.9352247014412455,-0.08948063748119983,"[ 1.42702945e-06 -7.80081623e-08  0.00000000e+00  0.00000000e+00
  0.00000000e+00 -5.74368681e-08 -7.80081623e-08  6.94486961e-07
  0.00000000e+00  0.00000000e+00  0.00000000e+00  1.20969094e-07
  0.00000000e+00  0.00000000e+00  0.00000000e+00  0.00000000e+00
  0.00000000e+00  0.00000000e+00  0.00000000e+00  0.00000000e+00
  0.00000000e+00  0.00000000e+00  0.00000000e+00  0.00000000e+00
  0.00000000e+00  0.00000000e+00  0.00000000e+00  0.00000000e+00
  0.00000000e+00  0.00000000e+00 -5.74368681e-08  1.20969094e-07
  0.00000000e+00  0.00000000e+00  0.00000000e+00  2.26694907e-06]","[[-3.57126855e-05  7.76977589e-05]
 [ 3.41428543e-06 -4.74682069e-04]]",[],0.0,0.0
1787214842.6673567,0.1405713990071288,-0.9352247014412455,-0.08948063748119983,"[ 1.42702945e-06 -7.80081623e-08  0.00000000e+00  0.00000000e+00
  0.00000000e+00 -5.74368681e-08 -7.80081623e-08  6.94486961e-07
  0.00000000e+00  0.00000000e+00  0.00000000e+00  1.20969094e-07
  0.00000000e+00  0.00000000e+00  0.00000000e+00  0.00000000e+00
  0.00000000e+00  0.00000000e+00  0.00000000e+00  0.00000000e+00
  0.00000000e+00  0.00000000e+00  0.00000000e+00  0.00000000e+00
  0.00000000e+00  0.00000000e+00  0.00000000e+00  0.00000000e+00
  0.00000000e+00  0.00000000e+00 -5.74368681e-08  1.20969094e-07
  0.00000000e+00  0.00000000e+00  0.00000000e+00  2.26694907e-06]","[[-3.57126855e-05  7.76977589e-05]
 [ 3.41428543e-06 -4.74682069e-04]]",[],0.0,0.0
1787214842.7109253,0.1405713990071288,-0.9352247014412455,-0.08948063748119983,"[ 1.42702945e-06 -7.80081623e-08  0.00000000e+00  0.00000000e+00
  0.00000000e+00 -5.74368681e-08 -7.80081623e-08  6.94486961e-07
  0.00000000e+00  0.00000000e+00  0.00000000e+00  1.20969094e-07
  0.00000000e+00  0.00000000e+00  0.00000000e+00  0.00000000e+00
  0.00000000e+00  0.00000000e+00  0.00000000e+00  0.00000000e+00
  0.00000000e+00  0.00000000e+00  0.00000000e+00  0.00000000e+00
  0.00000000e+00  0.00000000e+00  0.00000000e+00  0.00000000e+00
  0.00000000e+00  0.00000000e+00 -5.74368681e-08  1.20969094e-07
  0.00000000e+00  0.00000000e+00  0.00000000e+00  2.26694907e-06]","[[-3.57126855e-05  7.76977589e-05]
 [ 3.41428543e-06 -4.74682069e-04]]",[],0.0,0.0
1787214842.7654002,0.1405713990071288,-0.9352247014412455,-0.08948063748119983,"[ 1.42702945e-06 -7.80081623e-08  0.00000000e+00  0.00000000e+00
  0.00000000e+00 -5.74368681e-08 -7.80081623e-08  6.94486961e-07
  0.00000000e+00  0.00000000e+00  0.00000000e+00  1.20969094e-07
  0.00000000e+00  0.00000000e+00  0.00000000e+00  0.00000000e+00
  0.00000000e+00  0.00000000e+00  0.00000000e+00  0.00000000e+00
  0.00000000e+00  0.00000000e+00  0.00000000e+00  0.00000000e+00
  0.00000000e+00  0.00000000e+00  0.00000000e+00  0.00000000e+00
  0.00000000e+00  0.00000000e+00 -5.74368681e-08  1.20969094e-07
  0.00000000e+00  0.00000000e+00  0.00000000e+00  2.26694907e-06]","[[-3.57126855e-05  7.76977589e-05]
 [ 3.41428543e-06 -4.74682069e-04]]",[],0.0,0.0
1787214842.8356223,0.1405713990071288,-0.9352247014412455,-0.08948063748119983,"[ 1.42702945e-06 -7.80081623e-08  0.00000000e+00  0.00000000e+00
  0.00000000e+00 -5.74368681e-08 -7.80081623e-08  6.94486961e-07
  0.00000000e+00  0.00000000e+00  0.00000000e+00  1.20969094e-07
  0.00000000e+00  0.00000000e+00  0.00000000e+00  0.00000000e+00
  0.00000000e+00  0.00000000e+00  0.00000000e+00  0.00000000e+00
  0.00000000e+00  0.00000000e+00  0.00000000e+00  0.00000000e+00
  0.00000000e+00  0.00000000e+00  0.00000000e+00  0.00000000e+00
  0.00000000e+00  0.00000000e+00 -5.74368681e-08  1.20969094e-07
  0.00000000e+00  0.00000000e+00  0.00000000e+00  2.26694907e-06]","[[-3.57126855e-05  7.76977589e-05]
 [ 3.41428543e-06 -4.74682069e-04]]",[],0.0,0.0
1787214842.8646188,0.1405713990071288,-0.9352247014412455,-0.08948063748119983,"[ 1.42702945e-06 -7.80081623e-08  0.00000000e+00  0.00000000e+00
  0.00000000e+00 -5.74368681e-08 -7.80081623e-08  6.94486961e-07
  0.00000000e+00  0.00000000e+00  0.00000000e+00  1.20969094e-07
  0.00000000e+00  0.00000000e+00  0.00000000e+00  0.00000000e+00
  0.00000000e+00  0.00000000e+00  0.00000000e+00  0.00000000e+00
  0.00000000e+00  0.00000000e+00  0.00000000e+00  0.00000000e+00
  0.00000000e+00  0.00000000e+00  0.00000000e+00  0.00000000e+00
  0.00000000e+00  0.00000000e+00 -5.74368681e-08  1.20969094e-07
  0.00000000e+00  0.00000000e+00  0.00000000e+00  2.26694907e-06]","[[-3.57126855e-05  7.76977589e-05]
 [ 3.41428543e-06 -4.74682069e-04]]",[],0.0,0.0
1787214842.9814034,0.1405713990071288,-0.9352247014412455,-0.08948063748119983,"[ 1.42702945e-06 -7.80081623e-08  0.00000000e+00  0.00000000e+00
  0.00000000e+00 -5.74368681e-08 -7.80081623e-08  6.94486961e-07
  0.00000000e+00  0.00000000e+00  0.00000000e+00  1.20969094e-07
  0.00000000e+00  0.00000000e+00  0.00000000e+00  0.00000000e+00
  0.00000000e+00  0.00000000e+00  0.00000000e+00  0.00000000e+00
  0.00000000e+00  0.00000000e+00  0.00000000e+00  0.00000000e+00
  0.00000000e+00  0.00000000e+00  0.00000000e+00  0.00000000e+00
  0.00000000e+00  0.00000000e+00 -5.74368681e-08  1.20969094e-07
  0.00000000e+00  0.00000000e+00  0.00000000e+00  2.26694907e-06]","[[-3.57126855e-05  7.76977589e-05]
 [ 3.41428543e-06 -4.74682069e-04]]",[],0.0,0.0
1787214843.4119039,0.1379653161079801,-0.9357521139251784,-0.09992046994805691,"[ 1.42840387e-06 -8.43508305e-08  0.00000000e+00  0.00000000e+00
  0.00000000e+00 -4.43040873e-08 -8.43508305e-08  6.71312491e-07
  0.00000000e+00  0.00000000e+00  0.00000000e+00  1.19733043e-07
  0.00000000e+00  0.00000000e+00  0.00000000e+00  0.00000000e+00
  0.00000000e+00  0.00000000e+00  0.00000000e+00  0.00000000e+00
  0.00000000e+00  0.00000000e+00  0.00000000e+00  0.00000000e+00
  0.00000000e+00  0.00000000e+00  0.00000000e+00  0.00000000e+00
  0.00000000e+00  0.00000000e+00 -4.43040873e-08  1.19733043e-07
  0.00000000e+00  0.00000000e+00  0.00000000e+00  2.50935773e-06]","[[-3.57255647e-05  4.45597582e-05]
 [ 3.94022431e-06 -4.56449914e-04]]",[],0.0,0.0
1787214843.4763286,0.13529457771187203,-0.936548813547234,-0.10819348292105023,"[ 1.41320003e-06 -8.98360802e-08  0.00000000e+00  0.00000000e+00
  0.00000000e+00 -3.55517172e-08 -8.98360802e-08  6.49544629e-07
  0.00000000e+00  0.00000000e+00  0.00000000e+00  1.12463729e-07
  0.00000000e+00  0.00000000e+00  0.00000000e+00  0.00000000e+00
  0.00000000e+00  0.00000000e+00  0.00000000e+00  0.00000000e+00
  0.00000000e+00  0.00000000e+00  0.00000000e+00  0.00000000e+00
  0.00000000e+00  0.00000000e+00  0.00000000e+00  0.00000000e+00
  0.00000000e+00  0.00000000e+00 -3.55517172e-08  1.12463729e-07
  0.00000000e+00  0.00000000e+00  0.00000000e+00  2.38035442e-06]","[[-3.53263268e-05  2.28454112e-05]
 [ 4.30962224e-06 -4.32960188e-04]]",[],0.0,0.0
1787214843.5063987,0.13529457771187203,-0.936548813547234,-0.10819348292105023,"[ 1.41320003e-06 -8.98360802e-08  0.00000000e+00  0.00000000e+00
  0.00000000e+00 -3.55517172e-08 -8.98360802e-08  6.49544629e-07
  0.00000000e+00  0.00000000e+00  0.00000000e+00  1.12463729e-07
  0.00000000e+00  0.00000000e+00  0.00000000e+00  0.00000000e+00
  0.00000000e+00  0.00000000e+00  0.00000000e+00  0.00000000e+00
  0.00000000e+00  0.00000000e+00  0.00000000e+00  0.00000000e+00
  0.00000000e+00  0.00000000e+00  0.00000000e+00  0.00000000e+00
  0.00000000e+00  0.00000000e+00 -3.55517172e-08  1.12463729e-07
  0.00000000e+00  0.00000000e+00  0.00000000e+00  2.38035442e-06]","[[-3.53263268e-05  2.28454112e-05]
 [ 4.30962224e-06 -4.32960188e-04]]",[],0.0,0.0
1787214843.5560105,0.13529457771187203,-0.936548813547234,-0.10819348292105023,"[ 1.41320003e-06 -8.98360802e-08  0.00000000e+00  0.00000000e+00
  0.00000000e+00 -3.55517172e-08 -8.98360802e-08  6.49544629e-07
  0.00000000e+00  0.00000000e+00  0.00000000e+00  1.12463729e-07
  0.00000000e+00  0.00000000e+00  0.00000000e+00  0.00000000e+00
  0.00000000e+00  0.00000000e+00  0.00000000e+00  0.00000000e+00
  0.00000000e+00  0.00000000e+00  0.00000000e+00  0.00000000e+00
  0.00000000e+00  0.00000000e+00  0.00000000e+00  0.00000000e+00
  0.00000000e+00  0.00000000e+00 -3.55517172e-08  1.12463729e-07
  0.00000000e+00  0.00000000e+00  0.00000000e+00  2.38035442e-06]","[[-3.53263268e-05  2.28454112e-05]
 [ 4.30962224e-06 -4.32960188e-04]]",[],0.0,0.0
1787214843.609482,0.13529457771187203,-0.936548813547234,-0.10819348292105023,"[ 1.41320003e-06 -8.98360802e-08  0.00000000e+00  0.00000000e+00
  0.00000000e+00 -3.55517172e-08 -8.98360802e-08  6.49544629e-07
  0.00000000e+00  0.00000000e+00  0.00000000e+00  1.12463729e-07
  0.00000000e+00  0.00000000e+00  0.00000000e+00  0.00000000e+00
  0.00000000e+00  0.00000000e+00  0.00000000e+00  0.00000000e+00
  0.00000000e+00  0.00000000e+00  0.00000000e+00  0.00000000e+00
  0.00000000e+00  0.00000000e+00  0.00000000e+00  0.00000000e+00
  0.00000000e+00  0.00000000e+00 -3.55517172e-08  1.12463729e-07
  0.00000000e+00  0.00000000e+00  0.00000000e+00  2.38035442e-06]","[[-3.53263268e-05  2.28454112e-05]
 [ 4.30962224e-06 -4.32960188e-04]]",[],0.0,0.0
1787214843.6818533,0.13529457771187203,-0.936548813547234,-0.10819348292105023,"[ 1.41320003e-06 -8.98360802e-08  0.00000000e+00  0.00000000e+00
  0.00000000e+00 -3.55517172e-08 -8.98360802e-08  6.49544629e-07
  0.00000000e+00  0.00000000e+00  0.00000000e+00  1.12463729e-07
  0.00000000e+00  0.00000000e+00  0.00000000e+00  0.00000000e+00
  0.00000000e+00  0.00000000e+00  0.00000000e+00  0.00000000e+00
  0.00000000e+00  0.00000000e+00  0.00000000e+00  0.00000000e+00
  0.00000000e+00  0.00000000e+00  0.00000000e+00  0.00000000e+00
  0.00000000e+00  0.00000000e+00 -3.55517172e-08  1.12463729e-07
  0.00000000e+00  0.00000000e+00  0.00000000e+00  2.38035442e-06]","[[-3.53263268e-05  2.28454112e-05]
 [ 4.30962224e-06 -4.32960188e-04]]",[],0.0,0.0
1787214843.7061555,0.13529457771187203,-0.936548813547234,-0.10819348292105023,"[ 1.41320003e-06 -8.98360802e-08  0.00000000e+00  0.00000000e+00
  0.00000000e+00 -3.55517172e-08 -8.98360802e-08  6.49544629e-07
  0.00000000e+00  0.00000000e+00  0.00000000e+00  1.12463729e-07
  0.00000000e+00  0.00000000e+00  0.00000000e+00  0.00000000e+00
  0.00000000e+00  0.00000000e+00  0.00000000e+00  0.00000000e+00
  0.00000000e+00  0.00000000e+00  0.00000000e+00  0.00000000e+00
  0.00000000e+00  0.00000000e+00  0.00000000e+00  0.00000000e+00
  0.00000000e+00  0.00000000e+00 -3.55517172e-08  1.12463729e-07
  0.00000000e+00  0.00000000e+00  0.00000000e+00  2.38035442e-06]","[[-3.53263268e-05  2.28454112e-05]
 [ 4.30962224e-06 -4.32960188e-04]]",[],0.0,0.0
1787214843.7561042,0.13529457771187203,-0.936548813547234,-0.10819348292105023,"[ 1.41320003e-06 -8.98360802e-08  0.00000000e+00  0.00000000e+00
  0.00000000e+00 -3.55517172e-08 -8.98360802e-08  6.49544629e-07
  0.00000000e+00  0.00000000e+00  0.00000000e+00  1.12463729e-07
  0.00000000e+00  0.00000000e+00  0.00000000e+00  0.00000000e+00
  0.00000000e+00  0.00000000e+00  0.00000000e+00  0.00000000e+00
  0.00000000e+00  0.00000000e+00  0.00000000e+00  0.00000000e+00
  0.00000000e+00  0.00000000e+00  0.00000000e+00  0.00000000e+00
  0.00000000e+00  0.00000000e+00 -3.55517172e-08  1.12463729e-07
  0.00000000e+00  0.00000000e+00  0.00000000e+00  2.38035442e-06]","[[-3.53263268e-05  2.28454112e-05]
 [ 4.30962224e-06 -4.32960188e-04]]",[],0.0,0.0
1787214843.9288878,0.13529457771187203,-0.936548813547234,-0.10819348292105023,"[ 1.41320003e-06 -8.98360802e-08  0.00000000e+00  0.00000000e+00
  0.00000000e+00 -3.55517172e-08 -8.98360802e-08  6.49544629e-07
  0.00000000e+00  0.00000000e+00  0.00000000e+00  1.12463729e-07
  0.00000000e+00  0.00000000e+00  0.00000000e+00  0.00000000e+00
  0.00000000e+00  0.00000000e+00  0.00000000e+00  0.00000000e+00
  0.00000000e+00  0.00000000e+00  0.00000000e+00  0.00000000e+00
  0.00000000e+00  0.00000000e+00  0.00000000e+00  0.00000000e+00
  0.00000000e+00  0.00000000e+00 -3.55517172e-08  1.12463729e-07
  0.00000000e+00  0.00000000e+00  0.00000000e+00  2.38035442e-06]","[[-3.53263268e-05  2.28454112e-05]
 [ 4.30962224e-06 -4.32960188e-04]]",[],0.0,0.0
1787214844.0809717,0.13375826993982606,-0.9369450110704204,-0.11772578302720937,"[ 1.42266412e-06 -9.69518298e-08  0.00000000e+00  0.00000000e+00
  0.00000000e+00 -5.03743450e-08 -9.69518298e-08  6.28820749e-07
  0.00000000e+00  0.00000000e+00  0.00000000e+00  1.06843396e-07
  0.00000000e+00  0.00000000e+00  0.00000000e+00  0.00000000e+00
  0.00000000e+00  0.00000000e+00  0.00000000e+00  0.00000000e+00
  0.00000000e+00  0.00000000e+00  0.00000000e+00  0.00000000e+00
  0.00000000e+00  0.00000000e+00  0.00000000e+00  0.00000000e+00
  0.00000000e+00  0.00000000e+00 -5.03743450e-08  1.06843396e-07
  0.00000000e+00  0.00000000e+00  0.00000000e+00  2.47371475e-06]","[[-3.55715407e-05  3.51099021e-05]
 [ 4.50258125e-06 -4.89647832e-04]]",[],0.0,0.0
1787214844.3698611,0.13375826993982606,-0.9369450110704204,-0.11772578302720937,"[ 1.42266412e-06 -9.69518298e-08  0.00000000e+00  0.00000000e+00
  0.00000000e+00 -5.03743450e-08 -9.69518298e-08  6.28820749e-07
  0.00000000e+00  0.00000000e+00  0.00000000e+00  1.06843396e-07
  0.00000000e+00  0.00000000e+00  0.00000000e+00  0.00000000e+00
  0.00000000e+00  0.00000000e+00  0.00000000e+00  0.00000000e+00
  0.00000000e+00  0.00000000e+00  0.00000000e+00  0.00000000e+00
  0.00000000e+00  0.00000000e+00  0.00000000e+00  0.00000000e+00
  0.00000000e+00  0.00000000e+00 -5.03743450e-08  1.06843396e-07
  0.00000000e+00  0.00000000e+00  0.00000000e+00  2.47371475e-06]","[[-3.55715407e-05  3.51099021e-05]
 [ 4.50258125e-06 -4.89647832e-04]]",[],0.0,0.0
1787214844.777698,0.132542466571732,-0.9372624407423761,-0.1280728124379387,"[ 1.40622771e-06 -1.01942796e-07  0.00000000e+00  0.00000000e+00
  0.00000000e+00 -4.03930162e-08 -1.01942796e-07  6.09249970e-07
  0.00000000e+00  0.00000000e+00  0.00000000e+00  1.01828373e-07
  0.00000000e+00  0.00000000e+00  0.00000000e+00  0.00000000e+00
  0.00000000e+00  0.00000000e+00  0.00000000e+00  0.00000000e+00
  0.00000000e+00  0.00000000e+00  0.00000000e+00  0.00000000e+00
  0.00000000e+00  0.00000000e+00  0.00000000e+00  0.00000000e+00
  0.00000000e+00  0.00000000e+00 -4.03930162e-08  1.01828373e-07
  0.00000000e+00  0.00000000e+00  0.00000000e+00  2.31776204e-06]","[[-3.49778013e-05  1.47423105e-05]
 [ 5.46969682e-06 -3.41061874e-04]]",[],0.0,0.0
1787214845.142469,0.13098220897406646,-0.9373707522363491,-0.1321372541197592,"[ 1.38209086e-06 -1.06195200e-07  0.00000000e+00  0.00000000e+00
  0.00000000e+00 -3.80553626e-08 -1.06195200e-07  5.91693786e-07
  0.00000000e+00  0.00000000e+00  0.00000000e+00  1.02930076e-07
  0.00000000e+00  0.00000000e+00  0.00000000e+00  0.00000000e+00
  0.00000000e+00  0.00000000e+00  0.00000000e+00  0.00000000e+00
  0.00000000e+00  0.00000000e+00  0.00000000e+00  0.00000000e+00
  0.00000000e+00  0.00000000e+00  0.00000000e+00  0.00000000e+00
  0.00000000e+00  0.00000000e+00 -3.80553626e-08  1.02930076e-07
  0.00000000e+00  0.00000000e+00  0.00000000e+00  2.26666134e-06]","[[-3.45772163e-05  2.67780681e-05]
 [ 4.74042183e-06 -3.93774920e-04]]",[],0.0,0.0
1787214845.5297348,0.1298966713449335,-0.9377601237821169,-0.13928609811226522,"[ 1.35510294e-06 -1.08818396e-07  0.00000000e+00  0.00000000e+00
  0.00000000e+00 -4.89859623e-08 -1.08818396e-07  5.75642895e-07
  0.00000000e+00  0.00000000e+00  0.00000000e+00  1.01428032e-07
  0.00000000e+00  0.00000000e+00  0.00000000e+00  0.00000000e+00
  0.00000000e+00  0.00000000e+00  0.00000000e+00  0.00000000e+00
  0.00000000e+00  0.00000000e+00  0.00000000e+00  0.00000000e+00
  0.00000000e+00  0.00000000e+00  0.00000000e+00  0.00000000e+00
  0.00000000e+00  0.00000000e+00 -4.89859623e-08  1.01428032e-07
  0.00000000e+00  0.00000000e+00  0.00000000e+00  2.24161350e-06]","[[-3.38164243e-05  2.77661981e-05]
 [ 5.25638149e-06 -3.82066133e-04]]",[],0.0,0.0
1787214845.8901443,0.12894241332493744,-0.9378645728428534,-0.14305117933466382,"[ 1.33672200e-06 -1.12796357e-07  0.00000000e+00  0.00000000e+00
  0.00000000e+00 -4.22885602e-08 -1.12796357e-07  5.60283364e-07
  0.00000000e+00  0.00000000e+00  0.00000000e+00  9.64895271e-08
  0.00000000e+00  0.00000000e+00  0.00000000e+00  0.00000000e+00
  0.00000000e+00  0.00000000e+00  0.00000000e+00  0.00000000e+00
  0.00000000e+00  0.00000000e+00  0.00000000e+00  0.00000000e+00
  0.00000000e+00  0.00000000e+00  0.00000000e+00  0.00000000e+00
  0.00000000e+00  0.00000000e+00 -4.22885602e-08  9.64895271e-08
  0.00000000e+00  0.00000000e+00  0.00000000e+00  2.26095111e-06]","[[-3.34340963e-05  1.61535340e-05]
 [ 5.04850939e-06 -4.33724879e-04]]",[],0.0,0.0
1787214846.2802255,0.12812561495094243,-0.9380774920942647,-0.14832683181253167,"[ 1.31248609e-06 -1.15438289e-07  0.00000000e+00  0.00000000e+00
  0.00000000e+00 -4.41043260e-08 -1.15438289e-07  5.46010003e-07
  0.00000000e+00  0.00000000e+00  0.00000000e+00  9.20187230e-08
  0.00000000e+00  0.00000000e+00  0.00000000e+00  0.00000000e+00
  0.00000000e+00  0.00000000e+00  0.00000000e+00  0.00000000e+00
  0.00000000e+00  0.00000000e+00  0.00000000e+00  0.00000000e+00
  0.00000000e+00  0.00000000e+00  0.00000000e+00  0.00000000e+00
  0.00000000e+00  0.00000000e+00 -4.41043260e-08  9.20187230e-08
  0.00000000e+00  0.00000000e+00  0.00000000e+00  2.21723433e-06]","[[-3.28525342e-05  3.56528284e-05]
 [ 5.02548624e-06 -3.55925254e-04]]",[],0.0,0.0
1787214846.6652892,0.12641112356630993,-0.9382552531274304,-0.15797602636083274,"[ 1.29581689e-06 -1.18420379e-07  0.00000000e+00  0.00000000e+00
  0.00000000e+00 -4.89485931e-08 -1.18420379e-07  5.32025991e-07
  0.00000000e+00  0.00000000e+00  0.00000000e+00  9.12983261e-08
  0.00000000e+00  0.00000000e+00  0.00000000e+00  0.00000000e+00
  0.00000000e+00  0.00000000e+00  0.00000000e+00  0.00000000e+00
  0.00000000e+00  0.00000000e+00  0.00000000e+00  0.00000000e+00
  0.00000000e+00  0.00000000e+00  0.00000000e+00  0.00000000e+00
  0.00000000e+00  0.00000000e+00 -4.89485931e-08  9.12983261e-08
  0.00000000e+00  0.00000000e+00  0.00000000e+00  2.22474786e-06]","[[-3.24198824e-05  3.90082472e-05]
 [ 5.21333809e-06 -3.48120944e-04]]",[],0.0,0.0
1787214847.0467312,0.12466999657760246,-0.9384257706263759,-0.16117869829968878,"[ 1.27800497e-06 -1.22422127e-07  0.00000000e+00  0.00000000e+00
  0.00000000e+00 -4.06832752e-08 -1.22422127e-07  5.19128112e-07
  0.00000000e+00  0.00000000e+00  0.00000000e+00  8.62057464e-08
  0.00000000e+00  0.00000000e+00  0.00000000e+00  0.00000000e+00
  0.00000000e+00  0.00000000e+00  0.00000000e+00  0.00000000e+00
  0.00000000e+00  0.00000000e+00  0.00000000e+00  0.00000000e+00
  0.00000000e+00  0.00000000e+00  0.00000000e+00  0.00000000e+00
  0.00000000e+00  0.00000000e+00 -4.06832752e-08  8.62057464e-08
  0.00000000e+00  0.00000000e+00  0.00000000e+00  2.18737357e-06]","[[-3.17732253e-05  1.32764770e-05]
 [ 6.02833157e-06 -2.83988322e-04]]",[],0.0,0.0
1787214847.4778793,0.12211481809514894,-0.938624910515609,-0.16912637079592405,"[ 1.25987167e-06 -1.25372119e-07  0.00000000e+00  0.00000000e+00
  0.00000000e+00 -4.12106580e-08 -1.25372119e-07  5.06811659e-07
  0.00000000e+00  0.00000000e+00  0.00000000e+00  9.14203064e-08
  0.00000000e+00  0.00000000e+00  0.00000000e+00  0.00000000e+00
  0.00000000e+00  0.00000000e+00  0.00000000e+00  0.00000000e+00
  0.00000000e+00  0.00000000e+00  0.00000000e+00  0.00000000e+00
  0.00000000e+00  0.00000000e+00  0.00000000e+00  0.00000000e+00
  0.00000000e+00  0.00000000e+00 -4.12106580e-08  9.14203064e-08
  0.00000000e+00  0.00000000e+00  0.00000000e+00  2.20162537e-06]","[[-3.15277755e-05  2.34506102e-05]
 [ 5.44635092e-06 -3.40242646e-04]]",[],0.0,0.0
1787214847.8703458,0.11987630408994886,-0.9388099304520012,-0.17715639718188883,"[ 1.25825815e-06 -1.31096002e-07  0.00000000e+00  0.00000000e+00
  0.00000000e+00 -3.35719743e-08 -1.31096002e-07  4.95519769e-07
  0.00000000e+00  0.00000000e+00  0.00000000e+00  8.30865640e-08
  0.00000000e+00  0.00000000e+00  0.00000000e+00  0.00000000e+00
  0.00000000e+00  0.00000000e+00  0.00000000e+00  0.00000000e+00
  0.00000000e+00  0.00000000e+00  0.00000000e+00  0.00000000e+00
  0.00000000e+00  0.00000000e+00  0.00000000e+00  0.00000000e+00
  0.00000000e+00  0.00000000e+00 -3.35719743e-08  8.30865640e-08
  0.00000000e+00  0.00000000e+00  0.00000000e+00  2.28264538e-06]","[[-3.15224418e-05  1.39561676e-05]
 [ 5.50071531e-06 -3.24908380e-04]]",[],0.0,0.0
1787214848.2904983,0.11734576787455399,-0.9391237698771319,-0.18119426417613216,"[ 1.24280620e-06 -1.34933586e-07  0.00000000e+00  0.00000000e+00
  0.00000000e+00 -4.54305426e-08 -1.34933586e-07  4.85094273e-07
  0.00000000e+00  0.00000000e+00  0.00000000e+00  9.20852138e-08
  0.00000000e+00  0.00000000e+00  0.00000000e+00  0.00000000e+00
  0.00000000e+00  0.00000000e+00  0.00000000e+00  0.00000000e+00
  0.00000000e+00  0.00000000e+00  0.00000000e+00  0.00000000e+00
  0.00000000e+00  0.00000000e+00  0.00000000e+00  0.00000000e+00
  0.00000000e+00  0.00000000e+00 -4.54305426e-08  9.20852138e-08
  0.00000000e+00  0.00000000e+00  0.00000000e+00  2.27633073e-06]","[[-3.09758345e-05  1.03034517e-05]
 [ 6.17434028e-06 -3.23645397e-04]]",[],0.0,0.0
1787214848.6801121,0.11445558784640125,-0.93952534438845,-0.1890042206296041,"[ 1.23460319e-06 -1.39895776e-07  0.00000000e+00  0.00000000e+00
  0.00000000e+00 -4.38898379e-08 -1.39895776e-07  4.75268245e-07
  0.00000000e+00  0.00000000e+00  0.00000000e+00  8.92263461e-08
  0.00000000e+00  0.00000000e+00  0.00000000e+00  0.00000000e+00
  0.00000000e+00  0.00000000e+00  0.00000000e+00  0.00000000e+00
  0.00000000e+00  0.00000000e+00  0.00000000e+00  0.00000000e+00
  0.00000000e+00  0.00000000e+00  0.00000000e+00  0.00000000e+00
  0.00000000e+00  0.00000000e+00 -4.38898379e-08  8.92263461e-08
  0.00000000e+00  0.00000000e+00  0.00000000e+00  2.28808232e-06]","[[-3.09005176e-05  2.29983726e-05]
 [ 5.95213480e-06 -3.17563188e-04]]",[],0.0,0.0
1787214849.0755723,0.1122472032467827,-0.9399317982892864,-0.19857833803599118,"[ 1.22674215e-06 -1.44111823e-07  0.00000000e+00  0.00000000e+00
  0.00000000e+00 -3.63441924e-08 -1.44111823e-07  4.66413132e-07
  0.00000000e+00  0.00000000e+00  0.00000000e+00  8.37782002e-08
  0.00000000e+00  0.00000000e+00  0.00000000e+00  0.00000000e+00
  0.00000000e+00  0.00000000e+00  0.00000000e+00  0.00000000e+00
  0.00000000e+00  0.00000000e+00  0.00000000e+00  0.00000000e+00
  0.00000000e+00  0.00000000e+00  0.00000000e+00  0.00000000e+00
  0.00000000e+00  0.00000000e+00 -3.63441924e-08  8.37782002e-08
  0.00000000e+00  0.00000000e+00  0.00000000e+00  2.30551438e-06]","[[-3.07290272e-05  1.24464037e-05]
 [ 6.01480547e-06 -3.04842470e-04]]",[],0.0,0.0
1787214849.5153422,0.1102400906725301,-0.9402182270706737,-0.20569259620769342,"[ 1.22011352e-06 -1.48503544e-07  0.00000000e+00  0.00000000e+00
  0.00000000e+00 -3.41089020e-08 -1.48503544e-07  4.57939765e-07
  0.00000000e+00  0.00000000e+00  0.00000000e+00  8.14001796e-08
  0.00000000e+00  0.00000000e+00  0.00000000e+00  0.00000000e+00
  0.00000000e+00  0.00000000e+00  0.00000000e+00  0.00000000e+00
  0.00000000e+00  0.00000000e+00  0.00000000e+00  0.00000000e+00
  0.00000000e+00  0.00000000e+00  0.00000000e+00  0.00000000e+00
  0.00000000e+00  0.00000000e+00 -3.41089020e-08  8.14001796e-08
  0.00000000e+00  0.00000000e+00  0.00000000e+00  2.35555499e-06]","[[-3.04978820e-05 -2.18264040e-06]
 [ 6.36394234e-06 -2.94129467e-04]]",[],0.0,0.0
1787214849.950883,0.10842748020195786,-0.9404010988471324,-0.21202872120207014,"[ 1.22148540e-06 -1.54766551e-07  0.00000000e+00  0.00000000e+00
  0.00000000e+00 -3.28127564e-08 -1.54766551e-07  4.50312507e-07
  0.00000000e+00  0.00000000e+00  0.00000000e+00  7.62468894e-08
  0.00000000e+00  0.00000000e+00  0.00000000e+00  0.00000000e+00
  0.00000000e+00  0.00000000e+00  0.00000000e+00  0.00000000e+00
  0.00000000e+00  0.00000000e+00  0.00000000e+00  0.00000000e+00
  0.00000000e+00  0.00000000e+00  0.00000000e+00  0.00000000e+00
  0.00000000e+00  0.00000000e+00 -3.28127564e-08  7.62468894e-08
  0.00000000e+00  0.00000000e+00  0.00000000e+00  2.34382797e-06]","[[-3.05006379e-05  2.98301863e-06]
 [ 6.64484357e-06 -2.48264983e-04]]",[],0.0,0.0
1787214850.3632922,0.1065477757159184,-0.9406393504030744,-0.2201401614219809,"[ 1.22519685e-06 -1.61360017e-07  0.00000000e+00  0.00000000e+00
  0.00000000e+00 -1.83920134e-08 -1.61360017e-07  4.43100545e-07
  0.00000000e+00  0.00000000e+00  0.00000000e+00  7.23234970e-08
  0.00000000e+00  0.00000000e+00  0.00000000e+00  0.00000000e+00
  0.00000000e+00  0.00000000e+00  0.00000000e+00  0.00000000e+00
  0.00000000e+00  0.00000000e+00  0.00000000e+00  0.00000000e+00
  0.00000000e+00  0.00000000e+00  0.00000000e+00  0.00000000e+00
  0.00000000e+00  0.00000000e+00 -1.83920134e-08  7.23234970e-08
  0.00000000e+00  0.00000000e+00  0.00000000e+00  2.36545480e-06]","[[-3.06845975e-05 -2.57912181e-05]
 [ 6.62544912e-06 -2.72112815e-04]]",[],0.0,0.0
1787214850.7341256,0.10439410033655643,-0.9407007334872168,-0.2278702992453621,"[ 1.21950438e-06 -1.66515562e-07  0.00000000e+00  0.00000000e+00
  0.00000000e+00 -1.79590754e-08 -1.66515562e-07  4.35977898e-07
  0.00000000e+00  0.00000000e+00  0.00000000e+00  7.20328558e-08
  0.00000000e+00  0.00000000e+00  0.00000000e+00  0.00000000e+00
  0.00000000e+00  0.00000000e+00  0.00000000e+00  0.00000000e+00
  0.00000000e+00  0.00000000e+00  0.00000000e+00  0.00000000e+00
  0.00000000e+00  0.00000000e+00  0.00000000e+00  0.00000000e+00
  0.00000000e+00  0.00000000e+00 -1.79590754e-08  7.20328558e-08
  0.00000000e+00  0.00000000e+00  0.00000000e+00  2.27936702e-06]","[[-3.05597517e-05 -2.66123101e-05]
 [ 6.75681026e-06 -2.68135688e-04]]",[],0.0,0.0
1787214851.1891658,0.10276937986414067,-0.9408484776936444,-0.2325641741432105,"[ 1.20639291e-06 -1.70161966e-07  0.00000000e+00  0.00000000e+00
  0.00000000e+00 -2.32509746e-08 -1.70161966e-07  4.28896573e-07
  0.00000000e+00  0.00000000e+00  0.00000000e+00  7.29744727e-08
  0.00000000e+00  0.00000000e+00  0.00000000e+00  0.00000000e+00
  0.00000000e+00  0.00000000e+00  0.00000000e+00  0.00000000e+00
  0.00000000e+00  0.00000000e+00  0.00000000e+00  0.00000000e+00
  0.00000000e+00  0.00000000e+00  0.00000000e+00  0.00000000e+00
  0.00000000e+00  0.00000000e+00 -2.32509746e-08  7.29744727e-08
  0.00000000e+00  0.00000000e+00  0.00000000e+00  2.22250216e-06]","[[-3.00832450e-05 -3.61171924e-05]
 [ 7.20783272e-06 -2.61635844e-04]]",[],0.0,0.0
1787214851.6004195,0.10061754431140461,-0.9408735243239165,-0.23691729063752653,"[ 1.21008148e-06 -1.77848011e-07  0.00000000e+00  0.00000000e+00
  0.00000000e+00 -1.64569862e-08 -1.77848011e-07  4.23197794e-07
  0.00000000e+00  0.00000000e+00  0.00000000e+00  6.86012704e-08
  0.00000000e+00  0.00000000e+00  0.00000000e+00  0.00000000e+00
  0.00000000e+00  0.00000000e+00  0.00000000e+00  0.00000000e+00
  0.00000000e+00  0.00000000e+00  0.00000000e+00  0.00000000e+00
  0.00000000e+00  0.00000000e+00  0.00000000e+00  0.00000000e+00
  0.00000000e+00  0.00000000e+00 -1.64569862e-08  6.86012704e-08
  0.00000000e+00  0.00000000e+00  0.00000000e+00  2.34693171e-06]","[[-3.03524577e-05 -3.06394581e-05]
 [ 7.08184731e-06 -2.54719439e-04]]",[],0.0,0.0
1787214851.9916775,0.0992118956602474,-0.9408808268973088,-0.23645660645873431,"[ 1.20668260e-06 -1.82867102e-07  0.00000000e+00  0.00000000e+00
  0.00000000e+00 -2.13260808e-08 -1.82867102e-07  4.17365327e-07
  0.00000000e+00  0.00000000e+00  0.00000000e+00  6.55054130e-08
  0.00000000e+00  0.00000000e+00  0.00000000e+00  0.00000000e+00
  0.00000000e+00  0.00000000e+00  0.00000000e+00  0.00000000e+00
  0.00000000e+00  0.00000000e+00  0.00000000e+00  0.00000000e+00
  0.00000000e+00  0.00000000e+00  0.00000000e+00  0.00000000e+00
  0.00000000e+00  0.00000000e+00 -2.13260808e-08  6.55054130e-08
  0.00000000e+00  0.00000000e+00  0.00000000e+00  2.28327305e-06]","[[-3.02996997e-05 -8.91875517e-06]
 [ 7.17411535e-06 -2.17305766e-04]]",[],0.0,0.0
1787214852.3823473,0.0974607891580125,-0.9408484629916924,-0.23909655700184237,"[ 1.19808257e-06 -1.85926731e-07  0.00000000e+00  0.00000000e+00
  0.00000000e+00 -2.24242766e-08 -1.85926731e-07  4.11225896e-07
  0.00000000e+00  0.00000000e+00  0.00000000e+00  7.14896552e-08
  0.00000000e+00  0.00000000e+00  0.00000000e+00  0.00000000e+00
  0.00000000e+00  0.00000000e+00  0.00000000e+00  0.00000000e+00
  0.00000000e+00  0.00000000e+00  0.00000000e+00  0.00000000e+00
  0.00000000e+00  0.00000000e+00  0.00000000e+00  0.00000000e+00
  0.00000000e+00  0.00000000e+00 -2.24242766e-08  7.14896552e-08
  0.00000000e+00  0.00000000e+00  0.00000000e+00  2.26695291e-06]","[[-3.01819730e-05 -6.65590564e-06]
 [ 7.01283679e-06 -2.56858519e-04]]",[],0.0,0.0
1787214852.4567,0.095631133069417,-0.940875566757926,-0.24201287272019648,"[ 1.18749947e-06 -1.89216701e-07  0.00000000e+00  0.00000000e+00
  0.00000000e+00 -2.97122616e-08 -1.89216701e-07  4.05641614e-07
  0.00000000e+00  0.00000000e+00  0.00000000e+00  6.85090345e-08
  0.00000000e+00  0.00000000e+00  0.00000000e+00  0.00000000e+00
  0.00000000e+00  0.00000000e+00  0.00000000e+00  0.00000000e+00
  0.00000000e+00  0.00000000e+00  0.00000000e+00  0.00000000e+00
  0.00000000e+00  0.00000000e+00  0.00000000e+00  0.00000000e+00
  0.00000000e+00  0.00000000e+00 -2.97122616e-08  6.85090345e-08
  0.00000000e+00  0.00000000e+00  0.00000000e+00  2.22543463e-06]","[[-2.99010649e-05  5.31614385e-07]
 [ 7.19163235e-06 -2.47471163e-04]]",[],0.0,0.0
1787214852.8367584,0.095631133069417,-0.940875566757926,-0.24201287272019648,"[ 1.18749947e-06 -1.89216701e-07  0.00000000e+00  0.00000000e+00
  0.00000000e+00 -2.97122616e-08 -1.89216701e-07  4.05641614e-07
  0.00000000e+00  0.00000000e+00  0.00000000e+00  6.85090345e-08
  0.00000000e+00  0.00000000e+00  0.00000000e+00  0.00000000e+00
  0.00000000e+00  0.00000000e+00  0.00000000e+00  0.00000000e+00
  0.00000000e+00  0.00000000e+00  0.00000000e+00  0.00000000e+00
  0.00000000e+00  0.00000000e+00  0.00000000e+00  0.00000000e+00
  0.00000000e+00  0.00000000e+00 -2.97122616e-08  6.85090345e-08
  0.00000000e+00  0.00000000e+00  0.00000000e+00  2.22543463e-06]","[[-2.99010649e-05  5.31614385e-07]
 [ 7.19163235e-06 -2.47471163e-04]]",[],0.0,0.0
1787214853.024255,0.09416466456355774,-0.9408758677232378,-0.24173080562740834,"[ 1.19896077e-06 -1.97736988e-07  0.00000000e+00  0.00000000e+00
  0.00000000e+00 -1.35654685e-08 -1.97736988e-07  4.01418152e-07
  0.00000000e+00  0.00000000e+00  0.00000000e+00  6.35550608e-08
  0.00000000e+00  0.00000000e+00  0.00000000e+00  0.00000000e+00
  0.00000000e+00  0.00000000e+00  0.00000000e+00  0.00000000e+00
  0.00000000e+00  0.00000000e+00  0.00000000e+00  0.00000000e+00
  0.00000000e+00  0.00000000e+00  0.00000000e+00  0.00000000e+00
  0.00000000e+00  0.00000000e+00 -1.35654685e-08  6.35550608e-08
  0.00000000e+00  0.00000000e+00  0.00000000e+00  2.41575409e-06]","[[-3.02105100e-05 -2.74877278e-05]
 [ 7.43106847e-06 -2.35810309e-04]]",[],0.0,0.0
1787214853.297248,0.09416466456355774,-0.9408758677232378,-0.24173080562740834,"[ 1.19896077e-06 -1.97736988e-07  0.00000000e+00  0.00000000e+00
  0.00000000e+00 -1.35654685e-08 -1.97736988e-07  4.01418152e-07
  0.00000000e+00  0.00000000e+00  0.00000000e+00  6.35550608e-08
  0.00000000e+00  0.00000000e+00  0.00000000e+00  0.00000000e+00
  0.00000000e+00  0.00000000e+00  0.00000000e+00  0.00000000e+00
  0.00000000e+00  0.00000000e+00  0.00000000e+00  0.00000000e+00
  0.00000000e+00  0.00000000e+00  0.00000000e+00  0.00000000e+00
  0.00000000e+00  0.00000000e+00 -1.35654685e-08  6.35550608e-08
  0.00000000e+00  0.00000000e+00  0.00000000e+00  2.41575409e-06]","[[-3.02105100e-05 -2.74877278e-05]
 [ 7.43106847e-06 -2.35810309e-04]]",[],0.0,0.0
1787214853.3153725,0.09213241970162254,-0.9408098468574232,-0.25032514278651163,"[ 1.20951067e-06 -2.05365555e-07  0.00000000e+00  0.00000000e+00
  0.00000000e+00 -1.95869506e-08 -2.05365555e-07  3.97308274e-07
  0.00000000e+00  0.00000000e+00  0.00000000e+00  6.12310005e-08
  0.00000000e+00  0.00000000e+00  0.00000000e+00  0.00000000e+00
  0.00000000e+00  0.00000000e+00  0.00000000e+00  0.00000000e+00
  0.00000000e+00  0.00000000e+00  0.00000000e+00  0.00000000e+00
  0.00000000e+00  0.00000000e+00  0.00000000e+00  0.00000000e+00
  0.00000000e+00  0.00000000e+00 -1.95869506e-08  6.12310005e-08
  0.00000000e+00  0.00000000e+00  0.00000000e+00  2.45125063e-06]","[[-3.02105100e-05 -2.74877278e-05]
 [ 7.43106847e-06 -2.35810309e-04]]",[],0.0,0.0
1787214853.7598343,0.09213241970162254,-0.9408098468574232,-0.25032514278651163,"[ 1.20951067e-06 -2.05365555e-07  0.00000000e+00  0.00000000e+00
  0.00000000e+00 -1.95869506e-08 -2.05365555e-07  3.97308274e-07
  0.00000000e+00  0.00000000e+00  0.00000000e+00  6.12310005e-08
  0.00000000e+00  0.00000000e+00  0.00000000e+00  0.00000000e+00
  0.00000000e+00  0.00000000e+00  0.00000000e+00  0.00000000e+00
  0.00000000e+00  0.00000000e+00  0.00000000e+00  0.00000000e+00
  0.00000000e+00  0.00000000e+00  0.00000000e+00  0.00000000e+00
  0.00000000e+00  0.00000000e+00 -1.95869506e-08  6.12310005e-08
  0.00000000e+00  0.00000000e+00  0.00000000e+00  2.45125063e-06]","[[-3.04654743e-05 -2.30380873e-05]
 [ 7.71071059e-06 -2.28045459e-04]]",[],0.0,0.0
1787214854.2484446,0.09005692113901892,-0.9407034933411755,-0.24902369772098476,"[ 1.21669362e-06 -2.12817815e-07  0.00000000e+00  0.00000000e+00
  0.00000000e+00 -4.10769888e-08 -2.12817815e-07  3.93510711e-07
  0.00000000e+00  0.00000000e+00  0.00000000e+00  6.80830638e-08
  0.00000000e+00  0.00000000e+00  0.00000000e+00  0.00000000e+00
  0.00000000e+00  0.00000000e+00  0.00000000e+00  0.00000000e+00
  0.00000000e+00  0.00000000e+00  0.00000000e+00  0.00000000e+00
  0.00000000e+00  0.00000000e+00  0.00000000e+00  0.00000000e+00
  0.00000000e+00  0.00000000e+00 -4.10769888e-08  6.80830638e-08
  0.00000000e+00  0.00000000e+00  0.00000000e+00  2.41766544e-06]","[[-3.07582698e-05  3.56198507e-05]
 [ 7.68433856e-06 -2.08834188e-04]]",[],0.0,0.0
1787214854.3452764,0.08870887248676396,-0.9406349083784992,-0.25116955188907664,"[ 1.23090257e-06 -2.21058059e-07  0.00000000e+00  0.00000000e+00
  0.00000000e+00 -3.11887145e-08 -2.21058059e-07  3.89756999e-07
  0.00000000e+00  0.00000000e+00  0.00000000e+00  6.45763256e-08
  0.00000000e+00  0.00000000e+00  0.00000000e+00  0.00000000e+00
  0.00000000e+00  0.00000000e+00  0.00000000e+00  0.00000000e+00
  0.00000000e+00  0.00000000e+00  0.00000000e+00  0.00000000e+00
  0.00000000e+00  0.00000000e+00  0.00000000e+00  0.00000000e+00
  0.00000000e+00  0.00000000e+00 -3.11887145e-08  6.45763256e-08
  0.00000000e+00  0.00000000e+00  0.00000000e+00  2.38984541e-06]","[[-3.11447317e-05  8.58110591e-06]
 [ 7.88867119e-06 -2.31715215e-04]]",[],0.0,0.0
1787214854.4461067,0.08870887248676396,-0.9406349083784992,-0.25116955188907664,"[ 1.23090257e-06 -2.21058059e-07  0.00000000e+00  0.00000000e+00
  0.00000000e+00 -3.11887145e-08 -2.21058059e-07  3.89756999e-07
  0.00000000e+00  0.00000000e+00  0.00000000e+00  6.45763256e-08
  0.00000000e+00  0.00000000e+00  0.00000000e+00  0.00000000e+00
  0.00000000e+00  0.00000000e+00  0.00000000e+00  0.00000000e+00
  0.00000000e+00  0.00000000e+00  0.00000000e+00  0.00000000e+00
  0.00000000e+00  0.00000000e+00  0.00000000e+00  0.00000000e+00
  0.00000000e+00  0.00000000e+00 -3.11887145e-08  6.45763256e-08
  0.00000000e+00  0.00000000e+00  0.00000000e+00  2.38984541e-06]","[[-3.11447317e-05  8.58110591e-06]
 [ 7.88867119e-06 -2.31715215e-04]]",[],0.0,0.0
1787214854.456758,0.08870887248676396,-0.9406349083784992,-0.25116955188907664,"[ 1.23090257e-06 -2.21058059e-07  0.00000000e+00  0.00000000e+00
  0.00000000e+00 -3.11887145e-08 -2.21058059e-07  3.89756999e-07
  0.00000000e+00  0.00000000e+00  0.00000000e+00  6.45763256e-08
  0.00000000e+00  0.00000000e+00  0.00000000e+00  0.00000000e+00
  0.00000000e+00  0.00000000e+00  0.00000000e+00  0.00000000e+00
  0.00000000e+00  0.00000000e+00  0.00000000e+00  0.00000000e+00
  0.00000000e+00  0.00000000e+00  0.00000000e+00  0.00000000e+00
  0.00000000e+00  0.00000000e+00 -3.11887145e-08  6.45763256e-08
  0.00000000e+00  0.00000000e+00  0.00000000e+00  2.38984541e-06]","[[-3.11447317e-05  8.58110591e-06]
 [ 7.88867119e-06 -2.31715215e-04]]",[],0.0,0.0
1787214854.5059488,0.08870887248676396,-0.9406349083784992,-0.25116955188907664,"[ 1.23090257e-06 -2.21058059e-07  0.00000000e+00  0.00000000e+00
  0.00000000e+00 -3.11887145e-08 -2.21058059e-07  3.89756999e-07
  0.00000000e+00  0.00000000e+00  0.00000000e+00  6.45763256e-08
  0.00000000e+00  0.00000000e+00  0.00000000e+00  0.00000000e+00
  0.00000000e+00  0.00000000e+00  0.00000000e+00  0.00000000e+00
  0.00000000e+00  0.00000000e+00  0.00000000e+00  0.00000000e+00
  0.00000000e+00  0.00000000e+00  0.00000000e+00  0.00000000e+00
  0.00000000e+00  0.00000000e+00 -3.11887145e-08  6.45763256e-08
  0.00000000e+00  0.00000000e+00  0.00000000e+00  2.38984541e-06]","[[-3.11447317e-05  8.58110591e-06]
 [ 7.88867119e-06 -2.31715215e-04]]",[],0.0,0.0
1787214854.5590172,0.08870887248676396,-0.9406349083784992,-0.25116955188907664,"[ 1.23090257e-06 -2.21058059e-07  0.00000000e+00  0.00000000e+00
  0.00000000e+00 -3.11887145e-08 -2.21058059e-07  3.89756999e-07
  0.00000000e+00  0.00000000e+00  0.00000000e+00  6.45763256e-08
  0.00000000e+00  0.00000000e+00  0.00000000e+00  0.00000000e+00
  0.00000000e+00  0.00000000e+00  0.00000000e+00  0.00000000e+00
  0.00000000e+00  0.00000000e+00  0.00000000e+00  0.00000000e+00
  0.00000000e+00  0.00000000e+00  0.00000000e+00  0.00000000e+00
  0.00000000e+00  0.00000000e+00 -3.11887145e-08  6.45763256e-08
  0.00000000e+00  0.00000000e+00  0.00000000e+00  2.38984541e-06]","[[-3.11447317e-05  8.58110591e-06]
 [ 7.88867119e-06 -2.31715215e-04]]",[],0.0,0.0
1787214854.6177874,0.08870887248676396,-0.9406349083784992,-0.25116955188907664,"[ 1.23090257e-06 -2.21058059e-07  0.00000000e+00  0.00000000e+00
  0.00000000e+00 -3.11887145e-08 -2.21058059e-07  3.89756999e-07
  0.00000000e+00  0.00000000e+00  0.00000000e+00  6.45763256e-08
  0.00000000e+00  0.00000000e+00  0.00000000e+00  0.00000000e+00
  0.00000000e+00  0.00000000e+00  0.00000000e+00  0.00000000e+00
  0.00000000e+00  0.00000000e+00  0.00000000e+00  0.00000000e+00
  0.00000000e+00  0.00000000e+00  0.00000000e+00  0.00000000e+00
  0.00000000e+00  0.00000000e+00 -3.11887145e-08  6.45763256e-08
  0.00000000e+00  0.00000000e+00  0.00000000e+00  2.38984541e-06]","[[-3.11447317e-05  8.58110591e-06]
 [ 7.88867119e-06 -2.31715215e-04]]",[],0.0,0.0
1787214854.6628032,0.08870887248676396,-0.9406349083784992,-0.25116955188907664,"[ 1.23090257e-06 -2.21058059e-07  0.00000000e+00  0.00000000e+00
  0.00000000e+00 -3.11887145e-08 -2.21058059e-07  3.89756999e-07
  0.00000000e+00  0.00000000e+00  0.00000000e+00  6.45763256e-08
  0.00000000e+00  0.00000000e+00  0.00000000e+00  0.00000000e+00
  0.00000000e+00  0.00000000e+00  0.00000000e+00  0.00000000e+00
  0.00000000e+00  0.00000000e+00  0.00000000e+00  0.00000000e+00
  0.00000000e+00  0.00000000e+00  0.00000000e+00  0.00000000e+00
  0.00000000e+00  0.00000000e+00 -3.11887145e-08  6.45763256e-08
  0.00000000e+00  0.00000000e+00  0.00000000e+00  2.38984541e-06]","[[-3.11447317e-05  8.58110591e-06]
 [ 7.88867119e-06 -2.31715215e-04]]",[],0.0,0.0
1787214854.7122962,0.08870887248676396,-0.9406349083784992,-0.25116955188907664,"[ 1.23090257e-06 -2.21058059e-07  0.00000000e+00  0.00000000e+00
  0.00000000e+00 -3.11887145e-08 -2.21058059e-07  3.89756999e-07
  0.00000000e+00  0.00000000e+00  0.00000000e+00  6.45763256e-08
  0.00000000e+00  0.00000000e+00  0.00000000e+00  0.00000000e+00
  0.00000000e+00  0.00000000e+00  0.00000000e+00  0.00000000e+00
  0.00000000e+00  0.00000000e+00  0.00000000e+00  0.00000000e+00
  0.00000000e+00  0.00000000e+00  0.00000000e+00  0.00000000e+00
  0.00000000e+00  0.00000000e+00 -3.11887145e-08  6.45763256e-08
  0.00000000e+00  0.00000000e+00  0.00000000e+00  2.38984541e-06]","[[-3.11447317e-05  8.58110591e-06]
 [ 7.88867119e-06 -2.31715215e-04]]",[],0.0,0.0
1787214854.7625341,0.08870887248676396,-0.9406349083784992,-0.25116955188907664,"[ 1.23090257e-06 -2.21058059e-07  0.00000000e+00  0.00000000e+00
  0.00000000e+00 -3.11887145e-08 -2.21058059e-07  3.89756999e-07
  0.00000000e+00  0.00000000e+00  0.00000000e+00  6.45763256e-08
  0.00000000e+00  0.00000000e+00  0.00000000e+00  0.00000000e+00
  0.00000000e+00  0.00000000e+00  0.00000000e+00  0.00000000e+00
  0.00000000e+00  0.00000000e+00  0.00000000e+00  0.00000000e+00
  0.00000000e+00  0.00000000e+00  0.00000000e+00  0.00000000e+00
  0.00000000e+00  0.00000000e+00 -3.11887145e-08  6.45763256e-08
  0.00000000e+00  0.00000000e+00  0.00000000e+00  2.38984541e-06]","[[-3.11447317e-05  8.58110591e-06]
 [ 7.88867119e-06 -2.31715215e-04]]",[],0.0,0.0
1787214854.8191972,0.0870851701569406,-0.9405491858178222,-0.25929897586602957,"[ 1.24876834e-06 -2.30487233e-07  0.00000000e+00  0.00000000e+00
  0.00000000e+00 -3.74871513e-08 -2.30487233e-07  3.86853173e-07
  0.00000000e+00  0.00000000e+00  0.00000000e+00  6.63881655e-08
  0.00000000e+00  0.00000000e+00  0.00000000e+00  0.00000000e+00
  0.00000000e+00  0.00000000e+00  0.00000000e+00  0.00000000e+00
  0.00000000e+00  0.00000000e+00  0.00000000e+00  0.00000000e+00
  0.00000000e+00  0.00000000e+00  0.00000000e+00  0.00000000e+00
  0.00000000e+00  0.00000000e+00 -3.74871513e-08  6.63881655e-08
  0.00000000e+00  0.00000000e+00  0.00000000e+00  2.51942624e-06]","[[-3.16486866e-05  2.31090859e-05]
 [ 8.06304873e-06 -2.32502466e-04]]",[],0.0,0.0
1787214854.8903887,0.0870851701569406,-0.9405491858178222,-0.25929897586602957,"[ 1.24876834e-06 -2.30487233e-07  0.00000000e+00  0.00000000e+00
  0.00000000e+00 -3.74871513e-08 -2.30487233e-07  3.86853173e-07
  0.00000000e+00  0.00000000e+00  0.00000000e+00  6.63881655e-08
  0.00000000e+00  0.00000000e+00  0.00000000e+00  0.00000000e+00
  0.00000000e+00  0.00000000e+00  0.00000000e+00  0.00000000e+00
  0.00000000e+00  0.00000000e+00  0.00000000e+00  0.00000000e+00
  0.00000000e+00  0.00000000e+00  0.00000000e+00  0.00000000e+00
  0.00000000e+00  0.00000000e+00 -3.74871513e-08  6.63881655e-08
  0.00000000e+00  0.00000000e+00  0.00000000e+00  2.51942624e-06]","[[-3.16486866e-05  2.31090859e-05]
 [ 8.06304873e-06 -2.32502466e-04]]",[],0.0,0.0
1787214854.9122005,0.0870851701569406,-0.9405491858178222,-0.25929897586602957,"[ 1.24876834e-06 -2.30487233e-07  0.00000000e+00  0.00000000e+00
  0.00000000e+00 -3.74871513e-08 -2.30487233e-07  3.86853173e-07
  0.00000000e+00  0.00000000e+00  0.00000000e+00  6.63881655e-08
  0.00000000e+00  0.00000000e+00  0.00000000e+00  0.00000000e+00
  0.00000000e+00  0.00000000e+00  0.00000000e+00  0.00000000e+00
  0.00000000e+00  0.00000000e+00  0.00000000e+00  0.00000000e+00
  0.00000000e+00  0.00000000e+00  0.00000000e+00  0.00000000e+00
  0.00000000e+00  0.00000000e+00 -3.74871513e-08  6.63881655e-08
  0.00000000e+00  0.00000000e+00  0.00000000e+00  2.51942624e-06]","[[-3.16486866e-05  2.31090859e-05]
 [ 8.06304873e-06 -2.32502466e-04]]",[],0.0,0.0
1787214854.9636798,0.0870851701569406,-0.9405491858178222,-0.25929897586602957,"[ 1.24876834e-06 -2.30487233e-07  0.00000000e+00  0.00000000e+00
  0.00000000e+00 -3.74871513e-08 -2.30487233e-07  3.86853173e-07
  0.00000000e+00  0.00000000e+00  0.00000000e+00  6.63881655e-08
  0.00000000e+00  0.00000000e+00  0.00000000e+00  0.00000000e+00
  0.00000000e+00  0.00000000e+00  0.00000000e+00  0.00000000e+00
  0.00000000e+00  0.00000000e+00  0.00000000e+00  0.00000000e+00
  0.00000000e+00  0.00000000e+00  0.00000000e+00  0.00000000e+00
  0.00000000e+00  0.00000000e+00 -3.74871513e-08  6.63881655e-08
  0.00000000e+00  0.00000000e+00  0.00000000e+00  2.51942624e-06]","[[-3.16486866e-05  2.31090859e-05]
 [ 8.06304873e-06 -2.32502466e-04]]",[],0.0,0.0
1787214855.0059612,0.0870851701569406,-0.9405491858178222,-0.25929897586602957,"[ 1.24876834e-06 -2.30487233e-07  0.00000000e+00  0.00000000e+00
  0.00000000e+00 -3.74871513e-08 -2.30487233e-07  3.86853173e-07
  0.00000000e+00  0.00000000e+00  0.00000000e+00  6.63881655e-08
  0.00000000e+00  0.00000000e+00  0.00000000e+00  0.00000000e+00
  0.00000000e+00  0.00000000e+00  0.00000000e+00  0.00000000e+00
  0.00000000e+00  0.00000000e+00  0.00000000e+00  0.00000000e+00
  0.00000000e+00  0.00000000e+00  0.00000000e+00  0.00000000e+00
  0.00000000e+00  0.00000000e+00 -3.74871513e-08  6.63881655e-08
  0.00000000e+00  0.00000000e+00  0.00000000e+00  2.51942624e-06]","[[-3.16486866e-05  2.31090859e-05]
 [ 8.06304873e-06 -2.32502466e-04]]",[],0.0,0.0
1787214855.0595067,0.0870851701569406,-0.9405491858178222,-0.25929897586602957,"[ 1.24876834e-06 -2.30487233e-07  0.00000000e+00  0.00000000e+00
  0.00000000e+00 -3.74871513e-08 -2.30487233e-07  3.86853173e-07
  0.00000000e+00  0.00000000e+00  0.00000000e+00  6.63881655e-08
  0.00000000e+00  0.00000000e+00  0.00000000e+00  0.00000000e+00
  0.00000000e+00  0.00000000e+00  0.00000000e+00  0.00000000e+00
  0.00000000e+00  0.00000000e+00  0.00000000e+00  0.00000000e+00
  0.00000000e+00  0.00000000e+00  0.00000000e+00  0.00000000e+00
  0.00000000e+00  0.00000000e+00 -3.74871513e-08  6.63881655e-08
  0.00000000e+00  0.00000000e+00  0.00000000e+00  2.51942624e-06]","[[-3.16486866e-05  2.31090859e-05]
 [ 8.06304873e-06 -2.32502466e-04]]",[],0.0,0.0
1787214855.1334083,0.0870851701569406,-0.9405491858178222,-0.25929897586602957,"[ 1.24876834e-06 -2.30487233e-07  0.00000000e+00  0.00000000e+00
  0.00000000e+00 -3.74871513e-08 -2.30487233e-07  3.86853173e-07
  0.00000000e+00  0.00000000e+00  0.00000000e+00  6.63881655e-08
  0.00000000e+00  0.00000000e+00  0.00000000e+00  0.00000000e+00
  0.00000000e+00  0.00000000e+00  0.00000000e+00  0.00000000e+00
  0.00000000e+00  0.00000000e+00  0.00000000e+00  0.00000000e+00
  0.00000000e+00  0.00000000e+00  0.00000000e+00  0.00000000e+00
  0.00000000e+00  0.00000000e+00 -3.74871513e-08  6.63881655e-08
  0.00000000e+00  0.00000000e+00  0.00000000e+00  2.51942624e-06]","[[-3.16486866e-05  2.31090859e-05]
 [ 8.06304873e-06 -2.32502466e-04]]",[],0.0,0.0
1787214855.1746817,0.0870851701569406,-0.9405491858178222,-0.25929897586602957,"[ 1.24876834e-06 -2.30487233e-07  0.00000000e+00  0.00000000e+00
  0.00000000e+00 -3.74871513e-08 -2.30487233e-07  3.86853173e-07
  0.00000000e+00  0.00000000e+00  0.00000000e+00  6.63881655e-08
  0.00000000e+00  0.00000000e+00  0.00000000e+00  0.00000000e+00
  0.00000000e+00  0.00000000e+00  0.00000000e+00  0.00000000e+00
  0.00000000e+00  0.00000000e+00  0.00000000e+00  0.00000000e+00
  0.00000000e+00  0.00000000e+00  0.00000000e+00  0.00000000e+00
  0.00000000e+00  0.00000000e+00 -3.74871513e-08  6.63881655e-08
  0.00000000e+00  0.00000000e+00  0.00000000e+00  2.51942624e-06]","[[-3.16486866e-05  2.31090859e-05]
 [ 8.06304873e-06 -2.32502466e-04]]",[],0.0,0.0
1787214855.206178,0.0870851701569406,-0.9405491858178222,-0.25929897586602957,"[ 1.24876834e-06 -2.30487233e-07  0.00000000e+00  0.00000000e+00
  0.00000000e+00 -3.74871513e-08 -2.30487233e-07  3.86853173e-07
  0.00000000e+00  0.00000000e+00  0.00000000e+00  6.63881655e-08
  0.00000000e+00  0.00000000e+00  0.00000000e+00  0.00000000e+00
  0.00000000e+00  0.00000000e+00  0.00000000e+00  0.00000000e+00
  0.00000000e+00  0.00000000e+00  0.00000000e+00  0.00000000e+00
  0.00000000e+00  0.00000000e+00  0.00000000e+00  0.00000000e+00
  0.00000000e+00  0.00000000e+00 -3.74871513e-08  6.63881655e-08
  0.00000000e+00  0.00000000e+00  0.00000000e+00  2.51942624e-06]","[[-3.16486866e-05  2.31090859e-05]
 [ 8.06304873e-06 -2.32502466e-04]]",[],0.0,0.0
1787214855.2764645,0.0870851701569406,-0.9405491858178222,-0.25929897586602957,"[ 1.24876834e-06 -2.30487233e-07  0.00000000e+00  0.00000000e+00
  0.00000000e+00 -3.74871513e-08 -2.30487233e-07  3.86853173e-07
  0.00000000e+00  0.00000000e+00  0.00000000e+00  6.63881655e-08
  0.00000000e+00  0.00000000e+00  0.00000000e+00  0.00000000e+00
  0.00000000e+00  0.00000000e+00  0.00000000e+00  0.00000000e+00
  0.00000000e+00  0.00000000e+00  0.00000000e+00  0.00000000e+00
  0.00000000e+00  0.00000000e+00  0.00000000e+00  0.00000000e+00
  0.00000000e+00  0.00000000e+00 -3.74871513e-08  6.63881655e-08
  0.00000000e+00  0.00000000e+00  0.00000000e+00  2.51942624e-06]","[[-3.16486866e-05  2.31090859e-05]
 [ 8.06304873e-06 -2.32502466e-04]]",[],0.0,0.0
1787214855.3084738,0.08606155405089837,-0.9404831047806418,-0.26242862342603246,"[ 1.26955768e-06 -2.41426400e-07  0.00000000e+00  0.00000000e+00
  0.00000000e+00 -3.96182656e-08 -2.41426400e-07  3.84868133e-07
  0.00000000e+00  0.00000000e+00  0.00000000e+00  6.74229044e-08
  0.00000000e+00  0.00000000e+00  0.00000000e+00  0.00000000e+00
  0.00000000e+00  0.00000000e+00  0.00000000e+00  0.00000000e+00
  0.00000000e+00  0.00000000e+00  0.00000000e+00  0.00000000e+00
  0.00000000e+00  0.00000000e+00  0.00000000e+00  0.00000000e+00
  0.00000000e+00  0.00000000e+00 -3.96182656e-08  6.74229044e-08
  0.00000000e+00  0.00000000e+00  0.00000000e+00  2.60879811e-06]","[[-3.21280738e-05  1.22923231e-05]
 [ 8.56064083e-06 -2.28312292e-04]]",[],0.0,0.0
1787214855.396946,0.08606155405089837,-0.9404831047806418,-0.26242862342603246,"[ 1.26955768e-06 -2.41426400e-07  0.00000000e+00  0.00000000e+00
  0.00000000e+00 -3.96182656e-08 -2.41426400e-07  3.84868133e-07
  0.00000000e+00  0.00000000e+00  0.00000000e+00  6.74229044e-08
  0.00000000e+00  0.00000000e+00  0.00000000e+00  0.00000000e+00
  0.00000000e+00  0.00000000e+00  0.00000000e+00  0.00000000e+00
  0.00000000e+00  0.00000000e+00  0.00000000e+00  0.00000000e+00
  0.00000000e+00  0.00000000e+00  0.00000000e+00  0.00000000e+00
  0.00000000e+00  0.00000000e+00 -3.96182656e-08  6.74229044e-08
  0.00000000e+00  0.00000000e+00  0.00000000e+00  2.60879811e-06]","[[-3.21280738e-05  1.22923231e-05]
 [ 8.56064083e-06 -2.28312292e-04]]",[],0.0,0.0
1787214855.7354038,0.08606155405089837,-0.9404831047806418,-0.26242862342603246,"[ 1.26955768e-06 -2.41426400e-07  0.00000000e+00  0.00000000e+00
  0.00000000e+00 -3.96182656e-08 -2.41426400e-07  3.84868133e-07
  0.00000000e+00  0.00000000e+00  0.00000000e+00  6.74229044e-08
  0.00000000e+00  0.00000000e+00  0.00000000e+00  0.00000000e+00
  0.00000000e+00  0.00000000e+00  0.00000000e+00  0.00000000e+00
  0.00000000e+00  0.00000000e+00  0.00000000e+00  0.00000000e+00
  0.00000000e+00  0.00000000e+00  0.00000000e+00  0.00000000e+00
  0.00000000e+00  0.00000000e+00 -3.96182656e-08  6.74229044e-08
  0.00000000e+00  0.00000000e+00  0.00000000e+00  2.60879811e-06]","[[-3.21280738e-05  1.22923231e-05]
 [ 8.56064083e-06 -2.28312292e-04]]",[],0.0,0.0
1787214855.7565558,0.0841025057405515,-0.9403437652507086,-0.2644006268131296,"[ 1.27210902e-06 -2.47316560e-07  0.00000000e+00  0.00000000e+00
  0.00000000e+00 -3.20947595e-08 -2.47316560e-07  3.81536326e-07
  0.00000000e+00  0.00000000e+00  0.00000000e+00  6.15571708e-08
  0.00000000e+00  0.00000000e+00  0.00000000e+00  0.00000000e+00
  0.00000000e+00  0.00000000e+00  0.00000000e+00  0.00000000e+00
  0.00000000e+00  0.00000000e+00  0.00000000e+00  0.00000000e+00
  0.00000000e+00  0.00000000e+00  0.00000000e+00  0.00000000e+00
  0.00000000e+00  0.00000000e+00 -3.20947595e-08  6.15571708e-08
  0.00000000e+00  0.00000000e+00  0.00000000e+00  2.42964297e-06]","[[-3.22598411e-05  6.32077518e-06]
 [ 8.61131195e-06 -2.17833683e-04]]",[],0.0,0.0
1787214856.09542,0.0841025057405515,-0.9403437652507086,-0.2644006268131296,"[ 1.27210902e-06 -2.47316560e-07  0.00000000e+00  0.00000000e+00
  0.00000000e+00 -3.20947595e-08 -2.47316560e-07  3.81536326e-07
  0.00000000e+00  0.00000000e+00  0.00000000e+00  6.15571708e-08
  0.00000000e+00  0.00000000e+00  0.00000000e+00  0.00000000e+00
  0.00000000e+00  0.00000000e+00  0.00000000e+00  0.00000000e+00
  0.00000000e+00  0.00000000e+00  0.00000000e+00  0.00000000e+00
  0.00000000e+00  0.00000000e+00  0.00000000e+00  0.00000000e+00
  0.00000000e+00  0.00000000e+00 -3.20947595e-08  6.15571708e-08
  0.00000000e+00  0.00000000e+00  0.00000000e+00  2.42964297e-06]","[[-3.22598411e-05  6.32077518e-06]
 [ 8.61131195e-06 -2.17833683e-04]]",[],0.0,0.0
1787214856.15429,0.0841025057405515,-0.9403437652507086,-0.2644006268131296,"[ 1.27210902e-06 -2.47316560e-07  0.00000000e+00  0.00000000e+00
  0.00000000e+00 -3.20947595e-08 -2.47316560e-07  3.81536326e-07
  0.00000000e+00  0.00000000e+00  0.00000000e+00  6.15571708e-08
  0.00000000e+00  0.00000000e+00  0.00000000e+00  0.00000000e+00
  0.00000000e+00  0.00000000e+00  0.00000000e+00  0.00000000e+00
  0.00000000e+00  0.00000000e+00  0.00000000e+00  0.00000000e+00
  0.00000000e+00  0.00000000e+00  0.00000000e+00  0.00000000e+00
  0.00000000e+00  0.00000000e+00 -3.20947595e-08  6.15571708e-08
  0.00000000e+00  0.00000000e+00  0.00000000e+00  2.42964297e-06]","[[-3.22598411e-05  6.32077518e-06]
 [ 8.61131195e-06 -2.17833683e-04]]",[],0.0,0.0
1787214856.383328,0.08285035691293038,-0.9402789360342337,-0.2663231644455087,"[ 1.26566070e-06 -2.50222046e-07  0.00000000e+00  0.00000000e+00
  0.00000000e+00 -2.10408189e-08 -2.50222046e-07  3.77824012e-07
  0.00000000e+00  0.00000000e+00  0.00000000e+00  5.93393658e-08
  0.00000000e+00  0.00000000e+00  0.00000000e+00  0.00000000e+00
  0.00000000e+00  0.00000000e+00  0.00000000e+00  0.00000000e+00
  0.00000000e+00  0.00000000e+00  0.00000000e+00  0.00000000e+00
  0.00000000e+00  0.00000000e+00  0.00000000e+00  0.00000000e+00
  0.00000000e+00  0.00000000e+00 -2.10408189e-08  5.93393658e-08
  0.00000000e+00  0.00000000e+00  0.00000000e+00  2.40512976e-06]","[[-3.20989120e-05 -1.45870695e-05]
 [ 8.71905895e-06 -2.11253013e-04]]",[],0.0,0.0
1787214856.6070135,0.08285035691293038,-0.9402789360342337,-0.2663231644455087,"[ 1.26566070e-06 -2.50222046e-07  0.00000000e+00  0.00000000e+00
  0.00000000e+00 -2.10408189e-08 -2.50222046e-07  3.77824012e-07
  0.00000000e+00  0.00000000e+00  0.00000000e+00  5.93393658e-08
  0.00000000e+00  0.00000000e+00  0.00000000e+00  0.00000000e+00
  0.00000000e+00  0.00000000e+00  0.00000000e+00  0.00000000e+00
  0.00000000e+00  0.00000000e+00  0.00000000e+00  0.00000000e+00
  0.00000000e+00  0.00000000e+00  0.00000000e+00  0.00000000e+00
  0.00000000e+00  0.00000000e+00 -2.10408189e-08  5.93393658e-08
  0.00000000e+00  0.00000000e+00  0.00000000e+00  2.40512976e-06]","[[-3.20989120e-05 -1.45870695e-05]
 [ 8.71905895e-06 -2.11253013e-04]]",[],0.0,0.0
1787214856.7739637,0.08148940523535507,-0.9401723980837566,-0.2707471440349965,"[ 1.26436163e-06 -2.54320318e-07  0.00000000e+00  0.00000000e+00
  0.00000000e+00 -4.02246544e-08 -2.54320318e-07  3.74371115e-07
  0.00000000e+00  0.00000000e+00  0.00000000e+00  6.59158681e-08
  0.00000000e+00  0.00000000e+00  0.00000000e+00  0.00000000e+00
  0.00000000e+00  0.00000000e+00  0.00000000e+00  0.00000000e+00
  0.00000000e+00  0.00000000e+00  0.00000000e+00  0.00000000e+00
  0.00000000e+00  0.00000000e+00  0.00000000e+00  0.00000000e+00
  0.00000000e+00  0.00000000e+00 -4.02246544e-08  6.59158681e-08
  0.00000000e+00  0.00000000e+00  0.00000000e+00  2.37932196e-06]","[[-3.20751536e-05  1.52568015e-05]
 [ 8.84212854e-06 -2.19474654e-04]]",[],0.0,0.0
1787214856.991546,0.08148940523535507,-0.9401723980837566,-0.2707471440349965,"[ 1.26436163e-06 -2.54320318e-07  0.00000000e+00  0.00000000e+00
  0.00000000e+00 -4.02246544e-08 -2.54320318e-07  3.74371115e-07
  0.00000000e+00  0.00000000e+00  0.00000000e+00  6.59158681e-08
  0.00000000e+00  0.00000000e+00  0.00000000e+00  0.00000000e+00
  0.00000000e+00  0.00000000e+00  0.00000000e+00  0.00000000e+00
  0.00000000e+00  0.00000000e+00  0.00000000e+00  0.00000000e+00
  0.00000000e+00  0.00000000e+00  0.00000000e+00  0.00000000e+00
  0.00000000e+00  0.00000000e+00 -4.02246544e-08  6.59158681e-08
  0.00000000e+00  0.00000000e+00  0.00000000e+00  2.37932196e-06]","[[-3.20751536e-05  1.52568015e-05]
 [ 8.84212854e-06 -2.19474654e-04]]",[],0.0,0.0
1787214857.375486,0.07991248750820303,-0.9399482955126854,-0.271752681194259,"[ 1.25159973e-06 -2.55579376e-07  0.00000000e+00  0.00000000e+00
  0.00000000e+00 -1.92238167e-08 -2.55579376e-07  3.70509322e-07
  0.00000000e+00  0.00000000e+00  0.00000000e+00  5.60859668e-08
  0.00000000e+00  0.00000000e+00  0.00000000e+00  0.00000000e+00
  0.00000000e+00  0.00000000e+00  0.00000000e+00  0.00000000e+00
  0.00000000e+00  0.00000000e+00  0.00000000e+00  0.00000000e+00
  0.00000000e+00  0.00000000e+00  0.00000000e+00  0.00000000e+00
  0.00000000e+00  0.00000000e+00 -1.92238167e-08  5.60859668e-08
  0.00000000e+00  0.00000000e+00  0.00000000e+00  2.29541476e-06]","[[-3.18095692e-05 -1.26031808e-05]
 [ 8.77378039e-06 -2.03088959e-04]]",[],0.0,0.0
1787214857.7666104,0.07805310653272521,-0.9397155883010382,-0.2717312918349571,"[ 1.23155391e-06 -2.54034944e-07  0.00000000e+00  0.00000000e+00
  0.00000000e+00 -3.48678165e-08 -2.54034944e-07  3.65861144e-07
  0.00000000e+00  0.00000000e+00  0.00000000e+00  5.92475225e-08
  0.00000000e+00  0.00000000e+00  0.00000000e+00  0.00000000e+00
  0.00000000e+00  0.00000000e+00  0.00000000e+00  0.00000000e+00
  0.00000000e+00  0.00000000e+00  0.00000000e+00  0.00000000e+00
  0.00000000e+00  0.00000000e+00  0.00000000e+00  0.00000000e+00
  0.00000000e+00  0.00000000e+00 -3.48678165e-08  5.92475225e-08
