time,x,y,yaw,cov_prop,K_gain,innovation,v_ekf,omega_ekf
1787209279.843224,1.5087019018137557,1.110114548259478,1.9493929228409597,"[ 7.53997215e-05  3.13189511e-06  0.00000000e+00  0.00000000e+00
  0.00000000e+00 -5.63850604e-06  3.13189511e-06  5.15588735e-05
  0.00000000e+00  0.00000000e+00  0.00000000e+00 -1.24258255e-06
  0.00000000e+00  0.00000000e+00  0.00000000e+00  0.00000000e+00
  0.00000000e+00  0.00000000e+00  0.00000000e+00  0.00000000e+00
  0.00000000e+00  0.00000000e+00  0.00000000e+00  0.00000000e+00
  0.00000000e+00  0.00000000e+00  0.00000000e+00  0.00000000e+00
  0.00000000e+00  0.00000000e+00 -5.63850604e-06 -1.24258255e-06
  0.00000000e+00  0.00000000e+00  0.00000000e+00  4.31556772e-06]","[[-0.00074182  0.06536835]
 [-0.00123293 -0.01035069]]",[],0.0,0.0
1787209280.220969,1.5312289828505188,1.087082019370205,1.979130652370297,"[ 3.71453207e-05  1.45590435e-06  0.00000000e+00  0.00000000e+00
  0.00000000e+00 -2.89131666e-06  1.45590435e-06  2.64921265e-05
  0.00000000e+00  0.00000000e+00  0.00000000e+00 -1.05170050e-06
  0.00000000e+00  0.00000000e+00  0.00000000e+00  0.00000000e+00
  0.00000000e+00  0.00000000e+00  0.00000000e+00  0.00000000e+00
  0.00000000e+00  0.00000000e+00  0.00000000e+00  0.00000000e+00
  0.00000000e+00  0.00000000e+00  0.00000000e+00  0.00000000e+00
  0.00000000e+00  0.00000000e+00 -2.89131666e-06 -1.05170050e-06
  0.00000000e+00  0.00000000e+00  0.00000000e+00  2.94338015e-06]","[[ 8.77007847e-05  4.12575044e-02]
 [-6.51542566e-04  6.64184983e-03]]",[],0.0,0.0
1787209280.6306412,1.5358416616925439,1.0691862196268882,2.001070920899094,"[ 2.52954747e-05  1.13660412e-06  0.00000000e+00  0.00000000e+00
  0.00000000e+00 -1.85270374e-06  1.13660412e-06  1.79371900e-05
  0.00000000e+00  0.00000000e+00  0.00000000e+00 -7.06087191e-07
  0.00000000e+00  0.00000000e+00  0.00000000e+00  0.00000000e+00
  0.00000000e+00  0.00000000e+00  0.00000000e+00  0.00000000e+00
  0.00000000e+00  0.00000000e+00  0.00000000e+00  0.00000000e+00
  0.00000000e+00  0.00000000e+00  0.00000000e+00  0.00000000e+00
  0.00000000e+00  0.00000000e+00 -1.85270374e-06 -7.06087191e-07
  0.00000000e+00  0.00000000e+00  0.00000000e+00  2.77231467e-06]","[[-0.00044199  0.01093907]
 [-0.00035366 -0.00364846]]",[],0.0,0.0
1787209280.9920902,1.5346403160649231,1.0572054042022552,2.027329551590106,"[ 1.83692484e-05  7.04701476e-07  0.00000000e+00  0.00000000e+00
  0.00000000e+00 -1.31677829e-06  7.04701476e-07  1.29766422e-05
  0.00000000e+00  0.00000000e+00  0.00000000e+00 -4.63147590e-07
  0.00000000e+00  0.00000000e+00  0.00000000e+00  0.00000000e+00
  0.00000000e+00  0.00000000e+00  0.00000000e+00  0.00000000e+00
  0.00000000e+00  0.00000000e+00  0.00000000e+00  0.00000000e+00
  0.00000000e+00  0.00000000e+00  0.00000000e+00  0.00000000e+00
  0.00000000e+00  0.00000000e+00 -1.31677829e-06 -4.63147590e-07
  0.00000000e+00  0.00000000e+00  0.00000000e+00  2.58860350e-06]","[[ 4.94403786e-05  1.97275419e-02]
 [-3.18392950e-04  3.24997829e-03]]",[],0.0,0.0
1787209281.429114,1.5317098375991942,1.0456781330531757,2.042731587737233,"[ 1.48040374e-05  5.66843850e-07  0.00000000e+00  0.00000000e+00
  0.00000000e+00 -1.03125819e-06  5.66843850e-07  1.04907922e-05
  0.00000000e+00  0.00000000e+00  0.00000000e+00 -2.57199918e-07
  0.00000000e+00  0.00000000e+00  0.00000000e+00  0.00000000e+00
  0.00000000e+00  0.00000000e+00  0.00000000e+00  0.00000000e+00
  0.00000000e+00  0.00000000e+00  0.00000000e+00  0.00000000e+00
  0.00000000e+00  0.00000000e+00  0.00000000e+00  0.00000000e+00
  0.00000000e+00  0.00000000e+00 -1.03125819e-06 -2.57199918e-07
  0.00000000e+00  0.00000000e+00  0.00000000e+00  2.60421006e-06]","[[-0.00025527  0.00634434]
 [-0.00020617 -0.00238744]]",[],0.0,0.0
1787209281.8364348,1.5344752540142848,1.039930795038778,2.0660654740356703,"[ 1.22882978e-05  4.42760553e-07  0.00000000e+00  0.00000000e+00
  0.00000000e+00 -9.69885127e-07  4.42760553e-07  8.72371683e-06
  0.00000000e+00  0.00000000e+00  0.00000000e+00 -2.37251769e-07
  0.00000000e+00  0.00000000e+00  0.00000000e+00  0.00000000e+00
  0.00000000e+00  0.00000000e+00  0.00000000e+00  0.00000000e+00
  0.00000000e+00  0.00000000e+00  0.00000000e+00  0.00000000e+00
  0.00000000e+00  0.00000000e+00  0.00000000e+00  0.00000000e+00
  0.00000000e+00  0.00000000e+00 -9.69885127e-07 -2.37251769e-07
  0.00000000e+00  0.00000000e+00  0.00000000e+00  2.74420970e-06]","[[-0.00021105  0.00545698]
 [-0.00017116 -0.00194527]]",[],0.0,0.0
1787209282.2630599,1.5405738659731618,1.035171161715977,2.082480731295366,"[ 1.03025593e-05  3.50814556e-07  0.00000000e+00  0.00000000e+00
  0.00000000e+00 -7.62863533e-07  3.50814556e-07  7.45742929e-06
  0.00000000e+00  0.00000000e+00  0.00000000e+00 -2.27003907e-07
  0.00000000e+00  0.00000000e+00  0.00000000e+00  0.00000000e+00
  0.00000000e+00  0.00000000e+00  0.00000000e+00  0.00000000e+00
  0.00000000e+00  0.00000000e+00  0.00000000e+00  0.00000000e+00
  0.00000000e+00  0.00000000e+00  0.00000000e+00  0.00000000e+00
  0.00000000e+00  0.00000000e+00 -7.62863533e-07 -2.27003907e-07
  0.00000000e+00  0.00000000e+00  0.00000000e+00  2.63653108e-06]","[[ 7.58531835e-05  1.00397916e-02]
 [-1.73341452e-04  2.84156573e-03]]",[],0.0,0.0
1787209282.6929543,1.5466984472514171,1.0280462622276139,2.100836422869353,"[ 8.99758913e-06  3.16951867e-07  0.00000000e+00  0.00000000e+00
  0.00000000e+00 -7.02692019e-07  3.16951867e-07  6.58567010e-06
  0.00000000e+00  0.00000000e+00  0.00000000e+00 -1.78994800e-07
  0.00000000e+00  0.00000000e+00  0.00000000e+00  0.00000000e+00
  0.00000000e+00  0.00000000e+00  0.00000000e+00  0.00000000e+00
  0.00000000e+00  0.00000000e+00  0.00000000e+00  0.00000000e+00
  0.00000000e+00  0.00000000e+00  0.00000000e+00  0.00000000e+00
  0.00000000e+00  0.00000000e+00 -7.02692019e-07 -1.78994800e-07
  0.00000000e+00  0.00000000e+00  0.00000000e+00  2.75224302e-06]","[[-0.00015382  0.00399323]
 [-0.00012929 -0.00146547]]",[],0.0,0.0
1787209282.7311258,1.5495406758390742,1.021840055919947,2.129348011180909,"[ 7.95617485e-06  2.42646495e-07  0.00000000e+00  0.00000000e+00
  0.00000000e+00 -5.72748162e-07  2.42646495e-07  5.89377580e-06
  0.00000000e+00  0.00000000e+00  0.00000000e+00 -1.65409426e-07
  0.00000000e+00  0.00000000e+00  0.00000000e+00  0.00000000e+00
  0.00000000e+00  0.00000000e+00  0.00000000e+00  0.00000000e+00
  0.00000000e+00  0.00000000e+00  0.00000000e+00  0.00000000e+00
  0.00000000e+00  0.00000000e+00  0.00000000e+00  0.00000000e+00
  0.00000000e+00  0.00000000e+00 -5.72748162e-07 -1.65409426e-07
  0.00000000e+00  0.00000000e+00  0.00000000e+00  2.72713686e-06]","[[ 6.00238335e-05  7.65416248e-03]
 [-1.37056438e-04  2.19769436e-03]]",[],0.0,0.0
1787209283.127765,1.5495406758390742,1.021840055919947,2.129348011180909,"[ 7.95617485e-06  2.42646495e-07  0.00000000e+00  0.00000000e+00
  0.00000000e+00 -5.72748162e-07  2.42646495e-07  5.89377580e-06
  0.00000000e+00  0.00000000e+00  0.00000000e+00 -1.65409426e-07
  0.00000000e+00  0.00000000e+00  0.00000000e+00  0.00000000e+00
  0.00000000e+00  0.00000000e+00  0.00000000e+00  0.00000000e+00
  0.00000000e+00  0.00000000e+00  0.00000000e+00  0.00000000e+00
  0.00000000e+00  0.00000000e+00  0.00000000e+00  0.00000000e+00
  0.00000000e+00  0.00000000e+00 -5.72748162e-07 -1.65409426e-07
  0.00000000e+00  0.00000000e+00  0.00000000e+00  2.72713686e-06]","[[ 6.00238335e-05  7.65416248e-03]
 [-1.37056438e-04  2.19769436e-03]]",[],0.0,0.0
1787209283.5460176,1.5507203008341424,1.01637712516661,2.149711982641721,"[ 7.09498085e-06  2.22588903e-07  0.00000000e+00  0.00000000e+00
  0.00000000e+00 -4.88499179e-07  2.22588903e-07  5.30344466e-06
  0.00000000e+00  0.00000000e+00  0.00000000e+00 -1.54360560e-07
  0.00000000e+00  0.00000000e+00  0.00000000e+00  0.00000000e+00
  0.00000000e+00  0.00000000e+00  0.00000000e+00  0.00000000e+00
  0.00000000e+00  0.00000000e+00  0.00000000e+00  0.00000000e+00
  0.00000000e+00  0.00000000e+00  0.00000000e+00  0.00000000e+00
  0.00000000e+00  0.00000000e+00 -4.88499179e-07 -1.54360560e-07
  0.00000000e+00  0.00000000e+00  0.00000000e+00  2.66485719e-06]","[[ 5.34371158e-05  6.76838476e-03]
 [-1.23277035e-04  1.98541985e-03]]",[],0.0,0.0
1787209283.5753345,1.5524734681462058,1.0107648443732644,2.1698832971040822,"[ 6.41263036e-06  1.88277457e-07  0.00000000e+00  0.00000000e+00
  0.00000000e+00 -4.05092197e-07  1.88277457e-07  4.82297513e-06
  0.00000000e+00  0.00000000e+00  0.00000000e+00 -1.35072589e-07
  0.00000000e+00  0.00000000e+00  0.00000000e+00  0.00000000e+00
  0.00000000e+00  0.00000000e+00  0.00000000e+00  0.00000000e+00
  0.00000000e+00  0.00000000e+00  0.00000000e+00  0.00000000e+00
  0.00000000e+00  0.00000000e+00  0.00000000e+00  0.00000000e+00
  0.00000000e+00  0.00000000e+00 -4.05092197e-07 -1.35072589e-07
  0.00000000e+00  0.00000000e+00  0.00000000e+00  2.60391073e-06]","[[ 6.17308359e-05  5.68346321e-03]
 [-1.07937239e-04  2.05036201e-03]]",[],0.0,0.0
1787209283.6200643,1.5524734681462058,1.0107648443732644,2.1698832971040822,"[ 6.41263036e-06  1.88277457e-07  0.00000000e+00  0.00000000e+00
  0.00000000e+00 -4.05092197e-07  1.88277457e-07  4.82297513e-06
  0.00000000e+00  0.00000000e+00  0.00000000e+00 -1.35072589e-07
  0.00000000e+00  0.00000000e+00  0.00000000e+00  0.00000000e+00
  0.00000000e+00  0.00000000e+00  0.00000000e+00  0.00000000e+00
  0.00000000e+00  0.00000000e+00  0.00000000e+00  0.00000000e+00
  0.00000000e+00  0.00000000e+00  0.00000000e+00  0.00000000e+00
  0.00000000e+00  0.00000000e+00 -4.05092197e-07 -1.35072589e-07
  0.00000000e+00  0.00000000e+00  0.00000000e+00  2.60391073e-06]","[[ 6.17308359e-05  5.68346321e-03]
 [-1.07937239e-04  2.05036201e-03]]",[],0.0,0.0
1787209283.6731782,1.5524734681462058,1.0107648443732644,2.1698832971040822,"[ 6.41263036e-06  1.88277457e-07  0.00000000e+00  0.00000000e+00
  0.00000000e+00 -4.05092197e-07  1.88277457e-07  4.82297513e-06
  0.00000000e+00  0.00000000e+00  0.00000000e+00 -1.35072589e-07
  0.00000000e+00  0.00000000e+00  0.00000000e+00  0.00000000e+00
  0.00000000e+00  0.00000000e+00  0.00000000e+00  0.00000000e+00
  0.00000000e+00  0.00000000e+00  0.00000000e+00  0.00000000e+00
  0.00000000e+00  0.00000000e+00  0.00000000e+00  0.00000000e+00
  0.00000000e+00  0.00000000e+00 -4.05092197e-07 -1.35072589e-07
  0.00000000e+00  0.00000000e+00  0.00000000e+00  2.60391073e-06]","[[ 6.17308359e-05  5.68346321e-03]
 [-1.07937239e-04  2.05036201e-03]]",[],0.0,0.0
1787209283.7225785,1.5524734681462058,1.0107648443732644,2.1698832971040822,"[ 6.41263036e-06  1.88277457e-07  0.00000000e+00  0.00000000e+00
  0.00000000e+00 -4.05092197e-07  1.88277457e-07  4.82297513e-06
  0.00000000e+00  0.00000000e+00  0.00000000e+00 -1.35072589e-07
  0.00000000e+00  0.00000000e+00  0.00000000e+00  0.00000000e+00
  0.00000000e+00  0.00000000e+00  0.00000000e+00  0.00000000e+00
  0.00000000e+00  0.00000000e+00  0.00000000e+00  0.00000000e+00
  0.00000000e+00  0.00000000e+00  0.00000000e+00  0.00000000e+00
  0.00000000e+00  0.00000000e+00 -4.05092197e-07 -1.35072589e-07
  0.00000000e+00  0.00000000e+00  0.00000000e+00  2.60391073e-06]","[[ 6.17308359e-05  5.68346321e-03]
 [-1.07937239e-04  2.05036201e-03]]",[],0.0,0.0
1787209283.7705746,1.5524734681462058,1.0107648443732644,2.1698832971040822,"[ 6.41263036e-06  1.88277457e-07  0.00000000e+00  0.00000000e+00
  0.00000000e+00 -4.05092197e-07  1.88277457e-07  4.82297513e-06
  0.00000000e+00  0.00000000e+00  0.00000000e+00 -1.35072589e-07
  0.00000000e+00  0.00000000e+00  0.00000000e+00  0.00000000e+00
  0.00000000e+00  0.00000000e+00  0.00000000e+00  0.00000000e+00
  0.00000000e+00  0.00000000e+00  0.00000000e+00  0.00000000e+00
  0.00000000e+00  0.00000000e+00  0.00000000e+00  0.00000000e+00
  0.00000000e+00  0.00000000e+00 -4.05092197e-07 -1.35072589e-07
  0.00000000e+00  0.00000000e+00  0.00000000e+00  2.60391073e-06]","[[ 6.17308359e-05  5.68346321e-03]
 [-1.07937239e-04  2.05036201e-03]]",[],0.0,0.0
1787209283.8251212,1.5524734681462058,1.0107648443732644,2.1698832971040822,"[ 6.41263036e-06  1.88277457e-07  0.00000000e+00  0.00000000e+00
  0.00000000e+00 -4.05092197e-07  1.88277457e-07  4.82297513e-06
  0.00000000e+00  0.00000000e+00  0.00000000e+00 -1.35072589e-07
  0.00000000e+00  0.00000000e+00  0.00000000e+00  0.00000000e+00
  0.00000000e+00  0.00000000e+00  0.00000000e+00  0.00000000e+00
  0.00000000e+00  0.00000000e+00  0.00000000e+00  0.00000000e+00
  0.00000000e+00  0.00000000e+00  0.00000000e+00  0.00000000e+00
  0.00000000e+00  0.00000000e+00 -4.05092197e-07 -1.35072589e-07
  0.00000000e+00  0.00000000e+00  0.00000000e+00  2.60391073e-06]","[[ 6.17308359e-05  5.68346321e-03]
 [-1.07937239e-04  2.05036201e-03]]",[],0.0,0.0
1787209283.873651,1.5524734681462058,1.0107648443732644,2.1698832971040822,"[ 6.41263036e-06  1.88277457e-07  0.00000000e+00  0.00000000e+00
  0.00000000e+00 -4.05092197e-07  1.88277457e-07  4.82297513e-06
  0.00000000e+00  0.00000000e+00  0.00000000e+00 -1.35072589e-07
  0.00000000e+00  0.00000000e+00  0.00000000e+00  0.00000000e+00
  0.00000000e+00  0.00000000e+00  0.00000000e+00  0.00000000e+00
  0.00000000e+00  0.00000000e+00  0.00000000e+00  0.00000000e+00
  0.00000000e+00  0.00000000e+00  0.00000000e+00  0.00000000e+00
  0.00000000e+00  0.00000000e+00 -4.05092197e-07 -1.35072589e-07
  0.00000000e+00  0.00000000e+00  0.00000000e+00  2.60391073e-06]","[[ 6.17308359e-05  5.68346321e-03]
 [-1.07937239e-04  2.05036201e-03]]",[],0.0,0.0
1787209283.9220657,1.5524734681462058,1.0107648443732644,2.1698832971040822,"[ 6.41263036e-06  1.88277457e-07  0.00000000e+00  0.00000000e+00
  0.00000000e+00 -4.05092197e-07  1.88277457e-07  4.82297513e-06
  0.00000000e+00  0.00000000e+00  0.00000000e+00 -1.35072589e-07
  0.00000000e+00  0.00000000e+00  0.00000000e+00  0.00000000e+00
  0.00000000e+00  0.00000000e+00  0.00000000e+00  0.00000000e+00
  0.00000000e+00  0.00000000e+00  0.00000000e+00  0.00000000e+00
  0.00000000e+00  0.00000000e+00  0.00000000e+00  0.00000000e+00
  0.00000000e+00  0.00000000e+00 -4.05092197e-07 -1.35072589e-07
  0.00000000e+00  0.00000000e+00  0.00000000e+00  2.60391073e-06]","[[ 6.17308359e-05  5.68346321e-03]
 [-1.07937239e-04  2.05036201e-03]]",[],0.0,0.0
1787209283.9704301,1.5524734681462058,1.0107648443732644,2.1698832971040822,"[ 6.41263036e-06  1.88277457e-07  0.00000000e+00  0.00000000e+00
  0.00000000e+00 -4.05092197e-07  1.88277457e-07  4.82297513e-06
  0.00000000e+00  0.00000000e+00  0.00000000e+00 -1.35072589e-07
  0.00000000e+00  0.00000000e+00  0.00000000e+00  0.00000000e+00
  0.00000000e+00  0.00000000e+00  0.00000000e+00  0.00000000e+00
  0.00000000e+00  0.00000000e+00  0.00000000e+00  0.00000000e+00
  0.00000000e+00  0.00000000e+00  0.00000000e+00  0.00000000e+00
  0.00000000e+00  0.00000000e+00 -4.05092197e-07 -1.35072589e-07
  0.00000000e+00  0.00000000e+00  0.00000000e+00  2.60391073e-06]","[[ 6.17308359e-05  5.68346321e-03]
 [-1.07937239e-04  2.05036201e-03]]",[],0.0,0.0
1787209284.021061,1.5524734681462058,1.0107648443732644,2.1698832971040822,"[ 6.41263036e-06  1.88277457e-07  0.00000000e+00  0.00000000e+00
  0.00000000e+00 -4.05092197e-07  1.88277457e-07  4.82297513e-06
  0.00000000e+00  0.00000000e+00  0.00000000e+00 -1.35072589e-07
  0.00000000e+00  0.00000000e+00  0.00000000e+00  0.00000000e+00
  0.00000000e+00  0.00000000e+00  0.00000000e+00  0.00000000e+00
  0.00000000e+00  0.00000000e+00  0.00000000e+00  0.00000000e+00
  0.00000000e+00  0.00000000e+00  0.00000000e+00  0.00000000e+00
  0.00000000e+00  0.00000000e+00 -4.05092197e-07 -1.35072589e-07
  0.00000000e+00  0.00000000e+00  0.00000000e+00  2.60391073e-06]","[[ 6.17308359e-05  5.68346321e-03]
 [-1.07937239e-04  2.05036201e-03]]",[],0.0,0.0
1787209284.0708263,1.5499714605711785,1.0039195277155784,2.1982672691345693,"[ 5.80070064e-06  1.42620307e-07  0.00000000e+00  0.00000000e+00
  0.00000000e+00 -4.28389416e-07  1.42620307e-07  4.45309871e-06
  0.00000000e+00  0.00000000e+00  0.00000000e+00 -9.18883084e-08
  0.00000000e+00  0.00000000e+00  0.00000000e+00  0.00000000e+00
  0.00000000e+00  0.00000000e+00  0.00000000e+00  0.00000000e+00
  0.00000000e+00  0.00000000e+00  0.00000000e+00  0.00000000e+00
  0.00000000e+00  0.00000000e+00  0.00000000e+00  0.00000000e+00
  0.00000000e+00  0.00000000e+00 -4.28389416e-07 -9.18883084e-08
  0.00000000e+00  0.00000000e+00  0.00000000e+00  2.79295055e-06]","[[ 5.64222984e-05  5.22114349e-03]
 [-9.99987514e-05  1.80855604e-03]]",[],0.0,0.0
1787209284.1278927,1.5499714605711785,1.0039195277155784,2.1982672691345693,"[ 5.80070064e-06  1.42620307e-07  0.00000000e+00  0.00000000e+00
  0.00000000e+00 -4.28389416e-07  1.42620307e-07  4.45309871e-06
  0.00000000e+00  0.00000000e+00  0.00000000e+00 -9.18883084e-08
  0.00000000e+00  0.00000000e+00  0.00000000e+00  0.00000000e+00
  0.00000000e+00  0.00000000e+00  0.00000000e+00  0.00000000e+00
  0.00000000e+00  0.00000000e+00  0.00000000e+00  0.00000000e+00
  0.00000000e+00  0.00000000e+00  0.00000000e+00  0.00000000e+00
  0.00000000e+00  0.00000000e+00 -4.28389416e-07 -9.18883084e-08
  0.00000000e+00  0.00000000e+00  0.00000000e+00  2.79295055e-06]","[[ 5.64222984e-05  5.22114349e-03]
 [-9.99987514e-05  1.80855604e-03]]",[],0.0,0.0
1787209284.1708677,1.5499714605711785,1.0039195277155784,2.1982672691345693,"[ 5.80070064e-06  1.42620307e-07  0.00000000e+00  0.00000000e+00
  0.00000000e+00 -4.28389416e-07  1.42620307e-07  4.45309871e-06
  0.00000000e+00  0.00000000e+00  0.00000000e+00 -9.18883084e-08
  0.00000000e+00  0.00000000e+00  0.00000000e+00  0.00000000e+00
  0.00000000e+00  0.00000000e+00  0.00000000e+00  0.00000000e+00
  0.00000000e+00  0.00000000e+00  0.00000000e+00  0.00000000e+00
  0.00000000e+00  0.00000000e+00  0.00000000e+00  0.00000000e+00
  0.00000000e+00  0.00000000e+00 -4.28389416e-07 -9.18883084e-08
  0.00000000e+00  0.00000000e+00  0.00000000e+00  2.79295055e-06]","[[ 5.64222984e-05  5.22114349e-03]
 [-9.99987514e-05  1.80855604e-03]]",[],0.0,0.0
1787209284.2419052,1.5499714605711785,1.0039195277155784,2.1982672691345693,"[ 5.80070064e-06  1.42620307e-07  0.00000000e+00  0.00000000e+00
  0.00000000e+00 -4.28389416e-07  1.42620307e-07  4.45309871e-06
  0.00000000e+00  0.00000000e+00  0.00000000e+00 -9.18883084e-08
  0.00000000e+00  0.00000000e+00  0.00000000e+00  0.00000000e+00
  0.00000000e+00  0.00000000e+00  0.00000000e+00  0.00000000e+00
  0.00000000e+00  0.00000000e+00  0.00000000e+00  0.00000000e+00
  0.00000000e+00  0.00000000e+00  0.00000000e+00  0.00000000e+00
  0.00000000e+00  0.00000000e+00 -4.28389416e-07 -9.18883084e-08
  0.00000000e+00  0.00000000e+00  0.00000000e+00  2.79295055e-06]","[[ 5.64222984e-05  5.22114349e-03]
 [-9.99987514e-05  1.80855604e-03]]",[],0.0,0.0
1787209284.2715387,1.5499714605711785,1.0039195277155784,2.1982672691345693,"[ 5.80070064e-06  1.42620307e-07  0.00000000e+00  0.00000000e+00
  0.00000000e+00 -4.28389416e-07  1.42620307e-07  4.45309871e-06
  0.00000000e+00  0.00000000e+00  0.00000000e+00 -9.18883084e-08
  0.00000000e+00  0.00000000e+00  0.00000000e+00  0.00000000e+00
  0.00000000e+00  0.00000000e+00  0.00000000e+00  0.00000000e+00
  0.00000000e+00  0.00000000e+00  0.00000000e+00  0.00000000e+00
  0.00000000e+00  0.00000000e+00  0.00000000e+00  0.00000000e+00
  0.00000000e+00  0.00000000e+00 -4.28389416e-07 -9.18883084e-08
  0.00000000e+00  0.00000000e+00  0.00000000e+00  2.79295055e-06]","[[ 5.64222984e-05  5.22114349e-03]
 [-9.99987514e-05  1.80855604e-03]]",[],0.0,0.0
1787209284.323136,1.5499714605711785,1.0039195277155784,2.1982672691345693,"[ 5.80070064e-06  1.42620307e-07  0.00000000e+00  0.00000000e+00
  0.00000000e+00 -4.28389416e-07  1.42620307e-07  4.45309871e-06
  0.00000000e+00  0.00000000e+00  0.00000000e+00 -9.18883084e-08
  0.00000000e+00  0.00000000e+00  0.00000000e+00  0.00000000e+00
  0.00000000e+00  0.00000000e+00  0.00000000e+00  0.00000000e+00
  0.00000000e+00  0.00000000e+00  0.00000000e+00  0.00000000e+00
  0.00000000e+00  0.00000000e+00  0.00000000e+00  0.00000000e+00
  0.00000000e+00  0.00000000e+00 -4.28389416e-07 -9.18883084e-08
  0.00000000e+00  0.00000000e+00  0.00000000e+00  2.79295055e-06]","[[ 5.64222984e-05  5.22114349e-03]
 [-9.99987514e-05  1.80855604e-03]]",[],0.0,0.0
1787209284.3722491,1.5499714605711785,1.0039195277155784,2.1982672691345693,"[ 5.80070064e-06  1.42620307e-07  0.00000000e+00  0.00000000e+00
  0.00000000e+00 -4.28389416e-07  1.42620307e-07  4.45309871e-06
  0.00000000e+00  0.00000000e+00  0.00000000e+00 -9.18883084e-08
  0.00000000e+00  0.00000000e+00  0.00000000e+00  0.00000000e+00
  0.00000000e+00  0.00000000e+00  0.00000000e+00  0.00000000e+00
  0.00000000e+00  0.00000000e+00  0.00000000e+00  0.00000000e+00
  0.00000000e+00  0.00000000e+00  0.00000000e+00  0.00000000e+00
  0.00000000e+00  0.00000000e+00 -4.28389416e-07 -9.18883084e-08
  0.00000000e+00  0.00000000e+00  0.00000000e+00  2.79295055e-06]","[[ 5.64222984e-05  5.22114349e-03]
 [-9.99987514e-05  1.80855604e-03]]",[],0.0,0.0
1787209284.4201672,1.5499714605711785,1.0039195277155784,2.1982672691345693,"[ 5.80070064e-06  1.42620307e-07  0.00000000e+00  0.00000000e+00
  0.00000000e+00 -4.28389416e-07  1.42620307e-07  4.45309871e-06
  0.00000000e+00  0.00000000e+00  0.00000000e+00 -9.18883084e-08
  0.00000000e+00  0.00000000e+00  0.00000000e+00  0.00000000e+00
  0.00000000e+00  0.00000000e+00  0.00000000e+00  0.00000000e+00
  0.00000000e+00  0.00000000e+00  0.00000000e+00  0.00000000e+00
  0.00000000e+00  0.00000000e+00  0.00000000e+00  0.00000000e+00
  0.00000000e+00  0.00000000e+00 -4.28389416e-07 -9.18883084e-08
  0.00000000e+00  0.00000000e+00  0.00000000e+00  2.79295055e-06]","[[ 5.64222984e-05  5.22114349e-03]
 [-9.99987514e-05  1.80855604e-03]]",[],0.0,0.0
1787209284.4738784,1.5499714605711785,1.0039195277155784,2.1982672691345693,"[ 5.80070064e-06  1.42620307e-07  0.00000000e+00  0.00000000e+00
  0.00000000e+00 -4.28389416e-07  1.42620307e-07  4.45309871e-06
  0.00000000e+00  0.00000000e+00  0.00000000e+00 -9.18883084e-08
  0.00000000e+00  0.00000000e+00  0.00000000e+00  0.00000000e+00
  0.00000000e+00  0.00000000e+00  0.00000000e+00  0.00000000e+00
  0.00000000e+00  0.00000000e+00  0.00000000e+00  0.00000000e+00
  0.00000000e+00  0.00000000e+00  0.00000000e+00  0.00000000e+00
  0.00000000e+00  0.00000000e+00 -4.28389416e-07 -9.18883084e-08
  0.00000000e+00  0.00000000e+00  0.00000000e+00  2.79295055e-06]","[[ 5.64222984e-05  5.22114349e-03]
 [-9.99987514e-05  1.80855604e-03]]",[],0.0,0.0
1787209284.5201569,1.5499714605711785,1.0039195277155784,2.1982672691345693,"[ 5.80070064e-06  1.42620307e-07  0.00000000e+00  0.00000000e+00
  0.00000000e+00 -4.28389416e-07  1.42620307e-07  4.45309871e-06
  0.00000000e+00  0.00000000e+00  0.00000000e+00 -9.18883084e-08
  0.00000000e+00  0.00000000e+00  0.00000000e+00  0.00000000e+00
  0.00000000e+00  0.00000000e+00  0.00000000e+00  0.00000000e+00
  0.00000000e+00  0.00000000e+00  0.00000000e+00  0.00000000e+00
  0.00000000e+00  0.00000000e+00  0.00000000e+00  0.00000000e+00
  0.00000000e+00  0.00000000e+00 -4.28389416e-07 -9.18883084e-08
  0.00000000e+00  0.00000000e+00  0.00000000e+00  2.79295055e-06]","[[ 5.64222984e-05  5.22114349e-03]
 [-9.99987514e-05  1.80855604e-03]]",[],0.0,0.0
1787209284.5697107,1.5479958127859954,0.9971456058180067,2.2241001081195577,"[ 5.30275122e-06  9.29976197e-08  0.00000000e+00  0.00000000e+00
  0.00000000e+00 -3.31725388e-07  9.29976197e-08  4.14109534e-06
  0.00000000e+00  0.00000000e+00  0.00000000e+00 -1.23603944e-07
  0.00000000e+00  0.00000000e+00  0.00000000e+00  0.00000000e+00
  0.00000000e+00  0.00000000e+00  0.00000000e+00  0.00000000e+00
  0.00000000e+00  0.00000000e+00  0.00000000e+00  0.00000000e+00
  0.00000000e+00  0.00000000e+00  0.00000000e+00  0.00000000e+00
  0.00000000e+00  0.00000000e+00 -3.31725388e-07 -1.23603944e-07
  0.00000000e+00  0.00000000e+00  0.00000000e+00  2.82549215e-06]","[[ 5.21144022e-05  4.65455272e-03]
 [-9.35157943e-05  1.70227955e-03]]",[],0.0,0.0
1787209284.6439774,1.5479958127859954,0.9971456058180067,2.2241001081195577,"[ 5.30275122e-06  9.29976197e-08  0.00000000e+00  0.00000000e+00
  0.00000000e+00 -3.31725388e-07  9.29976197e-08  4.14109534e-06
  0.00000000e+00  0.00000000e+00  0.00000000e+00 -1.23603944e-07
  0.00000000e+00  0.00000000e+00  0.00000000e+00  0.00000000e+00
  0.00000000e+00  0.00000000e+00  0.00000000e+00  0.00000000e+00
  0.00000000e+00  0.00000000e+00  0.00000000e+00  0.00000000e+00
  0.00000000e+00  0.00000000e+00  0.00000000e+00  0.00000000e+00
  0.00000000e+00  0.00000000e+00 -3.31725388e-07 -1.23603944e-07
  0.00000000e+00  0.00000000e+00  0.00000000e+00  2.82549215e-06]","[[ 5.21144022e-05  4.65455272e-03]
 [-9.35157943e-05  1.70227955e-03]]",[],0.0,0.0
1787209284.6703737,1.5479958127859954,0.9971456058180067,2.2241001081195577,"[ 5.30275122e-06  9.29976197e-08  0.00000000e+00  0.00000000e+00
  0.00000000e+00 -3.31725388e-07  9.29976197e-08  4.14109534e-06
  0.00000000e+00  0.00000000e+00  0.00000000e+00 -1.23603944e-07
  0.00000000e+00  0.00000000e+00  0.00000000e+00  0.00000000e+00
  0.00000000e+00  0.00000000e+00  0.00000000e+00  0.00000000e+00
  0.00000000e+00  0.00000000e+00  0.00000000e+00  0.00000000e+00
  0.00000000e+00  0.00000000e+00  0.00000000e+00  0.00000000e+00
  0.00000000e+00  0.00000000e+00 -3.31725388e-07 -1.23603944e-07
  0.00000000e+00  0.00000000e+00  0.00000000e+00  2.82549215e-06]","[[ 5.21144022e-05  4.65455272e-03]
 [-9.35157943e-05  1.70227955e-03]]",[],0.0,0.0
1787209284.7381895,1.5479958127859954,0.9971456058180067,2.2241001081195577,"[ 5.30275122e-06  9.29976197e-08  0.00000000e+00  0.00000000e+00
  0.00000000e+00 -3.31725388e-07  9.29976197e-08  4.14109534e-06
  0.00000000e+00  0.00000000e+00  0.00000000e+00 -1.23603944e-07
  0.00000000e+00  0.00000000e+00  0.00000000e+00  0.00000000e+00
  0.00000000e+00  0.00000000e+00  0.00000000e+00  0.00000000e+00
  0.00000000e+00  0.00000000e+00  0.00000000e+00  0.00000000e+00
  0.00000000e+00  0.00000000e+00  0.00000000e+00  0.00000000e+00
  0.00000000e+00  0.00000000e+00 -3.31725388e-07 -1.23603944e-07
  0.00000000e+00  0.00000000e+00  0.00000000e+00  2.82549215e-06]","[[ 5.21144022e-05  4.65455272e-03]
 [-9.35157943e-05  1.70227955e-03]]",[],0.0,0.0
1787209284.7742631,1.5479958127859954,0.9971456058180067,2.2241001081195577,"[ 5.30275122e-06  9.29976197e-08  0.00000000e+00  0.00000000e+00
  0.00000000e+00 -3.31725388e-07  9.29976197e-08  4.14109534e-06
  0.00000000e+00  0.00000000e+00  0.00000000e+00 -1.23603944e-07
  0.00000000e+00  0.00000000e+00  0.00000000e+00  0.00000000e+00
  0.00000000e+00  0.00000000e+00  0.00000000e+00  0.00000000e+00
  0.00000000e+00  0.00000000e+00  0.00000000e+00  0.00000000e+00
  0.00000000e+00  0.00000000e+00  0.00000000e+00  0.00000000e+00
  0.00000000e+00  0.00000000e+00 -3.31725388e-07 -1.23603944e-07
  0.00000000e+00  0.00000000e+00  0.00000000e+00  2.82549215e-06]","[[ 5.21144022e-05  4.65455272e-03]
 [-9.35157943e-05  1.70227955e-03]]",[],0.0,0.0
1787209284.8383512,1.5479958127859954,0.9971456058180067,2.2241001081195577,"[ 5.30275122e-06  9.29976197e-08  0.00000000e+00  0.00000000e+00
  0.00000000e+00 -3.31725388e-07  9.29976197e-08  4.14109534e-06
  0.00000000e+00  0.00000000e+00  0.00000000e+00 -1.23603944e-07
  0.00000000e+00  0.00000000e+00  0.00000000e+00  0.00000000e+00
  0.00000000e+00  0.00000000e+00  0.00000000e+00  0.00000000e+00
  0.00000000e+00  0.00000000e+00  0.00000000e+00  0.00000000e+00
  0.00000000e+00  0.00000000e+00  0.00000000e+00  0.00000000e+00
  0.00000000e+00  0.00000000e+00 -3.31725388e-07 -1.23603944e-07
  0.00000000e+00  0.00000000e+00  0.00000000e+00  2.82549215e-06]","[[ 5.21144022e-05  4.65455272e-03]
 [-9.35157943e-05  1.70227955e-03]]",[],0.0,0.0
1787209284.8708096,1.5479958127859954,0.9971456058180067,2.2241001081195577,"[ 5.30275122e-06  9.29976197e-08  0.00000000e+00  0.00000000e+00
  0.00000000e+00 -3.31725388e-07  9.29976197e-08  4.14109534e-06
  0.00000000e+00  0.00000000e+00  0.00000000e+00 -1.23603944e-07
  0.00000000e+00  0.00000000e+00  0.00000000e+00  0.00000000e+00
  0.00000000e+00  0.00000000e+00  0.00000000e+00  0.00000000e+00
  0.00000000e+00  0.00000000e+00  0.00000000e+00  0.00000000e+00
  0.00000000e+00  0.00000000e+00  0.00000000e+00  0.00000000e+00
  0.00000000e+00  0.00000000e+00 -3.31725388e-07 -1.23603944e-07
  0.00000000e+00  0.00000000e+00  0.00000000e+00  2.82549215e-06]","[[ 5.21144022e-05  4.65455272e-03]
 [-9.35157943e-05  1.70227955e-03]]",[],0.0,0.0
1787209284.9338808,1.5479958127859954,0.9971456058180067,2.2241001081195577,"[ 5.30275122e-06  9.29976197e-08  0.00000000e+00  0.00000000e+00
  0.00000000e+00 -3.31725388e-07  9.29976197e-08  4.14109534e-06
  0.00000000e+00  0.00000000e+00  0.00000000e+00 -1.23603944e-07
  0.00000000e+00  0.00000000e+00  0.00000000e+00  0.00000000e+00
  0.00000000e+00  0.00000000e+00  0.00000000e+00  0.00000000e+00
  0.00000000e+00  0.00000000e+00  0.00000000e+00  0.00000000e+00
  0.00000000e+00  0.00000000e+00  0.00000000e+00  0.00000000e+00
  0.00000000e+00  0.00000000e+00 -3.31725388e-07 -1.23603944e-07
  0.00000000e+00  0.00000000e+00  0.00000000e+00  2.82549215e-06]","[[ 5.21144022e-05  4.65455272e-03]
 [-9.35157943e-05  1.70227955e-03]]",[],0.0,0.0
1787209284.9699566,1.5479958127859954,0.9971456058180067,2.2241001081195577,"[ 5.30275122e-06  9.29976197e-08  0.00000000e+00  0.00000000e+00
  0.00000000e+00 -3.31725388e-07  9.29976197e-08  4.14109534e-06
  0.00000000e+00  0.00000000e+00  0.00000000e+00 -1.23603944e-07
  0.00000000e+00  0.00000000e+00  0.00000000e+00  0.00000000e+00
  0.00000000e+00  0.00000000e+00  0.00000000e+00  0.00000000e+00
  0.00000000e+00  0.00000000e+00  0.00000000e+00  0.00000000e+00
  0.00000000e+00  0.00000000e+00  0.00000000e+00  0.00000000e+00
  0.00000000e+00  0.00000000e+00 -3.31725388e-07 -1.23603944e-07
  0.00000000e+00  0.00000000e+00  0.00000000e+00  2.82549215e-06]","[[ 5.21144022e-05  4.65455272e-03]
 [-9.35157943e-05  1.70227955e-03]]",[],0.0,0.0
1787209285.021078,1.5479958127859954,0.9971456058180067,2.2241001081195577,"[ 5.30275122e-06  9.29976197e-08  0.00000000e+00  0.00000000e+00
  0.00000000e+00 -3.31725388e-07  9.29976197e-08  4.14109534e-06
  0.00000000e+00  0.00000000e+00  0.00000000e+00 -1.23603944e-07
  0.00000000e+00  0.00000000e+00  0.00000000e+00  0.00000000e+00
  0.00000000e+00  0.00000000e+00  0.00000000e+00  0.00000000e+00
  0.00000000e+00  0.00000000e+00  0.00000000e+00  0.00000000e+00
  0.00000000e+00  0.00000000e+00  0.00000000e+00  0.00000000e+00
  0.00000000e+00  0.00000000e+00 -3.31725388e-07 -1.23603944e-07
  0.00000000e+00  0.00000000e+00  0.00000000e+00  2.82549215e-06]","[[ 5.21144022e-05  4.65455272e-03]
 [-9.35157943e-05  1.70227955e-03]]",[],0.0,0.0
1787209285.0725782,1.5476860338845229,0.9911190654055666,2.242682097345541,"[ 4.88791008e-06  5.61267263e-08  0.00000000e+00  0.00000000e+00
  0.00000000e+00 -2.80227604e-07  5.61267263e-08  3.88862787e-06
  0.00000000e+00  0.00000000e+00  0.00000000e+00 -8.01978374e-08
  0.00000000e+00  0.00000000e+00  0.00000000e+00  0.00000000e+00
  0.00000000e+00  0.00000000e+00  0.00000000e+00  0.00000000e+00
  0.00000000e+00  0.00000000e+00  0.00000000e+00  0.00000000e+00
  0.00000000e+00  0.00000000e+00  0.00000000e+00  0.00000000e+00
  0.00000000e+00  0.00000000e+00 -2.80227604e-07 -8.01978374e-08
  0.00000000e+00  0.00000000e+00  0.00000000e+00  2.79728016e-06]","[[ 9.80993158e-05  2.03351030e-03]
 [-5.59369694e-05  1.84588648e-03]]",[],0.0,0.0
1787209285.1202796,1.5476860338845229,0.9911190654055666,2.242682097345541,"[ 4.88791008e-06  5.61267263e-08  0.00000000e+00  0.00000000e+00
  0.00000000e+00 -2.80227604e-07  5.61267263e-08  3.88862787e-06
  0.00000000e+00  0.00000000e+00  0.00000000e+00 -8.01978374e-08
  0.00000000e+00  0.00000000e+00  0.00000000e+00  0.00000000e+00
  0.00000000e+00  0.00000000e+00  0.00000000e+00  0.00000000e+00
  0.00000000e+00  0.00000000e+00  0.00000000e+00  0.00000000e+00
  0.00000000e+00  0.00000000e+00  0.00000000e+00  0.00000000e+00
  0.00000000e+00  0.00000000e+00 -2.80227604e-07 -8.01978374e-08
  0.00000000e+00  0.00000000e+00  0.00000000e+00  2.79728016e-06]","[[ 9.80993158e-05  2.03351030e-03]
 [-5.59369694e-05  1.84588648e-03]]",[],0.0,0.0
1787209285.4419646,1.5476860338845229,0.9911190654055666,2.242682097345541,"[ 4.88791008e-06  5.61267263e-08  0.00000000e+00  0.00000000e+00
  0.00000000e+00 -2.80227604e-07  5.61267263e-08  3.88862787e-06
  0.00000000e+00  0.00000000e+00  0.00000000e+00 -8.01978374e-08
  0.00000000e+00  0.00000000e+00  0.00000000e+00  0.00000000e+00
  0.00000000e+00  0.00000000e+00  0.00000000e+00  0.00000000e+00
  0.00000000e+00  0.00000000e+00  0.00000000e+00  0.00000000e+00
  0.00000000e+00  0.00000000e+00  0.00000000e+00  0.00000000e+00
  0.00000000e+00  0.00000000e+00 -2.80227604e-07 -8.01978374e-08
  0.00000000e+00  0.00000000e+00  0.00000000e+00  2.79728016e-06]","[[ 9.80993158e-05  2.03351030e-03]
 [-5.59369694e-05  1.84588648e-03]]",[],0.0,0.0
1787209285.856109,1.54901368807473,0.9866714678304561,2.2588484170192853,"[ 4.53623133e-06  3.37480392e-08  0.00000000e+00  0.00000000e+00
  0.00000000e+00 -2.64700335e-07  3.37480392e-08  3.63319445e-06
  0.00000000e+00  0.00000000e+00  0.00000000e+00 -8.47972181e-08
  0.00000000e+00  0.00000000e+00  0.00000000e+00  0.00000000e+00
  0.00000000e+00  0.00000000e+00  0.00000000e+00  0.00000000e+00
  0.00000000e+00  0.00000000e+00  0.00000000e+00  0.00000000e+00
  0.00000000e+00  0.00000000e+00  0.00000000e+00  0.00000000e+00
  0.00000000e+00  0.00000000e+00 -2.64700335e-07 -8.47972181e-08
  0.00000000e+00  0.00000000e+00  0.00000000e+00  2.59529413e-06]","[[ 9.11995346e-05  1.88855239e-03]
 [-5.27626975e-05  1.73147084e-03]]",[],0.0,0.0
1787209286.2735999,1.5510403915887425,0.9825845962251063,2.272624261132349,"[ 4.22681439e-06  2.48198942e-09  0.00000000e+00  0.00000000e+00
  0.00000000e+00 -2.56771565e-07  2.48198942e-09  3.42488991e-06
  0.00000000e+00  0.00000000e+00  0.00000000e+00 -8.43484869e-08
  0.00000000e+00  0.00000000e+00  0.00000000e+00  0.00000000e+00
  0.00000000e+00  0.00000000e+00  0.00000000e+00  0.00000000e+00
  0.00000000e+00  0.00000000e+00  0.00000000e+00  0.00000000e+00
  0.00000000e+00  0.00000000e+00  0.00000000e+00  0.00000000e+00
  0.00000000e+00  0.00000000e+00 -2.56771565e-07 -8.43484869e-08
  0.00000000e+00  0.00000000e+00  0.00000000e+00  2.62361698e-06]","[[ 8.53479213e-05  1.76395502e-03]
 [-5.03938495e-05  1.62743462e-03]]",[],0.0,0.0
1787209286.6998558,1.5519357078375808,0.9780575220565799,2.282517181650917,"[ 3.96707715e-06 -1.15198314e-08  0.00000000e+00  0.00000000e+00
  0.00000000e+00 -2.20829532e-07 -1.15198314e-08  3.22779089e-06
  0.00000000e+00  0.00000000e+00  0.00000000e+00 -6.96714045e-08
  0.00000000e+00  0.00000000e+00  0.00000000e+00  0.00000000e+00
  0.00000000e+00  0.00000000e+00  0.00000000e+00  0.00000000e+00
  0.00000000e+00  0.00000000e+00  0.00000000e+00  0.00000000e+00
  0.00000000e+00  0.00000000e+00  0.00000000e+00  0.00000000e+00
  0.00000000e+00  0.00000000e+00 -2.20829532e-07 -6.96714045e-08
  0.00000000e+00  0.00000000e+00  0.00000000e+00  2.53717448e-06]","[[ 8.02674531e-05  1.61573327e-03]
 [-4.78181710e-05  1.51060563e-03]]",[],0.0,0.0
1787209287.097952,1.5536393579009888,0.9739429242115707,2.2903018743793,"[ 3.74047456e-06 -3.21989556e-08  0.00000000e+00  0.00000000e+00
  0.00000000e+00 -2.24864163e-07 -3.21989556e-08  3.06189647e-06
  0.00000000e+00  0.00000000e+00  0.00000000e+00 -4.50887446e-08
  0.00000000e+00  0.00000000e+00  0.00000000e+00  0.00000000e+00
  0.00000000e+00  0.00000000e+00  0.00000000e+00  0.00000000e+00
  0.00000000e+00  0.00000000e+00  0.00000000e+00  0.00000000e+00
  0.00000000e+00  0.00000000e+00  0.00000000e+00  0.00000000e+00
  0.00000000e+00  0.00000000e+00 -2.24864163e-07 -4.50887446e-08
  0.00000000e+00  0.00000000e+00  0.00000000e+00  2.58855705e-06]","[[ 7.59417846e-05  1.54209444e-03]
 [-4.58521786e-05  1.38905352e-03]]",[],0.0,0.0
1787209287.5155854,1.555676178823604,0.9695954276277575,2.297421956631939,"[ 3.54884239e-06 -4.18303687e-08  0.00000000e+00  0.00000000e+00
  0.00000000e+00 -2.28344169e-07 -4.18303687e-08  2.93005845e-06
  0.00000000e+00  0.00000000e+00  0.00000000e+00 -5.16312864e-08
  0.00000000e+00  0.00000000e+00  0.00000000e+00  0.00000000e+00
  0.00000000e+00  0.00000000e+00  0.00000000e+00  0.00000000e+00
  0.00000000e+00  0.00000000e+00  0.00000000e+00  0.00000000e+00
  0.00000000e+00  0.00000000e+00  0.00000000e+00  0.00000000e+00
  0.00000000e+00  0.00000000e+00 -2.28344169e-07 -5.16312864e-08
  0.00000000e+00  0.00000000e+00  0.00000000e+00  2.64829156e-06]","[[ 7.21790303e-05  1.48281636e-03]
 [-4.41440015e-05  1.33753536e-03]]",[],0.0,0.0
1787209287.5228033,1.555676178823604,0.9695954276277575,2.297421956631939,"[ 3.54884239e-06 -4.18303687e-08  0.00000000e+00  0.00000000e+00
  0.00000000e+00 -2.28344169e-07 -4.18303687e-08  2.93005845e-06
  0.00000000e+00  0.00000000e+00  0.00000000e+00 -5.16312864e-08
  0.00000000e+00  0.00000000e+00  0.00000000e+00  0.00000000e+00
  0.00000000e+00  0.00000000e+00  0.00000000e+00  0.00000000e+00
  0.00000000e+00  0.00000000e+00  0.00000000e+00  0.00000000e+00
  0.00000000e+00  0.00000000e+00  0.00000000e+00  0.00000000e+00
  0.00000000e+00  0.00000000e+00 -2.28344169e-07 -5.16312864e-08
  0.00000000e+00  0.00000000e+00  0.00000000e+00  2.64829156e-06]","[[ 7.21790303e-05  1.48281636e-03]
 [-4.41440015e-05  1.33753536e-03]]",[],0.0,0.0
1787209287.9022,1.558190590106424,0.9660404204447858,2.302726811533933,"[ 3.36889981e-06 -5.51697862e-08  0.00000000e+00  0.00000000e+00
  0.00000000e+00 -2.05225305e-07 -5.51697862e-08  2.81023010e-06
  0.00000000e+00  0.00000000e+00  0.00000000e+00 -3.69533390e-08
  0.00000000e+00  0.00000000e+00  0.00000000e+00  0.00000000e+00
  0.00000000e+00  0.00000000e+00  0.00000000e+00  0.00000000e+00
  0.00000000e+00  0.00000000e+00  0.00000000e+00  0.00000000e+00
  0.00000000e+00  0.00000000e+00  0.00000000e+00  0.00000000e+00
  0.00000000e+00  0.00000000e+00 -2.05225305e-07 -3.69533390e-08
  0.00000000e+00  0.00000000e+00  0.00000000e+00  2.62154189e-06]","[[ 6.87114469e-05  1.38154001e-03]
 [-4.26837201e-05  1.25497860e-03]]",[],0.0,0.0
1787209288.2818437,1.5593482005002333,0.9620100781735693,2.3052693625386853,"[ 3.21363525e-06 -6.78336028e-08  0.00000000e+00  0.00000000e+00
  0.00000000e+00 -1.98907919e-07 -6.78336028e-08  2.70074215e-06
  0.00000000e+00  0.00000000e+00  0.00000000e+00 -3.30181134e-08
  0.00000000e+00  0.00000000e+00  0.00000000e+00  0.00000000e+00
  0.00000000e+00  0.00000000e+00  0.00000000e+00  0.00000000e+00
  0.00000000e+00  0.00000000e+00  0.00000000e+00  0.00000000e+00
  0.00000000e+00  0.00000000e+00  0.00000000e+00  0.00000000e+00
  0.00000000e+00  0.00000000e+00 -1.98907919e-07 -3.30181134e-08
  0.00000000e+00  0.00000000e+00  0.00000000e+00  2.58392203e-06]","[[ 6.57491022e-05  1.31581657e-03]
 [-4.13430453e-05  1.19535313e-03]]",[],0.0,0.0
1787209288.7435935,1.5604419353328411,0.9585720713984137,2.3076359406384332,"[ 3.06743981e-06 -7.73700762e-08  0.00000000e+00  0.00000000e+00
  0.00000000e+00 -1.70681246e-07 -7.73700762e-08  2.59977498e-06
  0.00000000e+00  0.00000000e+00  0.00000000e+00 -3.32706670e-08
  0.00000000e+00  0.00000000e+00  0.00000000e+00  0.00000000e+00
  0.00000000e+00  0.00000000e+00  0.00000000e+00  0.00000000e+00
  0.00000000e+00  0.00000000e+00  0.00000000e+00  0.00000000e+00
  0.00000000e+00  0.00000000e+00  0.00000000e+00  0.00000000e+00
  0.00000000e+00  0.00000000e+00 -1.70681246e-07 -3.32706670e-08
  0.00000000e+00  0.00000000e+00  0.00000000e+00  2.55875677e-06]","[[ 6.29086090e-05  1.21891226e-03]
 [-4.00829855e-05  1.14742934e-03]]",[],0.0,0.0
1787209289.1859262,1.5622974741724571,0.9549674179239305,2.3108382842417434,"[ 2.93405687e-06 -9.55523827e-08  0.00000000e+00  0.00000000e+00
  0.00000000e+00 -1.67206694e-07 -9.55523827e-08  2.50634809e-06
  0.00000000e+00  0.00000000e+00  0.00000000e+00 -1.96890649e-08
  0.00000000e+00  0.00000000e+00  0.00000000e+00  0.00000000e+00
  0.00000000e+00  0.00000000e+00  0.00000000e+00  0.00000000e+00
  0.00000000e+00  0.00000000e+00  0.00000000e+00  0.00000000e+00
  0.00000000e+00  0.00000000e+00  0.00000000e+00  0.00000000e+00
  0.00000000e+00  0.00000000e+00 -1.67206694e-07 -1.96890649e-08
  0.00000000e+00  0.00000000e+00  0.00000000e+00  2.64062943e-06]","[[ 6.04640094e-05  1.16322885e-03]
 [-3.90981246e-05  1.07752704e-03]]",[],0.0,0.0
1787209289.6003888,1.5634124082740808,0.9518920615108797,2.309898765149902,"[ 2.81601883e-06 -1.14599898e-07  0.00000000e+00  0.00000000e+00
  0.00000000e+00 -1.65354441e-07 -1.14599898e-07  2.41468022e-06
  0.00000000e+00  0.00000000e+00  0.00000000e+00 -1.64009443e-08
  0.00000000e+00  0.00000000e+00  0.00000000e+00  0.00000000e+00
  0.00000000e+00  0.00000000e+00  0.00000000e+00  0.00000000e+00
  0.00000000e+00  0.00000000e+00  0.00000000e+00  0.00000000e+00
  0.00000000e+00  0.00000000e+00  0.00000000e+00  0.00000000e+00
  0.00000000e+00  0.00000000e+00 -1.65354441e-07 -1.64009443e-08
  0.00000000e+00  0.00000000e+00  0.00000000e+00  2.61325397e-06]","[[ 5.83481814e-05  1.11441080e-03]
 [-3.81489637e-05  1.02510341e-03]]",[],0.0,0.0
1787209290.0736794,1.5642373003434444,0.9482752724784135,2.3130161935409497,"[ 2.71500573e-06 -1.30326916e-07  0.00000000e+00  0.00000000e+00
  0.00000000e+00 -1.43601402e-07 -1.30326916e-07  2.34284532e-06
  0.00000000e+00  0.00000000e+00  0.00000000e+00 -1.15298669e-08
  0.00000000e+00  0.00000000e+00  0.00000000e+00  0.00000000e+00
  0.00000000e+00  0.00000000e+00  0.00000000e+00  0.00000000e+00
  0.00000000e+00  0.00000000e+00  0.00000000e+00  0.00000000e+00
  0.00000000e+00  0.00000000e+00  0.00000000e+00  0.00000000e+00
  0.00000000e+00  0.00000000e+00 -1.43601402e-07 -1.15298669e-08
  0.00000000e+00  0.00000000e+00  0.00000000e+00  2.73756900e-06]","[[ 5.65276847e-05  1.03976907e-03]
 [-3.74253393e-05  9.80003163e-04]]",[],0.0,0.0
1787209290.5312662,1.5650988768171155,0.9452242265958419,2.316287137205867,"[ 2.62625602e-06 -1.52540737e-07  0.00000000e+00  0.00000000e+00
  0.00000000e+00 -1.53679548e-07 -1.52540737e-07  2.27565360e-06
  0.00000000e+00  0.00000000e+00  0.00000000e+00 -2.25488450e-08
  0.00000000e+00  0.00000000e+00  0.00000000e+00  0.00000000e+00
  0.00000000e+00  0.00000000e+00  0.00000000e+00  0.00000000e+00
  0.00000000e+00  0.00000000e+00  0.00000000e+00  0.00000000e+00
  0.00000000e+00  0.00000000e+00  0.00000000e+00  0.00000000e+00
  0.00000000e+00  0.00000000e+00 -1.53679548e-07 -2.25488450e-08
  0.00000000e+00  0.00000000e+00  0.00000000e+00  2.77382795e-06]","[[ 5.50452179e-05  1.01910781e-03]
 [-3.69075972e-05  9.61022598e-04]]",[],0.0,0.0
1787209290.5721884,1.5660368794686994,0.9423796708556589,2.3189605599411998,"[ 2.53964517e-06 -1.71010500e-07  0.00000000e+00  0.00000000e+00
  0.00000000e+00 -1.35970835e-07 -1.71010500e-07  2.21474564e-06
  0.00000000e+00  0.00000000e+00  0.00000000e+00 -8.27342910e-09
  0.00000000e+00  0.00000000e+00  0.00000000e+00  0.00000000e+00
  0.00000000e+00  0.00000000e+00  0.00000000e+00  0.00000000e+00
  0.00000000e+00  0.00000000e+00  0.00000000e+00  0.00000000e+00
  0.00000000e+00  0.00000000e+00  0.00000000e+00  0.00000000e+00
  0.00000000e+00  0.00000000e+00 -1.35970835e-07 -8.27342910e-09
  0.00000000e+00  0.00000000e+00  0.00000000e+00  2.69105227e-06]","[[ 5.35579854e-05  9.54675427e-04]
 [-3.63990995e-05  9.04360345e-04]]",[],0.0,0.0
1787209290.6204388,1.5660368794686994,0.9423796708556589,2.3189605599411998,"[ 2.53964517e-06 -1.71010500e-07  0.00000000e+00  0.00000000e+00
  0.00000000e+00 -1.35970835e-07 -1.71010500e-07  2.21474564e-06
  0.00000000e+00  0.00000000e+00  0.00000000e+00 -8.27342910e-09
  0.00000000e+00  0.00000000e+00  0.00000000e+00  0.00000000e+00
  0.00000000e+00  0.00000000e+00  0.00000000e+00  0.00000000e+00
  0.00000000e+00  0.00000000e+00  0.00000000e+00  0.00000000e+00
  0.00000000e+00  0.00000000e+00  0.00000000e+00  0.00000000e+00
  0.00000000e+00  0.00000000e+00 -1.35970835e-07 -8.27342910e-09
  0.00000000e+00  0.00000000e+00  0.00000000e+00  2.69105227e-06]","[[ 5.35579854e-05  9.54675427e-04]
 [-3.63990995e-05  9.04360345e-04]]",[],0.0,0.0
1787209290.6705287,1.5660368794686994,0.9423796708556589,2.3189605599411998,"[ 2.53964517e-06 -1.71010500e-07  0.00000000e+00  0.00000000e+00
  0.00000000e+00 -1.35970835e-07 -1.71010500e-07  2.21474564e-06
  0.00000000e+00  0.00000000e+00  0.00000000e+00 -8.27342910e-09
  0.00000000e+00  0.00000000e+00  0.00000000e+00  0.00000000e+00
  0.00000000e+00  0.00000000e+00  0.00000000e+00  0.00000000e+00
  0.00000000e+00  0.00000000e+00  0.00000000e+00  0.00000000e+00
  0.00000000e+00  0.00000000e+00  0.00000000e+00  0.00000000e+00
  0.00000000e+00  0.00000000e+00 -1.35970835e-07 -8.27342910e-09
  0.00000000e+00  0.00000000e+00  0.00000000e+00  2.69105227e-06]","[[ 5.35579854e-05  9.54675427e-04]
 [-3.63990995e-05  9.04360345e-04]]",[],0.0,0.0
1787209290.7206595,1.5660368794686994,0.9423796708556589,2.3189605599411998,"[ 2.53964517e-06 -1.71010500e-07  0.00000000e+00  0.00000000e+00
  0.00000000e+00 -1.35970835e-07 -1.71010500e-07  2.21474564e-06
  0.00000000e+00  0.00000000e+00  0.00000000e+00 -8.27342910e-09
  0.00000000e+00  0.00000000e+00  0.00000000e+00  0.00000000e+00
  0.00000000e+00  0.00000000e+00  0.00000000e+00  0.00000000e+00
  0.00000000e+00  0.00000000e+00  0.00000000e+00  0.00000000e+00
  0.00000000e+00  0.00000000e+00  0.00000000e+00  0.00000000e+00
  0.00000000e+00  0.00000000e+00 -1.35970835e-07 -8.27342910e-09
  0.00000000e+00  0.00000000e+00  0.00000000e+00  2.69105227e-06]","[[ 5.35579854e-05  9.54675427e-04]
 [-3.63990995e-05  9.04360345e-04]]",[],0.0,0.0
1787209290.769563,1.5660368794686994,0.9423796708556589,2.3189605599411998,"[ 2.53964517e-06 -1.71010500e-07  0.00000000e+00  0.00000000e+00
  0.00000000e+00 -1.35970835e-07 -1.71010500e-07  2.21474564e-06
  0.00000000e+00  0.00000000e+00  0.00000000e+00 -8.27342910e-09
  0.00000000e+00  0.00000000e+00  0.00000000e+00  0.00000000e+00
  0.00000000e+00  0.00000000e+00  0.00000000e+00  0.00000000e+00
  0.00000000e+00  0.00000000e+00  0.00000000e+00  0.00000000e+00
  0.00000000e+00  0.00000000e+00  0.00000000e+00  0.00000000e+00
  0.00000000e+00  0.00000000e+00 -1.35970835e-07 -8.27342910e-09
  0.00000000e+00  0.00000000e+00  0.00000000e+00  2.69105227e-06]","[[ 5.35579854e-05  9.54675427e-04]
 [-3.63990995e-05  9.04360345e-04]]",[],0.0,0.0
1787209290.8241098,1.5660368794686994,0.9423796708556589,2.3189605599411998,"[ 2.53964517e-06 -1.71010500e-07  0.00000000e+00  0.00000000e+00
  0.00000000e+00 -1.35970835e-07 -1.71010500e-07  2.21474564e-06
  0.00000000e+00  0.00000000e+00  0.00000000e+00 -8.27342910e-09
  0.00000000e+00  0.00000000e+00  0.00000000e+00  0.00000000e+00
  0.00000000e+00  0.00000000e+00  0.00000000e+00  0.00000000e+00
  0.00000000e+00  0.00000000e+00  0.00000000e+00  0.00000000e+00
  0.00000000e+00  0.00000000e+00  0.00000000e+00  0.00000000e+00
  0.00000000e+00  0.00000000e+00 -1.35970835e-07 -8.27342910e-09
  0.00000000e+00  0.00000000e+00  0.00000000e+00  2.69105227e-06]","[[ 5.35579854e-05  9.54675427e-04]
 [-3.63990995e-05  9.04360345e-04]]",[],0.0,0.0
1787209290.87561,1.5660368794686994,0.9423796708556589,2.3189605599411998,"[ 2.53964517e-06 -1.71010500e-07  0.00000000e+00  0.00000000e+00
  0.00000000e+00 -1.35970835e-07 -1.71010500e-07  2.21474564e-06
  0.00000000e+00  0.00000000e+00  0.00000000e+00 -8.27342910e-09
  0.00000000e+00  0.00000000e+00  0.00000000e+00  0.00000000e+00
  0.00000000e+00  0.00000000e+00  0.00000000e+00  0.00000000e+00
  0.00000000e+00  0.00000000e+00  0.00000000e+00  0.00000000e+00
  0.00000000e+00  0.00000000e+00  0.00000000e+00  0.00000000e+00
  0.00000000e+00  0.00000000e+00 -1.35970835e-07 -8.27342910e-09
  0.00000000e+00  0.00000000e+00  0.00000000e+00  2.69105227e-06]","[[ 5.35579854e-05  9.54675427e-04]
 [-3.63990995e-05  9.04360345e-04]]",[],0.0,0.0
1787209290.9202754,1.5660368794686994,0.9423796708556589,2.3189605599411998,"[ 2.53964517e-06 -1.71010500e-07  0.00000000e+00  0.00000000e+00
  0.00000000e+00 -1.35970835e-07 -1.71010500e-07  2.21474564e-06
  0.00000000e+00  0.00000000e+00  0.00000000e+00 -8.27342910e-09
  0.00000000e+00  0.00000000e+00  0.00000000e+00  0.00000000e+00
  0.00000000e+00  0.00000000e+00  0.00000000e+00  0.00000000e+00
  0.00000000e+00  0.00000000e+00  0.00000000e+00  0.00000000e+00
  0.00000000e+00  0.00000000e+00  0.00000000e+00  0.00000000e+00
  0.00000000e+00  0.00000000e+00 -1.35970835e-07 -8.27342910e-09
  0.00000000e+00  0.00000000e+00  0.00000000e+00  2.69105227e-06]","[[ 5.35579854e-05  9.54675427e-04]
 [-3.63990995e-05  9.04360345e-04]]",[],0.0,0.0
1787209290.9726624,1.5660368794686994,0.9423796708556589,2.3189605599411998,"[ 2.53964517e-06 -1.71010500e-07  0.00000000e+00  0.00000000e+00
  0.00000000e+00 -1.35970835e-07 -1.71010500e-07  2.21474564e-06
  0.00000000e+00  0.00000000e+00  0.00000000e+00 -8.27342910e-09
  0.00000000e+00  0.00000000e+00  0.00000000e+00  0.00000000e+00
  0.00000000e+00  0.00000000e+00  0.00000000e+00  0.00000000e+00
  0.00000000e+00  0.00000000e+00  0.00000000e+00  0.00000000e+00
  0.00000000e+00  0.00000000e+00  0.00000000e+00  0.00000000e+00
  0.00000000e+00  0.00000000e+00 -1.35970835e-07 -8.27342910e-09
  0.00000000e+00  0.00000000e+00  0.00000000e+00  2.69105227e-06]","[[ 5.35579854e-05  9.54675427e-04]
 [-3.63990995e-05  9.04360345e-04]]",[],0.0,0.0
1787209291.0266263,1.5660368794686994,0.9423796708556589,2.3189605599411998,"[ 2.53964517e-06 -1.71010500e-07  0.00000000e+00  0.00000000e+00
  0.00000000e+00 -1.35970835e-07 -1.71010500e-07  2.21474564e-06
  0.00000000e+00  0.00000000e+00  0.00000000e+00 -8.27342910e-09
  0.00000000e+00  0.00000000e+00  0.00000000e+00  0.00000000e+00
  0.00000000e+00  0.00000000e+00  0.00000000e+00  0.00000000e+00
  0.00000000e+00  0.00000000e+00  0.00000000e+00  0.00000000e+00
  0.00000000e+00  0.00000000e+00  0.00000000e+00  0.00000000e+00
  0.00000000e+00  0.00000000e+00 -1.35970835e-07 -8.27342910e-09
  0.00000000e+00  0.00000000e+00  0.00000000e+00  2.69105227e-06]","[[ 5.35579854e-05  9.54675427e-04]
 [-3.63990995e-05  9.04360345e-04]]",[],0.0,0.0
1787209291.0755062,1.5670534993012775,0.9395513491648404,2.3182922487901454,"[ 2.46781711e-06 -1.96316379e-07  0.00000000e+00  0.00000000e+00
  0.00000000e+00 -1.27343373e-07 -1.96316379e-07  2.16184945e-06
  0.00000000e+00  0.00000000e+00  0.00000000e+00 -5.92248454e-09
  0.00000000e+00  0.00000000e+00  0.00000000e+00  0.00000000e+00
  0.00000000e+00  0.00000000e+00  0.00000000e+00  0.00000000e+00
  0.00000000e+00  0.00000000e+00  0.00000000e+00  0.00000000e+00
  0.00000000e+00  0.00000000e+00  0.00000000e+00  0.00000000e+00
  0.00000000e+00  0.00000000e+00 -1.27343373e-07 -5.92248454e-09
  0.00000000e+00  0.00000000e+00  0.00000000e+00  2.79167386e-06]","[[ 5.24736893e-05  9.06978101e-04]
 [-3.61425340e-05  8.68809776e-04]]",[],0.0,0.0
1787209291.121751,1.5670534993012775,0.9395513491648404,2.3182922487901454,"[ 2.46781711e-06 -1.96316379e-07  0.00000000e+00  0.00000000e+00
  0.00000000e+00 -1.27343373e-07 -1.96316379e-07  2.16184945e-06
  0.00000000e+00  0.00000000e+00  0.00000000e+00 -5.92248454e-09
  0.00000000e+00  0.00000000e+00  0.00000000e+00  0.00000000e+00
  0.00000000e+00  0.00000000e+00  0.00000000e+00  0.00000000e+00
  0.00000000e+00  0.00000000e+00  0.00000000e+00  0.00000000e+00
  0.00000000e+00  0.00000000e+00  0.00000000e+00  0.00000000e+00
  0.00000000e+00  0.00000000e+00 -1.27343373e-07 -5.92248454e-09
  0.00000000e+00  0.00000000e+00  0.00000000e+00  2.79167386e-06]","[[ 5.24736893e-05  9.06978101e-04]
 [-3.61425340e-05  8.68809776e-04]]",[],0.0,0.0
1787209291.1755419,1.5670534993012775,0.9395513491648404,2.3182922487901454,"[ 2.46781711e-06 -1.96316379e-07  0.00000000e+00  0.00000000e+00
  0.00000000e+00 -1.27343373e-07 -1.96316379e-07  2.16184945e-06
  0.00000000e+00  0.00000000e+00  0.00000000e+00 -5.92248454e-09
  0.00000000e+00  0.00000000e+00  0.00000000e+00  0.00000000e+00
  0.00000000e+00  0.00000000e+00  0.00000000e+00  0.00000000e+00
  0.00000000e+00  0.00000000e+00  0.00000000e+00  0.00000000e+00
  0.00000000e+00  0.00000000e+00  0.00000000e+00  0.00000000e+00
  0.00000000e+00  0.00000000e+00 -1.27343373e-07 -5.92248454e-09
  0.00000000e+00  0.00000000e+00  0.00000000e+00  2.79167386e-06]","[[ 5.24736893e-05  9.06978101e-04]
 [-3.61425340e-05  8.68809776e-04]]",[],0.0,0.0
1787209291.2281024,1.5670534993012775,0.9395513491648404,2.3182922487901454,"[ 2.46781711e-06 -1.96316379e-07  0.00000000e+00  0.00000000e+00
  0.00000000e+00 -1.27343373e-07 -1.96316379e-07  2.16184945e-06
  0.00000000e+00  0.00000000e+00  0.00000000e+00 -5.92248454e-09
  0.00000000e+00  0.00000000e+00  0.00000000e+00  0.00000000e+00
  0.00000000e+00  0.00000000e+00  0.00000000e+00  0.00000000e+00
  0.00000000e+00  0.00000000e+00  0.00000000e+00  0.00000000e+00
  0.00000000e+00  0.00000000e+00  0.00000000e+00  0.00000000e+00
  0.00000000e+00  0.00000000e+00 -1.27343373e-07 -5.92248454e-09
  0.00000000e+00  0.00000000e+00  0.00000000e+00  2.79167386e-06]","[[ 5.24736893e-05  9.06978101e-04]
 [-3.61425340e-05  8.68809776e-04]]",[],0.0,0.0
1787209291.271497,1.5670534993012775,0.9395513491648404,2.3182922487901454,"[ 2.46781711e-06 -1.96316379e-07  0.00000000e+00  0.00000000e+00
  0.00000000e+00 -1.27343373e-07 -1.96316379e-07  2.16184945e-06
  0.00000000e+00  0.00000000e+00  0.00000000e+00 -5.92248454e-09
  0.00000000e+00  0.00000000e+00  0.00000000e+00  0.00000000e+00
  0.00000000e+00  0.00000000e+00  0.00000000e+00  0.00000000e+00
  0.00000000e+00  0.00000000e+00  0.00000000e+00  0.00000000e+00
  0.00000000e+00  0.00000000e+00  0.00000000e+00  0.00000000e+00
  0.00000000e+00  0.00000000e+00 -1.27343373e-07 -5.92248454e-09
  0.00000000e+00  0.00000000e+00  0.00000000e+00  2.79167386e-06]","[[ 5.24736893e-05  9.06978101e-04]
 [-3.61425340e-05  8.68809776e-04]]",[],0.0,0.0
1787209291.327042,1.5670534993012775,0.9395513491648404,2.3182922487901454,"[ 2.46781711e-06 -1.96316379e-07  0.00000000e+00  0.00000000e+00
  0.00000000e+00 -1.27343373e-07 -1.96316379e-07  2.16184945e-06
  0.00000000e+00  0.00000000e+00  0.00000000e+00 -5.92248454e-09
  0.00000000e+00  0.00000000e+00  0.00000000e+00  0.00000000e+00
  0.00000000e+00  0.00000000e+00  0.00000000e+00  0.00000000e+00
  0.00000000e+00  0.00000000e+00  0.00000000e+00  0.00000000e+00
  0.00000000e+00  0.00000000e+00  0.00000000e+00  0.00000000e+00
  0.00000000e+00  0.00000000e+00 -1.27343373e-07 -5.92248454e-09
  0.00000000e+00  0.00000000e+00  0.00000000e+00  2.79167386e-06]","[[ 5.24736893e-05  9.06978101e-04]
 [-3.61425340e-05  8.68809776e-04]]",[],0.0,0.0
1787209291.3701699,1.5670534993012775,0.9395513491648404,2.3182922487901454,"[ 2.46781711e-06 -1.96316379e-07  0.00000000e+00  0.00000000e+00
  0.00000000e+00 -1.27343373e-07 -1.96316379e-07  2.16184945e-06
  0.00000000e+00  0.00000000e+00  0.00000000e+00 -5.92248454e-09
  0.00000000e+00  0.00000000e+00  0.00000000e+00  0.00000000e+00
  0.00000000e+00  0.00000000e+00  0.00000000e+00  0.00000000e+00
  0.00000000e+00  0.00000000e+00  0.00000000e+00  0.00000000e+00
  0.00000000e+00  0.00000000e+00  0.00000000e+00  0.00000000e+00
  0.00000000e+00  0.00000000e+00 -1.27343373e-07 -5.92248454e-09
  0.00000000e+00  0.00000000e+00  0.00000000e+00  2.79167386e-06]","[[ 5.24736893e-05  9.06978101e-04]
 [-3.61425340e-05  8.68809776e-04]]",[],0.0,0.0
1787209291.43248,1.5670534993012775,0.9395513491648404,2.3182922487901454,"[ 2.46781711e-06 -1.96316379e-07  0.00000000e+00  0.00000000e+00
  0.00000000e+00 -1.27343373e-07 -1.96316379e-07  2.16184945e-06
  0.00000000e+00  0.00000000e+00  0.00000000e+00 -5.92248454e-09
  0.00000000e+00  0.00000000e+00  0.00000000e+00  0.00000000e+00
  0.00000000e+00  0.00000000e+00  0.00000000e+00  0.00000000e+00
  0.00000000e+00  0.00000000e+00  0.00000000e+00  0.00000000e+00
  0.00000000e+00  0.00000000e+00  0.00000000e+00  0.00000000e+00
  0.00000000e+00  0.00000000e+00 -1.27343373e-07 -5.92248454e-09
  0.00000000e+00  0.00000000e+00  0.00000000e+00  2.79167386e-06]","[[ 5.24736893e-05  9.06978101e-04]
 [-3.61425340e-05  8.68809776e-04]]",[],0.0,0.0
1787209291.4702973,1.5670534993012775,0.9395513491648404,2.3182922487901454,"[ 2.46781711e-06 -1.96316379e-07  0.00000000e+00  0.00000000e+00
  0.00000000e+00 -1.27343373e-07 -1.96316379e-07  2.16184945e-06
  0.00000000e+00  0.00000000e+00  0.00000000e+00 -5.92248454e-09
  0.00000000e+00  0.00000000e+00  0.00000000e+00  0.00000000e+00
  0.00000000e+00  0.00000000e+00  0.00000000e+00  0.00000000e+00
  0.00000000e+00  0.00000000e+00  0.00000000e+00  0.00000000e+00
  0.00000000e+00  0.00000000e+00  0.00000000e+00  0.00000000e+00
  0.00000000e+00  0.00000000e+00 -1.27343373e-07 -5.92248454e-09
  0.00000000e+00  0.00000000e+00  0.00000000e+00  2.79167386e-06]","[[ 5.24736893e-05  9.06978101e-04]
 [-3.61425340e-05  8.68809776e-04]]",[],0.0,0.0
1787209291.5225306,1.5670534993012775,0.9395513491648404,2.3182922487901454,"[ 2.46781711e-06 -1.96316379e-07  0.00000000e+00  0.00000000e+00
  0.00000000e+00 -1.27343373e-07 -1.96316379e-07  2.16184945e-06
  0.00000000e+00  0.00000000e+00  0.00000000e+00 -5.92248454e-09
  0.00000000e+00  0.00000000e+00  0.00000000e+00  0.00000000e+00
  0.00000000e+00  0.00000000e+00  0.00000000e+00  0.00000000e+00
  0.00000000e+00  0.00000000e+00  0.00000000e+00  0.00000000e+00
  0.00000000e+00  0.00000000e+00  0.00000000e+00  0.00000000e+00
  0.00000000e+00  0.00000000e+00 -1.27343373e-07 -5.92248454e-09
  0.00000000e+00  0.00000000e+00  0.00000000e+00  2.79167386e-06]","[[ 5.24736893e-05  9.06978101e-04]
 [-3.61425340e-05  8.68809776e-04]]",[],0.0,0.0
1787209291.5744886,1.568731173862405,0.9367160396874717,2.3135542489921725,"[ 2.40134986e-06 -2.15357382e-07  0.00000000e+00  0.00000000e+00
  0.00000000e+00 -1.32978104e-07 -2.15357382e-07  2.11494417e-06
  0.00000000e+00  0.00000000e+00  0.00000000e+00  3.72318959e-09
  0.00000000e+00  0.00000000e+00  0.00000000e+00  0.00000000e+00
  0.00000000e+00  0.00000000e+00  0.00000000e+00  0.00000000e+00
  0.00000000e+00  0.00000000e+00  0.00000000e+00  0.00000000e+00
  0.00000000e+00  0.00000000e+00  0.00000000e+00  0.00000000e+00
  0.00000000e+00  0.00000000e+00 -1.32978104e-07  3.72318959e-09
  0.00000000e+00  0.00000000e+00  0.00000000e+00  2.84013360e-06]","[[ 5.14059630e-05  8.87224232e-04]
 [-3.58471409e-05  8.25779995e-04]]",[],0.0,0.0
1787209291.6383448,1.568731173862405,0.9367160396874717,2.3135542489921725,"[ 2.40134986e-06 -2.15357382e-07  0.00000000e+00  0.00000000e+00
  0.00000000e+00 -1.32978104e-07 -2.15357382e-07  2.11494417e-06
  0.00000000e+00  0.00000000e+00  0.00000000e+00  3.72318959e-09
  0.00000000e+00  0.00000000e+00  0.00000000e+00  0.00000000e+00
  0.00000000e+00  0.00000000e+00  0.00000000e+00  0.00000000e+00
  0.00000000e+00  0.00000000e+00  0.00000000e+00  0.00000000e+00
  0.00000000e+00  0.00000000e+00  0.00000000e+00  0.00000000e+00
  0.00000000e+00  0.00000000e+00 -1.32978104e-07  3.72318959e-09
  0.00000000e+00  0.00000000e+00  0.00000000e+00  2.84013360e-06]","[[ 5.14059630e-05  8.87224232e-04]
 [-3.58471409e-05  8.25779995e-04]]",[],0.0,0.0
1787209291.6698174,1.568731173862405,0.9367160396874717,2.3135542489921725,"[ 2.40134986e-06 -2.15357382e-07  0.00000000e+00  0.00000000e+00
  0.00000000e+00 -1.32978104e-07 -2.15357382e-07  2.11494417e-06
  0.00000000e+00  0.00000000e+00  0.00000000e+00  3.72318959e-09
  0.00000000e+00  0.00000000e+00  0.00000000e+00  0.00000000e+00
  0.00000000e+00  0.00000000e+00  0.00000000e+00  0.00000000e+00
  0.00000000e+00  0.00000000e+00  0.00000000e+00  0.00000000e+00
  0.00000000e+00  0.00000000e+00  0.00000000e+00  0.00000000e+00
  0.00000000e+00  0.00000000e+00 -1.32978104e-07  3.72318959e-09
  0.00000000e+00  0.00000000e+00  0.00000000e+00  2.84013360e-06]","[[ 5.14059630e-05  8.87224232e-04]
 [-3.58471409e-05  8.25779995e-04]]",[],0.0,0.0
1787209291.7313516,1.568731173862405,0.9367160396874717,2.3135542489921725,"[ 2.40134986e-06 -2.15357382e-07  0.00000000e+00  0.00000000e+00
  0.00000000e+00 -1.32978104e-07 -2.15357382e-07  2.11494417e-06
  0.00000000e+00  0.00000000e+00  0.00000000e+00  3.72318959e-09
  0.00000000e+00  0.00000000e+00  0.00000000e+00  0.00000000e+00
  0.00000000e+00  0.00000000e+00  0.00000000e+00  0.00000000e+00
  0.00000000e+00  0.00000000e+00  0.00000000e+00  0.00000000e+00
  0.00000000e+00  0.00000000e+00  0.00000000e+00  0.00000000e+00
  0.00000000e+00  0.00000000e+00 -1.32978104e-07  3.72318959e-09
  0.00000000e+00  0.00000000e+00  0.00000000e+00  2.84013360e-06]","[[ 5.14059630e-05  8.87224232e-04]
 [-3.58471409e-05  8.25779995e-04]]",[],0.0,0.0
1787209291.7738755,1.568731173862405,0.9367160396874717,2.3135542489921725,"[ 2.40134986e-06 -2.15357382e-07  0.00000000e+00  0.00000000e+00
  0.00000000e+00 -1.32978104e-07 -2.15357382e-07  2.11494417e-06
  0.00000000e+00  0.00000000e+00  0.00000000e+00  3.72318959e-09
  0.00000000e+00  0.00000000e+00  0.00000000e+00  0.00000000e+00
  0.00000000e+00  0.00000000e+00  0.00000000e+00  0.00000000e+00
  0.00000000e+00  0.00000000e+00  0.00000000e+00  0.00000000e+00
  0.00000000e+00  0.00000000e+00  0.00000000e+00  0.00000000e+00
  0.00000000e+00  0.00000000e+00 -1.32978104e-07  3.72318959e-09
  0.00000000e+00  0.00000000e+00  0.00000000e+00  2.84013360e-06]","[[ 5.14059630e-05  8.87224232e-04]
 [-3.58471409e-05  8.25779995e-04]]",[],0.0,0.0
1787209291.8345516,1.568731173862405,0.9367160396874717,2.3135542489921725,"[ 2.40134986e-06 -2.15357382e-07  0.00000000e+00  0.00000000e+00
  0.00000000e+00 -1.32978104e-07 -2.15357382e-07  2.11494417e-06
  0.00000000e+00  0.00000000e+00  0.00000000e+00  3.72318959e-09
  0.00000000e+00  0.00000000e+00  0.00000000e+00  0.00000000e+00
  0.00000000e+00  0.00000000e+00  0.00000000e+00  0.00000000e+00
  0.00000000e+00  0.00000000e+00  0.00000000e+00  0.00000000e+00
  0.00000000e+00  0.00000000e+00  0.00000000e+00  0.00000000e+00
  0.00000000e+00  0.00000000e+00 -1.32978104e-07  3.72318959e-09
  0.00000000e+00  0.00000000e+00  0.00000000e+00  2.84013360e-06]","[[ 5.14059630e-05  8.87224232e-04]
 [-3.58471409e-05  8.25779995e-04]]",[],0.0,0.0
1787209291.8703275,1.568731173862405,0.9367160396874717,2.3135542489921725,"[ 2.40134986e-06 -2.15357382e-07  0.00000000e+00  0.00000000e+00
  0.00000000e+00 -1.32978104e-07 -2.15357382e-07  2.11494417e-06
  0.00000000e+00  0.00000000e+00  0.00000000e+00  3.72318959e-09
  0.00000000e+00  0.00000000e+00  0.00000000e+00  0.00000000e+00
  0.00000000e+00  0.00000000e+00  0.00000000e+00  0.00000000e+00
  0.00000000e+00  0.00000000e+00  0.00000000e+00  0.00000000e+00
  0.00000000e+00  0.00000000e+00  0.00000000e+00  0.00000000e+00
  0.00000000e+00  0.00000000e+00 -1.32978104e-07  3.72318959e-09
  0.00000000e+00  0.00000000e+00  0.00000000e+00  2.84013360e-06]","[[ 5.14059630e-05  8.87224232e-04]
 [-3.58471409e-05  8.25779995e-04]]",[],0.0,0.0
1787209291.9331956,1.568731173862405,0.9367160396874717,2.3135542489921725,"[ 2.40134986e-06 -2.15357382e-07  0.00000000e+00  0.00000000e+00
  0.00000000e+00 -1.32978104e-07 -2.15357382e-07  2.11494417e-06
  0.00000000e+00  0.00000000e+00  0.00000000e+00  3.72318959e-09
  0.00000000e+00  0.00000000e+00  0.00000000e+00  0.00000000e+00
  0.00000000e+00  0.00000000e+00  0.00000000e+00  0.00000000e+00
  0.00000000e+00  0.00000000e+00  0.00000000e+00  0.00000000e+00
  0.00000000e+00  0.00000000e+00  0.00000000e+00  0.00000000e+00
  0.00000000e+00  0.00000000e+00 -1.32978104e-07  3.72318959e-09
  0.00000000e+00  0.00000000e+00  0.00000000e+00  2.84013360e-06]","[[ 5.14059630e-05  8.87224232e-04]
 [-3.58471409e-05  8.25779995e-04]]",[],0.0,0.0
1787209291.969821,1.568731173862405,0.9367160396874717,2.3135542489921725,"[ 2.40134986e-06 -2.15357382e-07  0.00000000e+00  0.00000000e+00
  0.00000000e+00 -1.32978104e-07 -2.15357382e-07  2.11494417e-06
  0.00000000e+00  0.00000000e+00  0.00000000e+00  3.72318959e-09
  0.00000000e+00  0.00000000e+00  0.00000000e+00  0.00000000e+00
  0.00000000e+00  0.00000000e+00  0.00000000e+00  0.00000000e+00
  0.00000000e+00  0.00000000e+00  0.00000000e+00  0.00000000e+00
  0.00000000e+00  0.00000000e+00  0.00000000e+00  0.00000000e+00
  0.00000000e+00  0.00000000e+00 -1.32978104e-07  3.72318959e-09
  0.00000000e+00  0.00000000e+00  0.00000000e+00  2.84013360e-06]","[[ 5.14059630e-05  8.87224232e-04]
 [-3.58471409e-05  8.25779995e-04]]",[],0.0,0.0
1787209292.0329592,1.5693984186861791,0.9341214198000269,2.313369143733471,"[ 2.33471293e-06 -2.28024951e-07  0.00000000e+00  0.00000000e+00
  0.00000000e+00 -1.26812196e-07 -2.28024951e-07  2.06334644e-06
  0.00000000e+00  0.00000000e+00  0.00000000e+00 -3.10883077e-09
  0.00000000e+00  0.00000000e+00  0.00000000e+00  0.00000000e+00
  0.00000000e+00  0.00000000e+00  0.00000000e+00  0.00000000e+00
  0.00000000e+00  0.00000000e+00  0.00000000e+00  0.00000000e+00
  0.00000000e+00  0.00000000e+00  0.00000000e+00  0.00000000e+00
  0.00000000e+00  0.00000000e+00 -1.26812196e-07 -3.10883077e-09
  0.00000000e+00  0.00000000e+00  0.00000000e+00  2.72616876e-06]","[[ 5.02450061e-05  8.50386931e-04]
 [-3.53478060e-05  8.10029895e-04]]",[],0.0,0.0
1787209292.0700247,1.5693984186861791,0.9341214198000269,2.313369143733471,"[ 2.33471293e-06 -2.28024951e-07  0.00000000e+00  0.00000000e+00
  0.00000000e+00 -1.26812196e-07 -2.28024951e-07  2.06334644e-06
  0.00000000e+00  0.00000000e+00  0.00000000e+00 -3.10883077e-09
  0.00000000e+00  0.00000000e+00  0.00000000e+00  0.00000000e+00
  0.00000000e+00  0.00000000e+00  0.00000000e+00  0.00000000e+00
  0.00000000e+00  0.00000000e+00  0.00000000e+00  0.00000000e+00
  0.00000000e+00  0.00000000e+00  0.00000000e+00  0.00000000e+00
  0.00000000e+00  0.00000000e+00 -1.26812196e-07 -3.10883077e-09
  0.00000000e+00  0.00000000e+00  0.00000000e+00  2.72616876e-06]","[[ 5.02450061e-05  8.50386931e-04]
 [-3.53478060e-05  8.10029895e-04]]",[],0.0,0.0
1787209292.1262546,1.5693984186861791,0.9341214198000269,2.313369143733471,"[ 2.33471293e-06 -2.28024951e-07  0.00000000e+00  0.00000000e+00
  0.00000000e+00 -1.26812196e-07 -2.28024951e-07  2.06334644e-06
  0.00000000e+00  0.00000000e+00  0.00000000e+00 -3.10883077e-09
  0.00000000e+00  0.00000000e+00  0.00000000e+00  0.00000000e+00
  0.00000000e+00  0.00000000e+00  0.00000000e+00  0.00000000e+00
  0.00000000e+00  0.00000000e+00  0.00000000e+00  0.00000000e+00
  0.00000000e+00  0.00000000e+00  0.00000000e+00  0.00000000e+00
  0.00000000e+00  0.00000000e+00 -1.26812196e-07 -3.10883077e-09
  0.00000000e+00  0.00000000e+00  0.00000000e+00  2.72616876e-06]","[[ 5.02450061e-05  8.50386931e-04]
 [-3.53478060e-05  8.10029895e-04]]",[],0.0,0.0
1787209292.1709843,1.5693984186861791,0.9341214198000269,2.313369143733471,"[ 2.33471293e-06 -2.28024951e-07  0.00000000e+00  0.00000000e+00
  0.00000000e+00 -1.26812196e-07 -2.28024951e-07  2.06334644e-06
  0.00000000e+00  0.00000000e+00  0.00000000e+00 -3.10883077e-09
  0.00000000e+00  0.00000000e+00  0.00000000e+00  0.00000000e+00
  0.00000000e+00  0.00000000e+00  0.00000000e+00  0.00000000e+00
  0.00000000e+00  0.00000000e+00  0.00000000e+00  0.00000000e+00
  0.00000000e+00  0.00000000e+00  0.00000000e+00  0.00000000e+00
  0.00000000e+00  0.00000000e+00 -1.26812196e-07 -3.10883077e-09
  0.00000000e+00  0.00000000e+00  0.00000000e+00  2.72616876e-06]","[[ 5.02450061e-05  8.50386931e-04]
 [-3.53478060e-05  8.10029895e-04]]",[],0.0,0.0
1787209292.2513554,1.5693984186861791,0.9341214198000269,2.313369143733471,"[ 2.33471293e-06 -2.28024951e-07  0.00000000e+00  0.00000000e+00
  0.00000000e+00 -1.26812196e-07 -2.28024951e-07  2.06334644e-06
  0.00000000e+00  0.00000000e+00  0.00000000e+00 -3.10883077e-09
  0.00000000e+00  0.00000000e+00  0.00000000e+00  0.00000000e+00
  0.00000000e+00  0.00000000e+00  0.00000000e+00  0.00000000e+00
  0.00000000e+00  0.00000000e+00  0.00000000e+00  0.00000000e+00
  0.00000000e+00  0.00000000e+00  0.00000000e+00  0.00000000e+00
  0.00000000e+00  0.00000000e+00 -1.26812196e-07 -3.10883077e-09
  0.00000000e+00  0.00000000e+00  0.00000000e+00  2.72616876e-06]","[[ 5.02450061e-05  8.50386931e-04]
 [-3.53478060e-05  8.10029895e-04]]",[],0.0,0.0
1787209292.270294,1.5693984186861791,0.9341214198000269,2.313369143733471,"[ 2.33471293e-06 -2.28024951e-07  0.00000000e+00  0.00000000e+00
  0.00000000e+00 -1.26812196e-07 -2.28024951e-07  2.06334644e-06
  0.00000000e+00  0.00000000e+00  0.00000000e+00 -3.10883077e-09
  0.00000000e+00  0.00000000e+00  0.00000000e+00  0.00000000e+00
  0.00000000e+00  0.00000000e+00  0.00000000e+00  0.00000000e+00
  0.00000000e+00  0.00000000e+00  0.00000000e+00  0.00000000e+00
  0.00000000e+00  0.00000000e+00  0.00000000e+00  0.00000000e+00
  0.00000000e+00  0.00000000e+00 -1.26812196e-07 -3.10883077e-09
  0.00000000e+00  0.00000000e+00  0.00000000e+00  2.72616876e-06]","[[ 5.02450061e-05  8.50386931e-04]
 [-3.53478060e-05  8.10029895e-04]]",[],0.0,0.0
1787209292.3238642,1.5693984186861791,0.9341214198000269,2.313369143733471,"[ 2.33471293e-06 -2.28024951e-07  0.00000000e+00  0.00000000e+00
  0.00000000e+00 -1.26812196e-07 -2.28024951e-07  2.06334644e-06
  0.00000000e+00  0.00000000e+00  0.00000000e+00 -3.10883077e-09
  0.00000000e+00  0.00000000e+00  0.00000000e+00  0.00000000e+00
  0.00000000e+00  0.00000000e+00  0.00000000e+00  0.00000000e+00
  0.00000000e+00  0.00000000e+00  0.00000000e+00  0.00000000e+00
  0.00000000e+00  0.00000000e+00  0.00000000e+00  0.00000000e+00
  0.00000000e+00  0.00000000e+00 -1.26812196e-07 -3.10883077e-09
  0.00000000e+00  0.00000000e+00  0.00000000e+00  2.72616876e-06]","[[ 5.02450061e-05  8.50386931e-04]
 [-3.53478060e-05  8.10029895e-04]]",[],0.0,0.0
1787209292.3698497,1.5693984186861791,0.9341214198000269,2.313369143733471,"[ 2.33471293e-06 -2.28024951e-07  0.00000000e+00  0.00000000e+00
  0.00000000e+00 -1.26812196e-07 -2.28024951e-07  2.06334644e-06
  0.00000000e+00  0.00000000e+00  0.00000000e+00 -3.10883077e-09
  0.00000000e+00  0.00000000e+00  0.00000000e+00  0.00000000e+00
  0.00000000e+00  0.00000000e+00  0.00000000e+00  0.00000000e+00
  0.00000000e+00  0.00000000e+00  0.00000000e+00  0.00000000e+00
  0.00000000e+00  0.00000000e+00  0.00000000e+00  0.00000000e+00
  0.00000000e+00  0.00000000e+00 -1.26812196e-07 -3.10883077e-09
  0.00000000e+00  0.00000000e+00  0.00000000e+00  2.72616876e-06]","[[ 5.02450061e-05  8.50386931e-04]
 [-3.53478060e-05  8.10029895e-04]]",[],0.0,0.0
1787209292.4372787,1.5693984186861791,0.9341214198000269,2.313369143733471,"[ 2.33471293e-06 -2.28024951e-07  0.00000000e+00  0.00000000e+00
  0.00000000e+00 -1.26812196e-07 -2.28024951e-07  2.06334644e-06
  0.00000000e+00  0.00000000e+00  0.00000000e+00 -3.10883077e-09
  0.00000000e+00  0.00000000e+00  0.00000000e+00  0.00000000e+00
  0.00000000e+00  0.00000000e+00  0.00000000e+00  0.00000000e+00
  0.00000000e+00  0.00000000e+00  0.00000000e+00  0.00000000e+00
  0.00000000e+00  0.00000000e+00  0.00000000e+00  0.00000000e+00
  0.00000000e+00  0.00000000e+00 -1.26812196e-07 -3.10883077e-09
  0.00000000e+00  0.00000000e+00  0.00000000e+00  2.72616876e-06]","[[ 5.02450061e-05  8.50386931e-04]
 [-3.53478060e-05  8.10029895e-04]]",[],0.0,0.0
1787209292.4699926,1.5699436660291826,0.9316901632672682,2.3163891900969933,"[ 2.27449139e-06 -2.40476405e-07  0.00000000e+00  0.00000000e+00
  0.00000000e+00 -1.21523789e-07 -2.40476405e-07  2.01662370e-06
  0.00000000e+00  0.00000000e+00  0.00000000e+00 -4.86821049e-09
  0.00000000e+00  0.00000000e+00  0.00000000e+00  0.00000000e+00
  0.00000000e+00  0.00000000e+00  0.00000000e+00  0.00000000e+00
  0.00000000e+00  0.00000000e+00  0.00000000e+00  0.00000000e+00
  0.00000000e+00  0.00000000e+00  0.00000000e+00  0.00000000e+00
  0.00000000e+00  0.00000000e+00 -1.21523789e-07 -4.86821049e-09
  0.00000000e+00  0.00000000e+00  0.00000000e+00  2.73131912e-06]","[[ 4.92067195e-05  8.17474200e-04]
 [-3.49206812e-05  7.88230199e-04]]",[],0.0,0.0
1787209292.5582829,1.5699436660291826,0.9316901632672682,2.3163891900969933,"[ 2.27449139e-06 -2.40476405e-07  0.00000000e+00  0.00000000e+00
  0.00000000e+00 -1.21523789e-07 -2.40476405e-07  2.01662370e-06
  0.00000000e+00  0.00000000e+00  0.00000000e+00 -4.86821049e-09
  0.00000000e+00  0.00000000e+00  0.00000000e+00  0.00000000e+00
  0.00000000e+00  0.00000000e+00  0.00000000e+00  0.00000000e+00
  0.00000000e+00  0.00000000e+00  0.00000000e+00  0.00000000e+00
  0.00000000e+00  0.00000000e+00  0.00000000e+00  0.00000000e+00
  0.00000000e+00  0.00000000e+00 -1.21523789e-07 -4.86821049e-09
  0.00000000e+00  0.00000000e+00  0.00000000e+00  2.73131912e-06]","[[ 4.92067195e-05  8.17474200e-04]
 [-3.49206812e-05  7.88230199e-04]]",[],0.0,0.0
1787209292.5719082,1.5699436660291826,0.9316901632672682,2.3163891900969933,"[ 2.27449139e-06 -2.40476405e-07  0.00000000e+00  0.00000000e+00
  0.00000000e+00 -1.21523789e-07 -2.40476405e-07  2.01662370e-06
  0.00000000e+00  0.00000000e+00  0.00000000e+00 -4.86821049e-09
  0.00000000e+00  0.00000000e+00  0.00000000e+00  0.00000000e+00
  0.00000000e+00  0.00000000e+00  0.00000000e+00  0.00000000e+00
  0.00000000e+00  0.00000000e+00  0.00000000e+00  0.00000000e+00
  0.00000000e+00  0.00000000e+00  0.00000000e+00  0.00000000e+00
  0.00000000e+00  0.00000000e+00 -1.21523789e-07 -4.86821049e-09
  0.00000000e+00  0.00000000e+00  0.00000000e+00  2.73131912e-06]","[[ 4.92067195e-05  8.17474200e-04]
 [-3.49206812e-05  7.88230199e-04]]",[],0.0,0.0
1787209292.621512,1.5699436660291826,0.9316901632672682,2.3163891900969933,"[ 2.27449139e-06 -2.40476405e-07  0.00000000e+00  0.00000000e+00
  0.00000000e+00 -1.21523789e-07 -2.40476405e-07  2.01662370e-06
  0.00000000e+00  0.00000000e+00  0.00000000e+00 -4.86821049e-09
  0.00000000e+00  0.00000000e+00  0.00000000e+00  0.00000000e+00
  0.00000000e+00  0.00000000e+00  0.00000000e+00  0.00000000e+00
  0.00000000e+00  0.00000000e+00  0.00000000e+00  0.00000000e+00
  0.00000000e+00  0.00000000e+00  0.00000000e+00  0.00000000e+00
  0.00000000e+00  0.00000000e+00 -1.21523789e-07 -4.86821049e-09
  0.00000000e+00  0.00000000e+00  0.00000000e+00  2.73131912e-06]","[[ 4.92067195e-05  8.17474200e-04]
 [-3.49206812e-05  7.88230199e-04]]",[],0.0,0.0
1787209292.6735747,1.5699436660291826,0.9316901632672682,2.3163891900969933,"[ 2.27449139e-06 -2.40476405e-07  0.00000000e+00  0.00000000e+00
  0.00000000e+00 -1.21523789e-07 -2.40476405e-07  2.01662370e-06
  0.00000000e+00  0.00000000e+00  0.00000000e+00 -4.86821049e-09
  0.00000000e+00  0.00000000e+00  0.00000000e+00  0.00000000e+00
  0.00000000e+00  0.00000000e+00  0.00000000e+00  0.00000000e+00
  0.00000000e+00  0.00000000e+00  0.00000000e+00  0.00000000e+00
  0.00000000e+00  0.00000000e+00  0.00000000e+00  0.00000000e+00
  0.00000000e+00  0.00000000e+00 -1.21523789e-07 -4.86821049e-09
  0.00000000e+00  0.00000000e+00  0.00000000e+00  2.73131912e-06]","[[ 4.92067195e-05  8.17474200e-04]
 [-3.49206812e-05  7.88230199e-04]]",[],0.0,0.0
1787209292.7482169,1.5699436660291826,0.9316901632672682,2.3163891900969933,"[ 2.27449139e-06 -2.40476405e-07  0.00000000e+00  0.00000000e+00
  0.00000000e+00 -1.21523789e-07 -2.40476405e-07  2.01662370e-06
  0.00000000e+00  0.00000000e+00  0.00000000e+00 -4.86821049e-09
  0.00000000e+00  0.00000000e+00  0.00000000e+00  0.00000000e+00
  0.00000000e+00  0.00000000e+00  0.00000000e+00  0.00000000e+00
  0.00000000e+00  0.00000000e+00  0.00000000e+00  0.00000000e+00
  0.00000000e+00  0.00000000e+00  0.00000000e+00  0.00000000e+00
  0.00000000e+00  0.00000000e+00 -1.21523789e-07 -4.86821049e-09
  0.00000000e+00  0.00000000e+00  0.00000000e+00  2.73131912e-06]","[[ 4.92067195e-05  8.17474200e-04]
 [-3.49206812e-05  7.88230199e-04]]",[],0.0,0.0
1787209292.770796,1.5699436660291826,0.9316901632672682,2.3163891900969933,"[ 2.27449139e-06 -2.40476405e-07  0.00000000e+00  0.00000000e+00
  0.00000000e+00 -1.21523789e-07 -2.40476405e-07  2.01662370e-06
  0.00000000e+00  0.00000000e+00  0.00000000e+00 -4.86821049e-09
  0.00000000e+00  0.00000000e+00  0.00000000e+00  0.00000000e+00
  0.00000000e+00  0.00000000e+00  0.00000000e+00  0.00000000e+00
  0.00000000e+00  0.00000000e+00  0.00000000e+00  0.00000000e+00
  0.00000000e+00  0.00000000e+00  0.00000000e+00  0.00000000e+00
  0.00000000e+00  0.00000000e+00 -1.21523789e-07 -4.86821049e-09
  0.00000000e+00  0.00000000e+00  0.00000000e+00  2.73131912e-06]","[[ 4.92067195e-05  8.17474200e-04]
 [-3.49206812e-05  7.88230199e-04]]",[],0.0,0.0
1787209292.8198533,1.5699436660291826,0.9316901632672682,2.3163891900969933,"[ 2.27449139e-06 -2.40476405e-07  0.00000000e+00  0.00000000e+00
  0.00000000e+00 -1.21523789e-07 -2.40476405e-07  2.01662370e-06
  0.00000000e+00  0.00000000e+00  0.00000000e+00 -4.86821049e-09
  0.00000000e+00  0.00000000e+00  0.00000000e+00  0.00000000e+00
  0.00000000e+00  0.00000000e+00  0.00000000e+00  0.00000000e+00
  0.00000000e+00  0.00000000e+00  0.00000000e+00  0.00000000e+00
  0.00000000e+00  0.00000000e+00  0.00000000e+00  0.00000000e+00
  0.00000000e+00  0.00000000e+00 -1.21523789e-07 -4.86821049e-09
  0.00000000e+00  0.00000000e+00  0.00000000e+00  2.73131912e-06]","[[ 4.92067195e-05  8.17474200e-04]
 [-3.49206812e-05  7.88230199e-04]]",[],0.0,0.0
1787209292.9151847,1.5699436660291826,0.9316901632672682,2.3163891900969933,"[ 2.27449139e-06 -2.40476405e-07  0.00000000e+00  0.00000000e+00
  0.00000000e+00 -1.21523789e-07 -2.40476405e-07  2.01662370e-06
  0.00000000e+00  0.00000000e+00  0.00000000e+00 -4.86821049e-09
  0.00000000e+00  0.00000000e+00  0.00000000e+00  0.00000000e+00
  0.00000000e+00  0.00000000e+00  0.00000000e+00  0.00000000e+00
  0.00000000e+00  0.00000000e+00  0.00000000e+00  0.00000000e+00
  0.00000000e+00  0.00000000e+00  0.00000000e+00  0.00000000e+00
  0.00000000e+00  0.00000000e+00 -1.21523789e-07 -4.86821049e-09
  0.00000000e+00  0.00000000e+00  0.00000000e+00  2.73131912e-06]","[[ 4.92067195e-05  8.17474200e-04]
 [-3.49206812e-05  7.88230199e-04]]",[],0.0,0.0
1787209292.9196386,1.571069112450757,0.9292112637109838,2.314659375350252,"[ 2.22418588e-06 -2.55430189e-07  0.00000000e+00  0.00000000e+00
  0.00000000e+00 -1.23824073e-07 -2.55430189e-07  1.97910497e-06
  0.00000000e+00  0.00000000e+00  0.00000000e+00 -1.40811757e-08
  0.00000000e+00  0.00000000e+00  0.00000000e+00  0.00000000e+00
  0.00000000e+00  0.00000000e+00  0.00000000e+00  0.00000000e+00
  0.00000000e+00  0.00000000e+00  0.00000000e+00  0.00000000e+00
  0.00000000e+00  0.00000000e+00  0.00000000e+00  0.00000000e+00
  0.00000000e+00  0.00000000e+00 -1.23824073e-07 -1.40811757e-08
  0.00000000e+00  0.00000000e+00  0.00000000e+00  2.84340563e-06]","[[ 4.84063706e-05  7.99210665e-04]
 [-3.46792781e-05  7.81975655e-04]]",[],0.0,0.0
1787209293.3162713,1.571069112450757,0.9292112637109838,2.314659375350252,"[ 2.22418588e-06 -2.55430189e-07  0.00000000e+00  0.00000000e+00
  0.00000000e+00 -1.23824073e-07 -2.55430189e-07  1.97910497e-06
  0.00000000e+00  0.00000000e+00  0.00000000e+00 -1.40811757e-08
  0.00000000e+00  0.00000000e+00  0.00000000e+00  0.00000000e+00
  0.00000000e+00  0.00000000e+00  0.00000000e+00  0.00000000e+00
  0.00000000e+00  0.00000000e+00  0.00000000e+00  0.00000000e+00
  0.00000000e+00  0.00000000e+00  0.00000000e+00  0.00000000e+00
  0.00000000e+00  0.00000000e+00 -1.23824073e-07 -1.40811757e-08
  0.00000000e+00  0.00000000e+00  0.00000000e+00  2.84340563e-06]","[[ 4.84063706e-05  7.99210665e-04]
 [-3.46792781e-05  7.81975655e-04]]",[],0.0,0.0
1787209293.3202178,1.571069112450757,0.9292112637109838,2.314659375350252,"[ 2.22418588e-06 -2.55430189e-07  0.00000000e+00  0.00000000e+00
  0.00000000e+00 -1.23824073e-07 -2.55430189e-07  1.97910497e-06
  0.00000000e+00  0.00000000e+00  0.00000000e+00 -1.40811757e-08
  0.00000000e+00  0.00000000e+00  0.00000000e+00  0.00000000e+00
  0.00000000e+00  0.00000000e+00  0.00000000e+00  0.00000000e+00
  0.00000000e+00  0.00000000e+00  0.00000000e+00  0.00000000e+00
  0.00000000e+00  0.00000000e+00  0.00000000e+00  0.00000000e+00
  0.00000000e+00  0.00000000e+00 -1.23824073e-07 -1.40811757e-08
  0.00000000e+00  0.00000000e+00  0.00000000e+00  2.84340563e-06]","[[ 4.84063706e-05  7.99210665e-04]
 [-3.46792781e-05  7.81975655e-04]]",[],0.0,0.0
1787209293.782152,1.5716201575652688,0.9263225948961531,2.313817220447433,"[ 2.16636245e-06 -2.58828103e-07  0.00000000e+00  0.00000000e+00
  0.00000000e+00 -1.17695469e-07 -2.58828103e-07  1.93000394e-06
  0.00000000e+00  0.00000000e+00  0.00000000e+00 -8.49831961e-09
  0.00000000e+00  0.00000000e+00  0.00000000e+00  0.00000000e+00
  0.00000000e+00  0.00000000e+00  0.00000000e+00  0.00000000e+00
  0.00000000e+00  0.00000000e+00  0.00000000e+00  0.00000000e+00
  0.00000000e+00  0.00000000e+00  0.00000000e+00  0.00000000e+00
  0.00000000e+00  0.00000000e+00 -1.17695469e-07 -8.49831961e-09
  0.00000000e+00  0.00000000e+00  0.00000000e+00  2.59305513e-06]","[[ 4.72864258e-05  7.69345822e-04]
 [-3.40287049e-05  7.49979610e-04]]",[],0.0,0.0
1787209294.2016923,1.572565703849686,0.9233922786300588,2.3133988310817157,"[ 2.12084286e-06 -2.71822437e-07  0.00000000e+00  0.00000000e+00
  0.00000000e+00 -1.16431087e-07 -2.71822437e-07  1.89283553e-06
  0.00000000e+00  0.00000000e+00  0.00000000e+00 -1.29381273e-09
  0.00000000e+00  0.00000000e+00  0.00000000e+00  0.00000000e+00
  0.00000000e+00  0.00000000e+00  0.00000000e+00  0.00000000e+00
  0.00000000e+00  0.00000000e+00  0.00000000e+00  0.00000000e+00
  0.00000000e+00  0.00000000e+00  0.00000000e+00  0.00000000e+00
  0.00000000e+00  0.00000000e+00 -1.16431087e-07 -1.29381273e-09
  0.00000000e+00  0.00000000e+00  0.00000000e+00  2.73443800e-06]","[[ 4.65516415e-05  7.47609540e-04]
 [-3.37551874e-05  7.17263451e-04]]",[],0.0,0.0
1787209294.5951173,1.5730760653849711,0.9213426114015572,2.3138908857897214,"[ 2.07020860e-06 -2.79797635e-07  0.00000000e+00  0.00000000e+00
  0.00000000e+00 -1.21290629e-07 -2.79797635e-07  1.85240036e-06
  0.00000000e+00  0.00000000e+00  0.00000000e+00  9.38432637e-09
  0.00000000e+00  0.00000000e+00  0.00000000e+00  0.00000000e+00
  0.00000000e+00  0.00000000e+00  0.00000000e+00  0.00000000e+00
  0.00000000e+00  0.00000000e+00  0.00000000e+00  0.00000000e+00
  0.00000000e+00  0.00000000e+00  0.00000000e+00  0.00000000e+00
  0.00000000e+00  0.00000000e+00 -1.21290629e-07  9.38432637e-09
  0.00000000e+00  0.00000000e+00  0.00000000e+00  2.59032354e-06]","[[ 4.56421538e-05  7.36393516e-04]
 [-3.33289076e-05  6.79013896e-04]]",[],0.0,0.0
1787209295.0247836,1.5736818014873537,0.9187954608337855,2.311625423709991,"[ 2.01841039e-06 -2.81575077e-07  0.00000000e+00  0.00000000e+00
  0.00000000e+00 -1.19481490e-07 -2.81575077e-07  1.80842897e-06
  0.00000000e+00  0.00000000e+00  0.00000000e+00  3.07825656e-09
  0.00000000e+00  0.00000000e+00  0.00000000e+00  0.00000000e+00
  0.00000000e+00  0.00000000e+00  0.00000000e+00  0.00000000e+00
  0.00000000e+00  0.00000000e+00  0.00000000e+00  0.00000000e+00
  0.00000000e+00  0.00000000e+00  0.00000000e+00  0.00000000e+00
  0.00000000e+00  0.00000000e+00 -1.19481490e-07  3.07825656e-09
  0.00000000e+00  0.00000000e+00  0.00000000e+00  2.44667029e-06]","[[ 4.46210679e-05  7.16415919e-04]
 [-3.27199786e-05  6.69651230e-04]]",[],0.0,0.0
1787209295.0722296,1.5748690494414155,0.9165521074325514,2.313391477603856,"[ 1.97461508e-06 -2.88660726e-07  0.00000000e+00  0.00000000e+00
  0.00000000e+00 -1.17950067e-07 -2.88660726e-07  1.77674017e-06
  0.00000000e+00  0.00000000e+00  0.00000000e+00  1.12960701e-08
  0.00000000e+00  0.00000000e+00  0.00000000e+00  0.00000000e+00
  0.00000000e+00  0.00000000e+00  0.00000000e+00  0.00000000e+00
  0.00000000e+00  0.00000000e+00  0.00000000e+00  0.00000000e+00
  0.00000000e+00  0.00000000e+00  0.00000000e+00  0.00000000e+00
  0.00000000e+00  0.00000000e+00 -1.17950067e-07  1.12960701e-08
  0.00000000e+00  0.00000000e+00  0.00000000e+00  2.58957415e-06]","[[ 4.38377792e-05  6.97225951e-04]
 [-3.24039273e-05  6.39650757e-04]]",[],0.0,0.0
1787209295.1200848,1.5748690494414155,0.9165521074325514,2.313391477603856,"[ 1.97461508e-06 -2.88660726e-07  0.00000000e+00  0.00000000e+00
  0.00000000e+00 -1.17950067e-07 -2.88660726e-07  1.77674017e-06
  0.00000000e+00  0.00000000e+00  0.00000000e+00  1.12960701e-08
  0.00000000e+00  0.00000000e+00  0.00000000e+00  0.00000000e+00
  0.00000000e+00  0.00000000e+00  0.00000000e+00  0.00000000e+00
  0.00000000e+00  0.00000000e+00  0.00000000e+00  0.00000000e+00
  0.00000000e+00  0.00000000e+00  0.00000000e+00  0.00000000e+00
  0.00000000e+00  0.00000000e+00 -1.17950067e-07  1.12960701e-08
  0.00000000e+00  0.00000000e+00  0.00000000e+00  2.58957415e-06]","[[ 4.38377792e-05  6.97225951e-04]
 [-3.24039273e-05  6.39650757e-04]]",[],0.0,0.0
1787209295.175585,1.5748690494414155,0.9165521074325514,2.313391477603856,"[ 1.97461508e-06 -2.88660726e-07  0.00000000e+00  0.00000000e+00
  0.00000000e+00 -1.17950067e-07 -2.88660726e-07  1.77674017e-06
  0.00000000e+00  0.00000000e+00  0.00000000e+00  1.12960701e-08
  0.00000000e+00  0.00000000e+00  0.00000000e+00  0.00000000e+00
  0.00000000e+00  0.00000000e+00  0.00000000e+00  0.00000000e+00
  0.00000000e+00  0.00000000e+00  0.00000000e+00  0.00000000e+00
  0.00000000e+00  0.00000000e+00  0.00000000e+00  0.00000000e+00
  0.00000000e+00  0.00000000e+00 -1.17950067e-07  1.12960701e-08
  0.00000000e+00  0.00000000e+00  0.00000000e+00  2.58957415e-06]","[[ 4.38377792e-05  6.97225951e-04]
 [-3.24039273e-05  6.39650757e-04]]",[],0.0,0.0
1787209295.219591,1.5748690494414155,0.9165521074325514,2.313391477603856,"[ 1.97461508e-06 -2.88660726e-07  0.00000000e+00  0.00000000e+00
  0.00000000e+00 -1.17950067e-07 -2.88660726e-07  1.77674017e-06
  0.00000000e+00  0.00000000e+00  0.00000000e+00  1.12960701e-08
  0.00000000e+00  0.00000000e+00  0.00000000e+00  0.00000000e+00
  0.00000000e+00  0.00000000e+00  0.00000000e+00  0.00000000e+00
  0.00000000e+00  0.00000000e+00  0.00000000e+00  0.00000000e+00
  0.00000000e+00  0.00000000e+00  0.00000000e+00  0.00000000e+00
  0.00000000e+00  0.00000000e+00 -1.17950067e-07  1.12960701e-08
  0.00000000e+00  0.00000000e+00  0.00000000e+00  2.58957415e-06]","[[ 4.38377792e-05  6.97225951e-04]
 [-3.24039273e-05  6.39650757e-04]]",[],0.0,0.0
1787209295.2839255,1.5748690494414155,0.9165521074325514,2.313391477603856,"[ 1.97461508e-06 -2.88660726e-07  0.00000000e+00  0.00000000e+00
  0.00000000e+00 -1.17950067e-07 -2.88660726e-07  1.77674017e-06
  0.00000000e+00  0.00000000e+00  0.00000000e+00  1.12960701e-08
  0.00000000e+00  0.00000000e+00  0.00000000e+00  0.00000000e+00
  0.00000000e+00  0.00000000e+00  0.00000000e+00  0.00000000e+00
  0.00000000e+00  0.00000000e+00  0.00000000e+00  0.00000000e+00
  0.00000000e+00  0.00000000e+00  0.00000000e+00  0.00000000e+00
  0.00000000e+00  0.00000000e+00 -1.17950067e-07  1.12960701e-08
  0.00000000e+00  0.00000000e+00  0.00000000e+00  2.58957415e-06]","[[ 4.38377792e-05  6.97225951e-04]
 [-3.24039273e-05  6.39650757e-04]]",[],0.0,0.0
1787209295.3223236,1.5748690494414155,0.9165521074325514,2.313391477603856,"[ 1.97461508e-06 -2.88660726e-07  0.00000000e+00  0.00000000e+00
  0.00000000e+00 -1.17950067e-07 -2.88660726e-07  1.77674017e-06
  0.00000000e+00  0.00000000e+00  0.00000000e+00  1.12960701e-08
  0.00000000e+00  0.00000000e+00  0.00000000e+00  0.00000000e+00
  0.00000000e+00  0.00000000e+00  0.00000000e+00  0.00000000e+00
  0.00000000e+00  0.00000000e+00  0.00000000e+00  0.00000000e+00
  0.00000000e+00  0.00000000e+00  0.00000000e+00  0.00000000e+00
  0.00000000e+00  0.00000000e+00 -1.17950067e-07  1.12960701e-08
  0.00000000e+00  0.00000000e+00  0.00000000e+00  2.58957415e-06]","[[ 4.38377792e-05  6.97225951e-04]
 [-3.24039273e-05  6.39650757e-04]]",[],0.0,0.0
1787209295.3710287,1.5748690494414155,0.9165521074325514,2.313391477603856,"[ 1.97461508e-06 -2.88660726e-07  0.00000000e+00  0.00000000e+00
  0.00000000e+00 -1.17950067e-07 -2.88660726e-07  1.77674017e-06
  0.00000000e+00  0.00000000e+00  0.00000000e+00  1.12960701e-08
  0.00000000e+00  0.00000000e+00  0.00000000e+00  0.00000000e+00
  0.00000000e+00  0.00000000e+00  0.00000000e+00  0.00000000e+00
  0.00000000e+00  0.00000000e+00  0.00000000e+00  0.00000000e+00
  0.00000000e+00  0.00000000e+00  0.00000000e+00  0.00000000e+00
  0.00000000e+00  0.00000000e+00 -1.17950067e-07  1.12960701e-08
  0.00000000e+00  0.00000000e+00  0.00000000e+00  2.58957415e-06]","[[ 4.38377792e-05  6.97225951e-04]
 [-3.24039273e-05  6.39650757e-04]]",[],0.0,0.0
1787209295.4199085,1.5748690494414155,0.9165521074325514,2.313391477603856,"[ 1.97461508e-06 -2.88660726e-07  0.00000000e+00  0.00000000e+00
  0.00000000e+00 -1.17950067e-07 -2.88660726e-07  1.77674017e-06
  0.00000000e+00  0.00000000e+00  0.00000000e+00  1.12960701e-08
  0.00000000e+00  0.00000000e+00  0.00000000e+00  0.00000000e+00
  0.00000000e+00  0.00000000e+00  0.00000000e+00  0.00000000e+00
  0.00000000e+00  0.00000000e+00  0.00000000e+00  0.00000000e+00
  0.00000000e+00  0.00000000e+00  0.00000000e+00  0.00000000e+00
  0.00000000e+00  0.00000000e+00 -1.17950067e-07  1.12960701e-08
  0.00000000e+00  0.00000000e+00  0.00000000e+00  2.58957415e-06]","[[ 4.38377792e-05  6.97225951e-04]
 [-3.24039273e-05  6.39650757e-04]]",[],0.0,0.0
1787209295.5159173,1.5748690494414155,0.9165521074325514,2.313391477603856,"[ 1.97461508e-06 -2.88660726e-07  0.00000000e+00  0.00000000e+00
  0.00000000e+00 -1.17950067e-07 -2.88660726e-07  1.77674017e-06
  0.00000000e+00  0.00000000e+00  0.00000000e+00  1.12960701e-08
  0.00000000e+00  0.00000000e+00  0.00000000e+00  0.00000000e+00
  0.00000000e+00  0.00000000e+00  0.00000000e+00  0.00000000e+00
  0.00000000e+00  0.00000000e+00  0.00000000e+00  0.00000000e+00
  0.00000000e+00  0.00000000e+00  0.00000000e+00  0.00000000e+00
  0.00000000e+00  0.00000000e+00 -1.17950067e-07  1.12960701e-08
  0.00000000e+00  0.00000000e+00  0.00000000e+00  2.58957415e-06]","[[ 4.38377792e-05  6.97225951e-04]
 [-3.24039273e-05  6.39650757e-04]]",[],0.0,0.0
1787209295.5196745,1.5748690494414155,0.9165521074325514,2.313391477603856,"[ 1.97461508e-06 -2.88660726e-07  0.00000000e+00  0.00000000e+00
  0.00000000e+00 -1.17950067e-07 -2.88660726e-07  1.77674017e-06
  0.00000000e+00  0.00000000e+00  0.00000000e+00  1.12960701e-08
  0.00000000e+00  0.00000000e+00  0.00000000e+00  0.00000000e+00
  0.00000000e+00  0.00000000e+00  0.00000000e+00  0.00000000e+00
  0.00000000e+00  0.00000000e+00  0.00000000e+00  0.00000000e+00
  0.00000000e+00  0.00000000e+00  0.00000000e+00  0.00000000e+00
  0.00000000e+00  0.00000000e+00 -1.17950067e-07  1.12960701e-08
  0.00000000e+00  0.00000000e+00  0.00000000e+00  2.58957415e-06]","[[ 4.38377792e-05  6.97225951e-04]
 [-3.24039273e-05  6.39650757e-04]]",[],0.0,0.0
1787209295.5873015,1.575539471309176,0.9140539060787959,2.3180825846779127,"[ 1.94430549e-06 -3.08144692e-07  0.00000000e+00  0.00000000e+00
  0.00000000e+00 -1.20514984e-07 -3.08144692e-07  1.75772548e-06
  0.00000000e+00  0.00000000e+00  0.00000000e+00  9.33653249e-10
  0.00000000e+00  0.00000000e+00  0.00000000e+00  0.00000000e+00
  0.00000000e+00  0.00000000e+00  0.00000000e+00  0.00000000e+00
  0.00000000e+00  0.00000000e+00  0.00000000e+00  0.00000000e+00
  0.00000000e+00  0.00000000e+00  0.00000000e+00  0.00000000e+00
  0.00000000e+00  0.00000000e+00 -1.20514984e-07  9.33653249e-10
  0.00000000e+00  0.00000000e+00  0.00000000e+00  2.74034052e-06]","[[ 4.35153640e-05  6.83634303e-04]
 [-3.25193685e-05  6.41904929e-04]]",[],0.0,0.0
1787209295.6202624,1.575539471309176,0.9140539060787959,2.3180825846779127,"[ 1.94430549e-06 -3.08144692e-07  0.00000000e+00  0.00000000e+00
  0.00000000e+00 -1.20514984e-07 -3.08144692e-07  1.75772548e-06
  0.00000000e+00  0.00000000e+00  0.00000000e+00  9.33653249e-10
  0.00000000e+00  0.00000000e+00  0.00000000e+00  0.00000000e+00
  0.00000000e+00  0.00000000e+00  0.00000000e+00  0.00000000e+00
  0.00000000e+00  0.00000000e+00  0.00000000e+00  0.00000000e+00
  0.00000000e+00  0.00000000e+00  0.00000000e+00  0.00000000e+00
  0.00000000e+00  0.00000000e+00 -1.20514984e-07  9.33653249e-10
  0.00000000e+00  0.00000000e+00  0.00000000e+00  2.74034052e-06]","[[ 4.35153640e-05  6.83634303e-04]
 [-3.25193685e-05  6.41904929e-04]]",[],0.0,0.0
1787209295.6920588,1.575539471309176,0.9140539060787959,2.3180825846779127,"[ 1.94430549e-06 -3.08144692e-07  0.00000000e+00  0.00000000e+00
  0.00000000e+00 -1.20514984e-07 -3.08144692e-07  1.75772548e-06
  0.00000000e+00  0.00000000e+00  0.00000000e+00  9.33653249e-10
  0.00000000e+00  0.00000000e+00  0.00000000e+00  0.00000000e+00
  0.00000000e+00  0.00000000e+00  0.00000000e+00  0.00000000e+00
  0.00000000e+00  0.00000000e+00  0.00000000e+00  0.00000000e+00
  0.00000000e+00  0.00000000e+00  0.00000000e+00  0.00000000e+00
  0.00000000e+00  0.00000000e+00 -1.20514984e-07  9.33653249e-10
  0.00000000e+00  0.00000000e+00  0.00000000e+00  2.74034052e-06]","[[ 4.35153640e-05  6.83634303e-04]
 [-3.25193685e-05  6.41904929e-04]]",[],0.0,0.0
1787209295.7210245,1.575539471309176,0.9140539060787959,2.3180825846779127,"[ 1.94430549e-06 -3.08144692e-07  0.00000000e+00  0.00000000e+00
  0.00000000e+00 -1.20514984e-07 -3.08144692e-07  1.75772548e-06
  0.00000000e+00  0.00000000e+00  0.00000000e+00  9.33653249e-10
  0.00000000e+00  0.00000000e+00  0.00000000e+00  0.00000000e+00
  0.00000000e+00  0.00000000e+00  0.00000000e+00  0.00000000e+00
  0.00000000e+00  0.00000000e+00  0.00000000e+00  0.00000000e+00
  0.00000000e+00  0.00000000e+00  0.00000000e+00  0.00000000e+00
  0.00000000e+00  0.00000000e+00 -1.20514984e-07  9.33653249e-10
  0.00000000e+00  0.00000000e+00  0.00000000e+00  2.74034052e-06]","[[ 4.35153640e-05  6.83634303e-04]
 [-3.25193685e-05  6.41904929e-04]]",[],0.0,0.0
1787209295.773233,1.575539471309176,0.9140539060787959,2.3180825846779127,"[ 1.94430549e-06 -3.08144692e-07  0.00000000e+00  0.00000000e+00
  0.00000000e+00 -1.20514984e-07 -3.08144692e-07  1.75772548e-06
  0.00000000e+00  0.00000000e+00  0.00000000e+00  9.33653249e-10
  0.00000000e+00  0.00000000e+00  0.00000000e+00  0.00000000e+00
  0.00000000e+00  0.00000000e+00  0.00000000e+00  0.00000000e+00
  0.00000000e+00  0.00000000e+00  0.00000000e+00  0.00000000e+00
  0.00000000e+00  0.00000000e+00  0.00000000e+00  0.00000000e+00
  0.00000000e+00  0.00000000e+00 -1.20514984e-07  9.33653249e-10
  0.00000000e+00  0.00000000e+00  0.00000000e+00  2.74034052e-06]","[[ 4.35153640e-05  6.83634303e-04]
 [-3.25193685e-05  6.41904929e-04]]",[],0.0,0.0
1787209295.819808,1.575539471309176,0.9140539060787959,2.3180825846779127,"[ 1.94430549e-06 -3.08144692e-07  0.00000000e+00  0.00000000e+00
  0.00000000e+00 -1.20514984e-07 -3.08144692e-07  1.75772548e-06
  0.00000000e+00  0.00000000e+00  0.00000000e+00  9.33653249e-10
  0.00000000e+00  0.00000000e+00  0.00000000e+00  0.00000000e+00
  0.00000000e+00  0.00000000e+00  0.00000000e+00  0.00000000e+00
  0.00000000e+00  0.00000000e+00  0.00000000e+00  0.00000000e+00
  0.00000000e+00  0.00000000e+00  0.00000000e+00  0.00000000e+00
  0.00000000e+00  0.00000000e+00 -1.20514984e-07  9.33653249e-10
  0.00000000e+00  0.00000000e+00  0.00000000e+00  2.74034052e-06]","[[ 4.35153640e-05  6.83634303e-04]
 [-3.25193685e-05  6.41904929e-04]]",[],0.0,0.0
1787209295.8695168,1.575539471309176,0.9140539060787959,2.3180825846779127,"[ 1.94430549e-06 -3.08144692e-07  0.00000000e+00  0.00000000e+00
  0.00000000e+00 -1.20514984e-07 -3.08144692e-07  1.75772548e-06
  0.00000000e+00  0.00000000e+00  0.00000000e+00  9.33653249e-10
  0.00000000e+00  0.00000000e+00  0.00000000e+00  0.00000000e+00
  0.00000000e+00  0.00000000e+00  0.00000000e+00  0.00000000e+00
  0.00000000e+00  0.00000000e+00  0.00000000e+00  0.00000000e+00
  0.00000000e+00  0.00000000e+00  0.00000000e+00  0.00000000e+00
  0.00000000e+00  0.00000000e+00 -1.20514984e-07  9.33653249e-10
  0.00000000e+00  0.00000000e+00  0.00000000e+00  2.74034052e-06]","[[ 4.35153640e-05  6.83634303e-04]
 [-3.25193685e-05  6.41904929e-04]]",[],0.0,0.0
1787209295.9199226,1.575539471309176,0.9140539060787959,2.3180825846779127,"[ 1.94430549e-06 -3.08144692e-07  0.00000000e+00  0.00000000e+00
  0.00000000e+00 -1.20514984e-07 -3.08144692e-07  1.75772548e-06
  0.00000000e+00  0.00000000e+00  0.00000000e+00  9.33653249e-10
  0.00000000e+00  0.00000000e+00  0.00000000e+00  0.00000000e+00
  0.00000000e+00  0.00000000e+00  0.00000000e+00  0.00000000e+00
  0.00000000e+00  0.00000000e+00  0.00000000e+00  0.00000000e+00
  0.00000000e+00  0.00000000e+00  0.00000000e+00  0.00000000e+00
  0.00000000e+00  0.00000000e+00 -1.20514984e-07  9.33653249e-10
  0.00000000e+00  0.00000000e+00  0.00000000e+00  2.74034052e-06]","[[ 4.35153640e-05  6.83634303e-04]
 [-3.25193685e-05  6.41904929e-04]]",[],0.0,0.0
1787209295.974454,1.575539471309176,0.9140539060787959,2.3180825846779127,"[ 1.94430549e-06 -3.08144692e-07  0.00000000e+00  0.00000000e+00
  0.00000000e+00 -1.20514984e-07 -3.08144692e-07  1.75772548e-06
  0.00000000e+00  0.00000000e+00  0.00000000e+00  9.33653249e-10
  0.00000000e+00  0.00000000e+00  0.00000000e+00  0.00000000e+00
  0.00000000e+00  0.00000000e+00  0.00000000e+00  0.00000000e+00
  0.00000000e+00  0.00000000e+00  0.00000000e+00  0.00000000e+00
  0.00000000e+00  0.00000000e+00  0.00000000e+00  0.00000000e+00
  0.00000000e+00  0.00000000e+00 -1.20514984e-07  9.33653249e-10
  0.00000000e+00  0.00000000e+00  0.00000000e+00  2.74034052e-06]","[[ 4.35153640e-05  6.83634303e-04]
 [-3.25193685e-05  6.41904929e-04]]",[],0.0,0.0
1787209296.0195837,1.5764761432230803,0.9118751487095181,2.3210317538867127,"[ 1.91018845e-06 -3.21446331e-07  0.00000000e+00  0.00000000e+00
  0.00000000e+00 -1.29229455e-07 -3.21446331e-07  1.73710263e-06
  0.00000000e+00  0.00000000e+00  0.00000000e+00  1.35241160e-08
  0.00000000e+00  0.00000000e+00  0.00000000e+00  0.00000000e+00
  0.00000000e+00  0.00000000e+00  0.00000000e+00  0.00000000e+00
  0.00000000e+00  0.00000000e+00  0.00000000e+00  0.00000000e+00
  0.00000000e+00  0.00000000e+00  0.00000000e+00  0.00000000e+00
  0.00000000e+00  0.00000000e+00 -1.29229455e-07  1.35241160e-08
  0.00000000e+00  0.00000000e+00  0.00000000e+00  2.70033788e-06]","[[ 4.30210156e-05  6.81822354e-04]
 [-3.24914532e-05  6.07431381e-04]]",[],0.0,0.0
1787209296.0943873,1.5764761432230803,0.9118751487095181,2.3210317538867127,"[ 1.91018845e-06 -3.21446331e-07  0.00000000e+00  0.00000000e+00
  0.00000000e+00 -1.29229455e-07 -3.21446331e-07  1.73710263e-06
  0.00000000e+00  0.00000000e+00  0.00000000e+00  1.35241160e-08
  0.00000000e+00  0.00000000e+00  0.00000000e+00  0.00000000e+00
  0.00000000e+00  0.00000000e+00  0.00000000e+00  0.00000000e+00
  0.00000000e+00  0.00000000e+00  0.00000000e+00  0.00000000e+00
  0.00000000e+00  0.00000000e+00  0.00000000e+00  0.00000000e+00
  0.00000000e+00  0.00000000e+00 -1.29229455e-07  1.35241160e-08
  0.00000000e+00  0.00000000e+00  0.00000000e+00  2.70033788e-06]","[[ 4.30210156e-05  6.81822354e-04]
 [-3.24914532e-05  6.07431381e-04]]",[],0.0,0.0
1787209296.1202335,1.5764761432230803,0.9118751487095181,2.3210317538867127,"[ 1.91018845e-06 -3.21446331e-07  0.00000000e+00  0.00000000e+00
  0.00000000e+00 -1.29229455e-07 -3.21446331e-07  1.73710263e-06
  0.00000000e+00  0.00000000e+00  0.00000000e+00  1.35241160e-08
  0.00000000e+00  0.00000000e+00  0.00000000e+00  0.00000000e+00
  0.00000000e+00  0.00000000e+00  0.00000000e+00  0.00000000e+00
  0.00000000e+00  0.00000000e+00  0.00000000e+00  0.00000000e+00
  0.00000000e+00  0.00000000e+00  0.00000000e+00  0.00000000e+00
  0.00000000e+00  0.00000000e+00 -1.29229455e-07  1.35241160e-08
  0.00000000e+00  0.00000000e+00  0.00000000e+00  2.70033788e-06]","[[ 4.30210156e-05  6.81822354e-04]
 [-3.24914532e-05  6.07431381e-04]]",[],0.0,0.0
1787209296.1702907,1.5764761432230803,0.9118751487095181,2.3210317538867127,"[ 1.91018845e-06 -3.21446331e-07  0.00000000e+00  0.00000000e+00
  0.00000000e+00 -1.29229455e-07 -3.21446331e-07  1.73710263e-06
  0.00000000e+00  0.00000000e+00  0.00000000e+00  1.35241160e-08
  0.00000000e+00  0.00000000e+00  0.00000000e+00  0.00000000e+00
  0.00000000e+00  0.00000000e+00  0.00000000e+00  0.00000000e+00
  0.00000000e+00  0.00000000e+00  0.00000000e+00  0.00000000e+00
  0.00000000e+00  0.00000000e+00  0.00000000e+00  0.00000000e+00
  0.00000000e+00  0.00000000e+00 -1.29229455e-07  1.35241160e-08
  0.00000000e+00  0.00000000e+00  0.00000000e+00  2.70033788e-06]","[[ 4.30210156e-05  6.81822354e-04]
 [-3.24914532e-05  6.07431381e-04]]",[],0.0,0.0
1787209296.2194338,1.5764761432230803,0.9118751487095181,2.3210317538867127,"[ 1.91018845e-06 -3.21446331e-07  0.00000000e+00  0.00000000e+00
  0.00000000e+00 -1.29229455e-07 -3.21446331e-07  1.73710263e-06
  0.00000000e+00  0.00000000e+00  0.00000000e+00  1.35241160e-08
  0.00000000e+00  0.00000000e+00  0.00000000e+00  0.00000000e+00
  0.00000000e+00  0.00000000e+00  0.00000000e+00  0.00000000e+00
  0.00000000e+00  0.00000000e+00  0.00000000e+00  0.00000000e+00
  0.00000000e+00  0.00000000e+00  0.00000000e+00  0.00000000e+00
  0.00000000e+00  0.00000000e+00 -1.29229455e-07  1.35241160e-08
  0.00000000e+00  0.00000000e+00  0.00000000e+00  2.70033788e-06]","[[ 4.30210156e-05  6.81822354e-04]
 [-3.24914532e-05  6.07431381e-04]]",[],0.0,0.0
1787209296.2701035,1.5764761432230803,0.9118751487095181,2.3210317538867127,"[ 1.91018845e-06 -3.21446331e-07  0.00000000e+00  0.00000000e+00
  0.00000000e+00 -1.29229455e-07 -3.21446331e-07  1.73710263e-06
  0.00000000e+00  0.00000000e+00  0.00000000e+00  1.35241160e-08
  0.00000000e+00  0.00000000e+00  0.00000000e+00  0.00000000e+00
  0.00000000e+00  0.00000000e+00  0.00000000e+00  0.00000000e+00
  0.00000000e+00  0.00000000e+00  0.00000000e+00  0.00000000e+00
  0.00000000e+00  0.00000000e+00  0.00000000e+00  0.00000000e+00
  0.00000000e+00  0.00000000e+00 -1.29229455e-07  1.35241160e-08
  0.00000000e+00  0.00000000e+00  0.00000000e+00  2.70033788e-06]","[[ 4.30210156e-05  6.81822354e-04]
 [-3.24914532e-05  6.07431381e-04]]",[],0.0,0.0
1787209296.3233662,1.5764761432230803,0.9118751487095181,2.3210317538867127,"[ 1.91018845e-06 -3.21446331e-07  0.00000000e+00  0.00000000e+00
  0.00000000e+00 -1.29229455e-07 -3.21446331e-07  1.73710263e-06
  0.00000000e+00  0.00000000e+00  0.00000000e+00  1.35241160e-08
  0.00000000e+00  0.00000000e+00  0.00000000e+00  0.00000000e+00
  0.00000000e+00  0.00000000e+00  0.00000000e+00  0.00000000e+00
  0.00000000e+00  0.00000000e+00  0.00000000e+00  0.00000000e+00
  0.00000000e+00  0.00000000e+00  0.00000000e+00  0.00000000e+00
  0.00000000e+00  0.00000000e+00 -1.29229455e-07  1.35241160e-08
  0.00000000e+00  0.00000000e+00  0.00000000e+00  2.70033788e-06]","[[ 4.30210156e-05  6.81822354e-04]
 [-3.24914532e-05  6.07431381e-04]]",[],0.0,0.0
1787209296.3711584,1.5764761432230803,0.9118751487095181,2.3210317538867127,"[ 1.91018845e-06 -3.21446331e-07  0.00000000e+00  0.00000000e+00
  0.00000000e+00 -1.29229455e-07 -3.21446331e-07  1.73710263e-06
  0.00000000e+00  0.00000000e+00  0.00000000e+00  1.35241160e-08
  0.00000000e+00  0.00000000e+00  0.00000000e+00  0.00000000e+00
  0.00000000e+00  0.00000000e+00  0.00000000e+00  0.00000000e+00
  0.00000000e+00  0.00000000e+00  0.00000000e+00  0.00000000e+00
  0.00000000e+00  0.00000000e+00  0.00000000e+00  0.00000000e+00
  0.00000000e+00  0.00000000e+00 -1.29229455e-07  1.35241160e-08
  0.00000000e+00  0.00000000e+00  0.00000000e+00  2.70033788e-06]","[[ 4.30210156e-05  6.81822354e-04]
 [-3.24914532e-05  6.07431381e-04]]",[],0.0,0.0
1787209296.4776974,1.5764761432230803,0.9118751487095181,2.3210317538867127,"[ 1.91018845e-06 -3.21446331e-07  0.00000000e+00  0.00000000e+00
  0.00000000e+00 -1.29229455e-07 -3.21446331e-07  1.73710263e-06
  0.00000000e+00  0.00000000e+00  0.00000000e+00  1.35241160e-08
  0.00000000e+00  0.00000000e+00  0.00000000e+00  0.00000000e+00
  0.00000000e+00  0.00000000e+00  0.00000000e+00  0.00000000e+00
  0.00000000e+00  0.00000000e+00  0.00000000e+00  0.00000000e+00
  0.00000000e+00  0.00000000e+00  0.00000000e+00  0.00000000e+00
  0.00000000e+00  0.00000000e+00 -1.29229455e-07  1.35241160e-08
  0.00000000e+00  0.00000000e+00  0.00000000e+00  2.70033788e-06]","[[ 4.30210156e-05  6.81822354e-04]
 [-3.24914532e-05  6.07431381e-04]]",[],0.0,0.0
1787209296.5208645,1.5774291859997676,0.9099389247832461,2.32661649434125,"[ 1.87961949e-06 -3.35058239e-07  0.00000000e+00  0.00000000e+00
  0.00000000e+00 -1.23046486e-07 -3.35058239e-07  1.71681031e-06
  0.00000000e+00  0.00000000e+00  0.00000000e+00  6.68158115e-09
  0.00000000e+00  0.00000000e+00  0.00000000e+00  0.00000000e+00
  0.00000000e+00  0.00000000e+00  0.00000000e+00  0.00000000e+00
  0.00000000e+00  0.00000000e+00  0.00000000e+00  0.00000000e+00
  0.00000000e+00  0.00000000e+00  0.00000000e+00  0.00000000e+00
  0.00000000e+00  0.00000000e+00 -1.23046486e-07  6.68158115e-09
  0.00000000e+00  0.00000000e+00  0.00000000e+00  2.73530181e-06]","[[ 4.26058853e-05  6.56249014e-04]
 [-3.24701843e-05  6.05245578e-04]]",[],0.0,0.0
1787209296.5700781,1.5774291859997676,0.9099389247832461,2.32661649434125,"[ 1.87961949e-06 -3.35058239e-07  0.00000000e+00  0.00000000e+00
  0.00000000e+00 -1.23046486e-07 -3.35058239e-07  1.71681031e-06
  0.00000000e+00  0.00000000e+00  0.00000000e+00  6.68158115e-09
  0.00000000e+00  0.00000000e+00  0.00000000e+00  0.00000000e+00
  0.00000000e+00  0.00000000e+00  0.00000000e+00  0.00000000e+00
  0.00000000e+00  0.00000000e+00  0.00000000e+00  0.00000000e+00
  0.00000000e+00  0.00000000e+00  0.00000000e+00  0.00000000e+00
  0.00000000e+00  0.00000000e+00 -1.23046486e-07  6.68158115e-09
  0.00000000e+00  0.00000000e+00  0.00000000e+00  2.73530181e-06]","[[ 4.26058853e-05  6.56249014e-04]
 [-3.24701843e-05  6.05245578e-04]]",[],0.0,0.0
1787209296.6204894,1.5774291859997676,0.9099389247832461,2.32661649434125,"[ 1.87961949e-06 -3.35058239e-07  0.00000000e+00  0.00000000e+00
  0.00000000e+00 -1.23046486e-07 -3.35058239e-07  1.71681031e-06
  0.00000000e+00  0.00000000e+00  0.00000000e+00  6.68158115e-09
  0.00000000e+00  0.00000000e+00  0.00000000e+00  0.00000000e+00
  0.00000000e+00  0.00000000e+00  0.00000000e+00  0.00000000e+00
  0.00000000e+00  0.00000000e+00  0.00000000e+00  0.00000000e+00
  0.00000000e+00  0.00000000e+00  0.00000000e+00  0.00000000e+00
  0.00000000e+00  0.00000000e+00 -1.23046486e-07  6.68158115e-09
  0.00000000e+00  0.00000000e+00  0.00000000e+00  2.73530181e-06]","[[ 4.26058853e-05  6.56249014e-04]
 [-3.24701843e-05  6.05245578e-04]]",[],0.0,0.0
1787209296.6725264,1.5774291859997676,0.9099389247832461,2.32661649434125,"[ 1.87961949e-06 -3.35058239e-07  0.00000000e+00  0.00000000e+00
  0.00000000e+00 -1.23046486e-07 -3.35058239e-07  1.71681031e-06
  0.00000000e+00  0.00000000e+00  0.00000000e+00  6.68158115e-09
  0.00000000e+00  0.00000000e+00  0.00000000e+00  0.00000000e+00
  0.00000000e+00  0.00000000e+00  0.00000000e+00  0.00000000e+00
  0.00000000e+00  0.00000000e+00  0.00000000e+00  0.00000000e+00
  0.00000000e+00  0.00000000e+00  0.00000000e+00  0.00000000e+00
  0.00000000e+00  0.00000000e+00 -1.23046486e-07  6.68158115e-09
  0.00000000e+00  0.00000000e+00  0.00000000e+00  2.73530181e-06]","[[ 4.26058853e-05  6.56249014e-04]
 [-3.24701843e-05  6.05245578e-04]]",[],0.0,0.0
1787209296.7203135,1.5774291859997676,0.9099389247832461,2.32661649434125,"[ 1.87961949e-06 -3.35058239e-07  0.00000000e+00  0.00000000e+00
  0.00000000e+00 -1.23046486e-07 -3.35058239e-07  1.71681031e-06
  0.00000000e+00  0.00000000e+00  0.00000000e+00  6.68158115e-09
  0.00000000e+00  0.00000000e+00  0.00000000e+00  0.00000000e+00
  0.00000000e+00  0.00000000e+00  0.00000000e+00  0.00000000e+00
  0.00000000e+00  0.00000000e+00  0.00000000e+00  0.00000000e+00
  0.00000000e+00  0.00000000e+00  0.00000000e+00  0.00000000e+00
  0.00000000e+00  0.00000000e+00 -1.23046486e-07  6.68158115e-09
  0.00000000e+00  0.00000000e+00  0.00000000e+00  2.73530181e-06]","[[ 4.26058853e-05  6.56249014e-04]
 [-3.24701843e-05  6.05245578e-04]]",[],0.0,0.0
1787209296.7711399,1.5774291859997676,0.9099389247832461,2.32661649434125,"[ 1.87961949e-06 -3.35058239e-07  0.00000000e+00  0.00000000e+00
  0.00000000e+00 -1.23046486e-07 -3.35058239e-07  1.71681031e-06
  0.00000000e+00  0.00000000e+00  0.00000000e+00  6.68158115e-09
  0.00000000e+00  0.00000000e+00  0.00000000e+00  0.00000000e+00
  0.00000000e+00  0.00000000e+00  0.00000000e+00  0.00000000e+00
  0.00000000e+00  0.00000000e+00  0.00000000e+00  0.00000000e+00
  0.00000000e+00  0.00000000e+00  0.00000000e+00  0.00000000e+00
  0.00000000e+00  0.00000000e+00 -1.23046486e-07  6.68158115e-09
  0.00000000e+00  0.00000000e+00  0.00000000e+00  2.73530181e-06]","[[ 4.26058853e-05  6.56249014e-04]
 [-3.24701843e-05  6.05245578e-04]]",[],0.0,0.0
1787209296.8286211,1.5774291859997676,0.9099389247832461,2.32661649434125,"[ 1.87961949e-06 -3.35058239e-07  0.00000000e+00  0.00000000e+00
  0.00000000e+00 -1.23046486e-07 -3.35058239e-07  1.71681031e-06
  0.00000000e+00  0.00000000e+00  0.00000000e+00  6.68158115e-09
  0.00000000e+00  0.00000000e+00  0.00000000e+00  0.00000000e+00
  0.00000000e+00  0.00000000e+00  0.00000000e+00  0.00000000e+00
  0.00000000e+00  0.00000000e+00  0.00000000e+00  0.00000000e+00
  0.00000000e+00  0.00000000e+00  0.00000000e+00  0.00000000e+00
  0.00000000e+00  0.00000000e+00 -1.23046486e-07  6.68158115e-09
  0.00000000e+00  0.00000000e+00  0.00000000e+00  2.73530181e-06]","[[ 4.26058853e-05  6.56249014e-04]
 [-3.24701843e-05  6.05245578e-04]]",[],0.0,0.0
1787209296.878076,1.5774291859997676,0.9099389247832461,2.32661649434125,"[ 1.87961949e-06 -3.35058239e-07  0.00000000e+00  0.00000000e+00
  0.00000000e+00 -1.23046486e-07 -3.35058239e-07  1.71681031e-06
  0.00000000e+00  0.00000000e+00  0.00000000e+00  6.68158115e-09
  0.00000000e+00  0.00000000e+00  0.00000000e+00  0.00000000e+00
  0.00000000e+00  0.00000000e+00  0.00000000e+00  0.00000000e+00
  0.00000000e+00  0.00000000e+00  0.00000000e+00  0.00000000e+00
  0.00000000e+00  0.00000000e+00  0.00000000e+00  0.00000000e+00
  0.00000000e+00  0.00000000e+00 -1.23046486e-07  6.68158115e-09
  0.00000000e+00  0.00000000e+00  0.00000000e+00  2.73530181e-06]","[[ 4.26058853e-05  6.56249014e-04]
 [-3.24701843e-05  6.05245578e-04]]",[],0.0,0.0
1787209296.9233513,1.5774291859997676,0.9099389247832461,2.32661649434125,"[ 1.87961949e-06 -3.35058239e-07  0.00000000e+00  0.00000000e+00
  0.00000000e+00 -1.23046486e-07 -3.35058239e-07  1.71681031e-06
  0.00000000e+00  0.00000000e+00  0.00000000e+00  6.68158115e-09
  0.00000000e+00  0.00000000e+00  0.00000000e+00  0.00000000e+00
  0.00000000e+00  0.00000000e+00  0.00000000e+00  0.00000000e+00
  0.00000000e+00  0.00000000e+00  0.00000000e+00  0.00000000e+00
  0.00000000e+00  0.00000000e+00  0.00000000e+00  0.00000000e+00
  0.00000000e+00  0.00000000e+00 -1.23046486e-07  6.68158115e-09
  0.00000000e+00  0.00000000e+00  0.00000000e+00  2.73530181e-06]","[[ 4.26058853e-05  6.56249014e-04]
 [-3.24701843e-05  6.05245578e-04]]",[],0.0,0.0
1787209296.9695523,1.5781122696471712,0.9079368944123917,2.3254543182914356,"[ 1.85803666e-06 -3.51073818e-07  0.00000000e+00  0.00000000e+00
  0.00000000e+00 -1.13877826e-07 -3.51073818e-07  1.70495676e-06
  0.00000000e+00  0.00000000e+00  0.00000000e+00  2.54405894e-08
  0.00000000e+00  0.00000000e+00  0.00000000e+00  0.00000000e+00
  0.00000000e+00  0.00000000e+00  0.00000000e+00  0.00000000e+00
  0.00000000e+00  0.00000000e+00  0.00000000e+00  0.00000000e+00
  0.00000000e+00  0.00000000e+00  0.00000000e+00  0.00000000e+00
  0.00000000e+00  0.00000000e+00 -1.13877826e-07  2.54405894e-08
  0.00000000e+00  0.00000000e+00  0.00000000e+00  2.90095603e-06]","[[ 4.24083560e-05  6.27538921e-04]
 [-3.26213549e-05  5.63590568e-04]]",[],0.0,0.0
1787209297.0197487,1.5781122696471712,0.9079368944123917,2.3254543182914356,"[ 1.85803666e-06 -3.51073818e-07  0.00000000e+00  0.00000000e+00
  0.00000000e+00 -1.13877826e-07 -3.51073818e-07  1.70495676e-06
  0.00000000e+00  0.00000000e+00  0.00000000e+00  2.54405894e-08
  0.00000000e+00  0.00000000e+00  0.00000000e+00  0.00000000e+00
  0.00000000e+00  0.00000000e+00  0.00000000e+00  0.00000000e+00
  0.00000000e+00  0.00000000e+00  0.00000000e+00  0.00000000e+00
  0.00000000e+00  0.00000000e+00  0.00000000e+00  0.00000000e+00
  0.00000000e+00  0.00000000e+00 -1.13877826e-07  2.54405894e-08
  0.00000000e+00  0.00000000e+00  0.00000000e+00  2.90095603e-06]","[[ 4.24083560e-05  6.27538921e-04]
 [-3.26213549e-05  5.63590568e-04]]",[],0.0,0.0
1787209297.0708737,1.5781122696471712,0.9079368944123917,2.3254543182914356,"[ 1.85803666e-06 -3.51073818e-07  0.00000000e+00  0.00000000e+00
  0.00000000e+00 -1.13877826e-07 -3.51073818e-07  1.70495676e-06
  0.00000000e+00  0.00000000e+00  0.00000000e+00  2.54405894e-08
  0.00000000e+00  0.00000000e+00  0.00000000e+00  0.00000000e+00
  0.00000000e+00  0.00000000e+00  0.00000000e+00  0.00000000e+00
  0.00000000e+00  0.00000000e+00  0.00000000e+00  0.00000000e+00
  0.00000000e+00  0.00000000e+00  0.00000000e+00  0.00000000e+00
  0.00000000e+00  0.00000000e+00 -1.13877826e-07  2.54405894e-08
  0.00000000e+00  0.00000000e+00  0.00000000e+00  2.90095603e-06]","[[ 4.24083560e-05  6.27538921e-04]
 [-3.26213549e-05  5.63590568e-04]]",[],0.0,0.0
1787209297.1197145,1.5781122696471712,0.9079368944123917,2.3254543182914356,"[ 1.85803666e-06 -3.51073818e-07  0.00000000e+00  0.00000000e+00
  0.00000000e+00 -1.13877826e-07 -3.51073818e-07  1.70495676e-06
  0.00000000e+00  0.00000000e+00  0.00000000e+00  2.54405894e-08
  0.00000000e+00  0.00000000e+00  0.00000000e+00  0.00000000e+00
  0.00000000e+00  0.00000000e+00  0.00000000e+00  0.00000000e+00
  0.00000000e+00  0.00000000e+00  0.00000000e+00  0.00000000e+00
  0.00000000e+00  0.00000000e+00  0.00000000e+00  0.00000000e+00
  0.00000000e+00  0.00000000e+00 -1.13877826e-07  2.54405894e-08
  0.00000000e+00  0.00000000e+00  0.00000000e+00  2.90095603e-06]","[[ 4.24083560e-05  6.27538921e-04]
 [-3.26213549e-05  5.63590568e-04]]",[],0.0,0.0
1787209297.1702554,1.5781122696471712,0.9079368944123917,2.3254543182914356,"[ 1.85803666e-06 -3.51073818e-07  0.00000000e+00  0.00000000e+00
  0.00000000e+00 -1.13877826e-07 -3.51073818e-07  1.70495676e-06
  0.00000000e+00  0.00000000e+00  0.00000000e+00  2.54405894e-08
  0.00000000e+00  0.00000000e+00  0.00000000e+00  0.00000000e+00
  0.00000000e+00  0.00000000e+00  0.00000000e+00  0.00000000e+00
  0.00000000e+00  0.00000000e+00  0.00000000e+00  0.00000000e+00
  0.00000000e+00  0.00000000e+00  0.00000000e+00  0.00000000e+00
  0.00000000e+00  0.00000000e+00 -1.13877826e-07  2.54405894e-08
  0.00000000e+00  0.00000000e+00  0.00000000e+00  2.90095603e-06]","[[ 4.24083560e-05  6.27538921e-04]
 [-3.26213549e-05  5.63590568e-04]]",[],0.0,0.0
1787209297.219842,1.5781122696471712,0.9079368944123917,2.3254543182914356,"[ 1.85803666e-06 -3.51073818e-07  0.00000000e+00  0.00000000e+00
  0.00000000e+00 -1.13877826e-07 -3.51073818e-07  1.70495676e-06
  0.00000000e+00  0.00000000e+00  0.00000000e+00  2.54405894e-08
  0.00000000e+00  0.00000000e+00  0.00000000e+00  0.00000000e+00
  0.00000000e+00  0.00000000e+00  0.00000000e+00  0.00000000e+00
  0.00000000e+00  0.00000000e+00  0.00000000e+00  0.00000000e+00
  0.00000000e+00  0.00000000e+00  0.00000000e+00  0.00000000e+00
  0.00000000e+00  0.00000000e+00 -1.13877826e-07  2.54405894e-08
  0.00000000e+00  0.00000000e+00  0.00000000e+00  2.90095603e-06]","[[ 4.24083560e-05  6.27538921e-04]
 [-3.26213549e-05  5.63590568e-04]]",[],0.0,0.0
1787209297.2702904,1.5781122696471712,0.9079368944123917,2.3254543182914356,"[ 1.85803666e-06 -3.51073818e-07  0.00000000e+00  0.00000000e+00
  0.00000000e+00 -1.13877826e-07 -3.51073818e-07  1.70495676e-06
  0.00000000e+00  0.00000000e+00  0.00000000e+00  2.54405894e-08
  0.00000000e+00  0.00000000e+00  0.00000000e+00  0.00000000e+00
  0.00000000e+00  0.00000000e+00  0.00000000e+00  0.00000000e+00
  0.00000000e+00  0.00000000e+00  0.00000000e+00  0.00000000e+00
  0.00000000e+00  0.00000000e+00  0.00000000e+00  0.00000000e+00
  0.00000000e+00  0.00000000e+00 -1.13877826e-07  2.54405894e-08
  0.00000000e+00  0.00000000e+00  0.00000000e+00  2.90095603e-06]","[[ 4.24083560e-05  6.27538921e-04]
 [-3.26213549e-05  5.63590568e-04]]",[],0.0,0.0
1787209297.446144,1.5781122696471712,0.9079368944123917,2.3254543182914356,"[ 1.85803666e-06 -3.51073818e-07  0.00000000e+00  0.00000000e+00
  0.00000000e+00 -1.13877826e-07 -3.51073818e-07  1.70495676e-06
  0.00000000e+00  0.00000000e+00  0.00000000e+00  2.54405894e-08
  0.00000000e+00  0.00000000e+00  0.00000000e+00  0.00000000e+00
  0.00000000e+00  0.00000000e+00  0.00000000e+00  0.00000000e+00
  0.00000000e+00  0.00000000e+00  0.00000000e+00  0.00000000e+00
  0.00000000e+00  0.00000000e+00  0.00000000e+00  0.00000000e+00
  0.00000000e+00  0.00000000e+00 -1.13877826e-07  2.54405894e-08
  0.00000000e+00  0.00000000e+00  0.00000000e+00  2.90095603e-06]","[[ 4.24083560e-05  6.27538921e-04]
 [-3.26213549e-05  5.63590568e-04]]",[],0.0,0.0
1787209297.4699333,1.5792405691596083,0.9054892184324176,2.3210259358348377,"[ 1.83517600e-06 -3.66436552e-07  0.00000000e+00  0.00000000e+00
  0.00000000e+00 -1.00156709e-07 -3.66436552e-07  1.69296933e-06
  0.00000000e+00  0.00000000e+00  0.00000000e+00  1.54351343e-08
  0.00000000e+00  0.00000000e+00  0.00000000e+00  0.00000000e+00
  0.00000000e+00  0.00000000e+00  0.00000000e+00  0.00000000e+00
  0.00000000e+00  0.00000000e+00  0.00000000e+00  0.00000000e+00
  0.00000000e+00  0.00000000e+00  0.00000000e+00  0.00000000e+00
  0.00000000e+00  0.00000000e+00 -1.00156709e-07  1.54351343e-08
  0.00000000e+00  0.00000000e+00  0.00000000e+00  2.87722434e-06]","[[ 4.21745060e-05  5.91267789e-04]
 [-3.27590915e-05  5.69659105e-04]]",[],0.0,0.0
1787209297.522087,1.5792405691596083,0.9054892184324176,2.3210259358348377,"[ 1.83517600e-06 -3.66436552e-07  0.00000000e+00  0.00000000e+00
  0.00000000e+00 -1.00156709e-07 -3.66436552e-07  1.69296933e-06
  0.00000000e+00  0.00000000e+00  0.00000000e+00  1.54351343e-08
  0.00000000e+00  0.00000000e+00  0.00000000e+00  0.00000000e+00
  0.00000000e+00  0.00000000e+00  0.00000000e+00  0.00000000e+00
  0.00000000e+00  0.00000000e+00  0.00000000e+00  0.00000000e+00
  0.00000000e+00  0.00000000e+00  0.00000000e+00  0.00000000e+00
  0.00000000e+00  0.00000000e+00 -1.00156709e-07  1.54351343e-08
  0.00000000e+00  0.00000000e+00  0.00000000e+00  2.87722434e-06]","[[ 4.21745060e-05  5.91267789e-04]
 [-3.27590915e-05  5.69659105e-04]]",[],0.0,0.0
1787209297.569679,1.5792405691596083,0.9054892184324176,2.3210259358348377,"[ 1.83517600e-06 -3.66436552e-07  0.00000000e+00  0.00000000e+00
  0.00000000e+00 -1.00156709e-07 -3.66436552e-07  1.69296933e-06
  0.00000000e+00  0.00000000e+00  0.00000000e+00  1.54351343e-08
  0.00000000e+00  0.00000000e+00  0.00000000e+00  0.00000000e+00
  0.00000000e+00  0.00000000e+00  0.00000000e+00  0.00000000e+00
  0.00000000e+00  0.00000000e+00  0.00000000e+00  0.00000000e+00
  0.00000000e+00  0.00000000e+00  0.00000000e+00  0.00000000e+00
  0.00000000e+00  0.00000000e+00 -1.00156709e-07  1.54351343e-08
  0.00000000e+00  0.00000000e+00  0.00000000e+00  2.87722434e-06]","[[ 4.21745060e-05  5.91267789e-04]
 [-3.27590915e-05  5.69659105e-04]]",[],0.0,0.0
1787209297.6219528,1.5792405691596083,0.9054892184324176,2.3210259358348377,"[ 1.83517600e-06 -3.66436552e-07  0.00000000e+00  0.00000000e+00
  0.00000000e+00 -1.00156709e-07 -3.66436552e-07  1.69296933e-06
  0.00000000e+00  0.00000000e+00  0.00000000e+00  1.54351343e-08
  0.00000000e+00  0.00000000e+00  0.00000000e+00  0.00000000e+00
  0.00000000e+00  0.00000000e+00  0.00000000e+00  0.00000000e+00
  0.00000000e+00  0.00000000e+00  0.00000000e+00  0.00000000e+00
  0.00000000e+00  0.00000000e+00  0.00000000e+00  0.00000000e+00
  0.00000000e+00  0.00000000e+00 -1.00156709e-07  1.54351343e-08
  0.00000000e+00  0.00000000e+00  0.00000000e+00  2.87722434e-06]","[[ 4.21745060e-05  5.91267789e-04]
 [-3.27590915e-05  5.69659105e-04]]",[],0.0,0.0
1787209297.670225,1.5792405691596083,0.9054892184324176,2.3210259358348377,"[ 1.83517600e-06 -3.66436552e-07  0.00000000e+00  0.00000000e+00
  0.00000000e+00 -1.00156709e-07 -3.66436552e-07  1.69296933e-06
  0.00000000e+00  0.00000000e+00  0.00000000e+00  1.54351343e-08
