time,x,y,yaw,cov_prop,K_gain,innovation,v_ekf,omega_ekf
1787154023.303325,1.807764796458416,0.5583167762025126,1.8964103564275892,"[ 7.40921489e-05 -2.66669946e-07  0.00000000e+00  0.00000000e+00
  0.00000000e+00 -4.63568798e-06 -2.66669946e-07  5.22052340e-05
  0.00000000e+00  0.00000000e+00  0.00000000e+00  4.96634484e-07
  0.00000000e+00  0.00000000e+00  0.00000000e+00  0.00000000e+00
  0.00000000e+00  0.00000000e+00  0.00000000e+00  0.00000000e+00
  0.00000000e+00  0.00000000e+00  0.00000000e+00  0.00000000e+00
  0.00000000e+00  0.00000000e+00  0.00000000e+00  0.00000000e+00
  0.00000000e+00  0.00000000e+00 -4.63568798e-06  4.96634484e-07
  0.00000000e+00  0.00000000e+00  0.00000000e+00  4.21888910e-06]","[[-0.00060262  0.06069577]
 [-0.0012304  -0.01400129]]",[],0.0,0.0
1787154023.3624911,1.807764796458416,0.5583167762025126,1.8964103564275892,"[ 7.40921489e-05 -2.66669946e-07  0.00000000e+00  0.00000000e+00
  0.00000000e+00 -4.63568798e-06 -2.66669946e-07  5.22052340e-05
  0.00000000e+00  0.00000000e+00  0.00000000e+00  4.96634484e-07
  0.00000000e+00  0.00000000e+00  0.00000000e+00  0.00000000e+00
  0.00000000e+00  0.00000000e+00  0.00000000e+00  0.00000000e+00
  0.00000000e+00  0.00000000e+00  0.00000000e+00  0.00000000e+00
  0.00000000e+00  0.00000000e+00  0.00000000e+00  0.00000000e+00
  0.00000000e+00  0.00000000e+00 -4.63568798e-06  4.96634484e-07
  0.00000000e+00  0.00000000e+00  0.00000000e+00  4.21888910e-06]","[[-0.00060262  0.06069577]
 [-0.0012304  -0.01400129]]",[],0.0,0.0
1787154023.3856118,1.807764796458416,0.5583167762025126,1.8964103564275892,"[ 7.40921489e-05 -2.66669946e-07  0.00000000e+00  0.00000000e+00
  0.00000000e+00 -4.63568798e-06 -2.66669946e-07  5.22052340e-05
  0.00000000e+00  0.00000000e+00  0.00000000e+00  4.96634484e-07
  0.00000000e+00  0.00000000e+00  0.00000000e+00  0.00000000e+00
  0.00000000e+00  0.00000000e+00  0.00000000e+00  0.00000000e+00
  0.00000000e+00  0.00000000e+00  0.00000000e+00  0.00000000e+00
  0.00000000e+00  0.00000000e+00  0.00000000e+00  0.00000000e+00
  0.00000000e+00  0.00000000e+00 -4.63568798e-06  4.96634484e-07
  0.00000000e+00  0.00000000e+00  0.00000000e+00  4.21888910e-06]","[[-0.00060262  0.06069577]
 [-0.0012304  -0.01400129]]",[],0.0,0.0
1787154023.5182528,1.807764796458416,0.5583167762025126,1.8964103564275892,"[ 7.40921489e-05 -2.66669946e-07  0.00000000e+00  0.00000000e+00
  0.00000000e+00 -4.63568798e-06 -2.66669946e-07  5.22052340e-05
  0.00000000e+00  0.00000000e+00  0.00000000e+00  4.96634484e-07
  0.00000000e+00  0.00000000e+00  0.00000000e+00  0.00000000e+00
  0.00000000e+00  0.00000000e+00  0.00000000e+00  0.00000000e+00
  0.00000000e+00  0.00000000e+00  0.00000000e+00  0.00000000e+00
  0.00000000e+00  0.00000000e+00  0.00000000e+00  0.00000000e+00
  0.00000000e+00  0.00000000e+00 -4.63568798e-06  4.96634484e-07
  0.00000000e+00  0.00000000e+00  0.00000000e+00  4.21888910e-06]","[[-0.00060262  0.06069577]
 [-0.0012304  -0.01400129]]",[],0.0,0.0
1787154023.5374997,1.807764796458416,0.5583167762025126,1.8964103564275892,"[ 7.40921489e-05 -2.66669946e-07  0.00000000e+00  0.00000000e+00
  0.00000000e+00 -4.63568798e-06 -2.66669946e-07  5.22052340e-05
  0.00000000e+00  0.00000000e+00  0.00000000e+00  4.96634484e-07
  0.00000000e+00  0.00000000e+00  0.00000000e+00  0.00000000e+00
  0.00000000e+00  0.00000000e+00  0.00000000e+00  0.00000000e+00
  0.00000000e+00  0.00000000e+00  0.00000000e+00  0.00000000e+00
  0.00000000e+00  0.00000000e+00  0.00000000e+00  0.00000000e+00
  0.00000000e+00  0.00000000e+00 -4.63568798e-06  4.96634484e-07
  0.00000000e+00  0.00000000e+00  0.00000000e+00  4.21888910e-06]","[[-0.00060262  0.06069577]
 [-0.0012304  -0.01400129]]",[],0.0,0.0
1787154023.6255064,1.807764796458416,0.5583167762025126,1.8964103564275892,"[ 7.40921489e-05 -2.66669946e-07  0.00000000e+00  0.00000000e+00
  0.00000000e+00 -4.63568798e-06 -2.66669946e-07  5.22052340e-05
  0.00000000e+00  0.00000000e+00  0.00000000e+00  4.96634484e-07
  0.00000000e+00  0.00000000e+00  0.00000000e+00  0.00000000e+00
  0.00000000e+00  0.00000000e+00  0.00000000e+00  0.00000000e+00
  0.00000000e+00  0.00000000e+00  0.00000000e+00  0.00000000e+00
  0.00000000e+00  0.00000000e+00  0.00000000e+00  0.00000000e+00
  0.00000000e+00  0.00000000e+00 -4.63568798e-06  4.96634484e-07
  0.00000000e+00  0.00000000e+00  0.00000000e+00  4.21888910e-06]","[[-0.00060262  0.06069577]
 [-0.0012304  -0.01400129]]",[],0.0,0.0
1787154023.639775,1.807764796458416,0.5583167762025126,1.8964103564275892,"[ 7.40921489e-05 -2.66669946e-07  0.00000000e+00  0.00000000e+00
  0.00000000e+00 -4.63568798e-06 -2.66669946e-07  5.22052340e-05
  0.00000000e+00  0.00000000e+00  0.00000000e+00  4.96634484e-07
  0.00000000e+00  0.00000000e+00  0.00000000e+00  0.00000000e+00
  0.00000000e+00  0.00000000e+00  0.00000000e+00  0.00000000e+00
  0.00000000e+00  0.00000000e+00  0.00000000e+00  0.00000000e+00
  0.00000000e+00  0.00000000e+00  0.00000000e+00  0.00000000e+00
  0.00000000e+00  0.00000000e+00 -4.63568798e-06  4.96634484e-07
  0.00000000e+00  0.00000000e+00  0.00000000e+00  4.21888910e-06]","[[-0.00060262  0.06069577]
 [-0.0012304  -0.01400129]]",[],0.0,0.0
1787154023.8312945,1.807764796458416,0.5583167762025126,1.8964103564275892,"[ 7.40921489e-05 -2.66669946e-07  0.00000000e+00  0.00000000e+00
  0.00000000e+00 -4.63568798e-06 -2.66669946e-07  5.22052340e-05
  0.00000000e+00  0.00000000e+00  0.00000000e+00  4.96634484e-07
  0.00000000e+00  0.00000000e+00  0.00000000e+00  0.00000000e+00
  0.00000000e+00  0.00000000e+00  0.00000000e+00  0.00000000e+00
  0.00000000e+00  0.00000000e+00  0.00000000e+00  0.00000000e+00
  0.00000000e+00  0.00000000e+00  0.00000000e+00  0.00000000e+00
  0.00000000e+00  0.00000000e+00 -4.63568798e-06  4.96634484e-07
  0.00000000e+00  0.00000000e+00  0.00000000e+00  4.21888910e-06]","[[-0.00060262  0.06069577]
 [-0.0012304  -0.01400129]]",[],0.0,0.0
1787154023.8575644,1.807764796458416,0.5583167762025126,1.8964103564275892,"[ 7.40921489e-05 -2.66669946e-07  0.00000000e+00  0.00000000e+00
  0.00000000e+00 -4.63568798e-06 -2.66669946e-07  5.22052340e-05
  0.00000000e+00  0.00000000e+00  0.00000000e+00  4.96634484e-07
  0.00000000e+00  0.00000000e+00  0.00000000e+00  0.00000000e+00
  0.00000000e+00  0.00000000e+00  0.00000000e+00  0.00000000e+00
  0.00000000e+00  0.00000000e+00  0.00000000e+00  0.00000000e+00
  0.00000000e+00  0.00000000e+00  0.00000000e+00  0.00000000e+00
  0.00000000e+00  0.00000000e+00 -4.63568798e-06  4.96634484e-07
  0.00000000e+00  0.00000000e+00  0.00000000e+00  4.21888910e-06]","[[-0.00060262  0.06069577]
 [-0.0012304  -0.01400129]]",[],0.0,0.0
1787154023.885829,1.807764796458416,0.5583167762025126,1.8964103564275892,"[ 7.40921489e-05 -2.66669946e-07  0.00000000e+00  0.00000000e+00
  0.00000000e+00 -4.63568798e-06 -2.66669946e-07  5.22052340e-05
  0.00000000e+00  0.00000000e+00  0.00000000e+00  4.96634484e-07
  0.00000000e+00  0.00000000e+00  0.00000000e+00  0.00000000e+00
  0.00000000e+00  0.00000000e+00  0.00000000e+00  0.00000000e+00
  0.00000000e+00  0.00000000e+00  0.00000000e+00  0.00000000e+00
  0.00000000e+00  0.00000000e+00  0.00000000e+00  0.00000000e+00
  0.00000000e+00  0.00000000e+00 -4.63568798e-06  4.96634484e-07
  0.00000000e+00  0.00000000e+00  0.00000000e+00  4.21888910e-06]","[[-0.00060262  0.06069577]
 [-0.0012304  -0.01400129]]",[],0.0,0.0
1787154024.098928,1.807764796458416,0.5583167762025126,1.8964103564275892,"[ 7.40921489e-05 -2.66669946e-07  0.00000000e+00  0.00000000e+00
  0.00000000e+00 -4.63568798e-06 -2.66669946e-07  5.22052340e-05
  0.00000000e+00  0.00000000e+00  0.00000000e+00  4.96634484e-07
  0.00000000e+00  0.00000000e+00  0.00000000e+00  0.00000000e+00
  0.00000000e+00  0.00000000e+00  0.00000000e+00  0.00000000e+00
  0.00000000e+00  0.00000000e+00  0.00000000e+00  0.00000000e+00
  0.00000000e+00  0.00000000e+00  0.00000000e+00  0.00000000e+00
  0.00000000e+00  0.00000000e+00 -4.63568798e-06  4.96634484e-07
  0.00000000e+00  0.00000000e+00  0.00000000e+00  4.21888910e-06]","[[-0.00060262  0.06069577]
 [-0.0012304  -0.01400129]]",[],0.0,0.0
1787154024.1387124,1.7865117582515404,0.5369455197192059,1.9314642887703464,"[ 3.23523012e-05 -7.04319999e-07  0.00000000e+00  0.00000000e+00
  0.00000000e+00 -2.01977729e-06 -7.04319999e-07  2.48943299e-05
  0.00000000e+00  0.00000000e+00  0.00000000e+00  1.50228088e-07
  0.00000000e+00  0.00000000e+00  0.00000000e+00  0.00000000e+00
  0.00000000e+00  0.00000000e+00  0.00000000e+00  0.00000000e+00
  0.00000000e+00  0.00000000e+00  0.00000000e+00  0.00000000e+00
  0.00000000e+00  0.00000000e+00  0.00000000e+00  0.00000000e+00
  0.00000000e+00  0.00000000e+00 -2.01977729e-06  1.50228088e-07
  0.00000000e+00  0.00000000e+00  0.00000000e+00  3.20279039e-06]","[[ 0.0003125   0.02388599]
 [-0.0005856   0.00557375]]",[],0.0,0.0
1787154024.1853094,1.7865117582515404,0.5369455197192059,1.9314642887703464,"[ 3.23523012e-05 -7.04319999e-07  0.00000000e+00  0.00000000e+00
  0.00000000e+00 -2.01977729e-06 -7.04319999e-07  2.48943299e-05
  0.00000000e+00  0.00000000e+00  0.00000000e+00  1.50228088e-07
  0.00000000e+00  0.00000000e+00  0.00000000e+00  0.00000000e+00
  0.00000000e+00  0.00000000e+00  0.00000000e+00  0.00000000e+00
  0.00000000e+00  0.00000000e+00  0.00000000e+00  0.00000000e+00
  0.00000000e+00  0.00000000e+00  0.00000000e+00  0.00000000e+00
  0.00000000e+00  0.00000000e+00 -2.01977729e-06  1.50228088e-07
  0.00000000e+00  0.00000000e+00  0.00000000e+00  3.20279039e-06]","[[ 0.0003125   0.02388599]
 [-0.0005856   0.00557375]]",[],0.0,0.0
1787154024.4047666,1.7865117582515404,0.5369455197192059,1.9314642887703464,"[ 3.23523012e-05 -7.04319999e-07  0.00000000e+00  0.00000000e+00
  0.00000000e+00 -2.01977729e-06 -7.04319999e-07  2.48943299e-05
  0.00000000e+00  0.00000000e+00  0.00000000e+00  1.50228088e-07
  0.00000000e+00  0.00000000e+00  0.00000000e+00  0.00000000e+00
  0.00000000e+00  0.00000000e+00  0.00000000e+00  0.00000000e+00
  0.00000000e+00  0.00000000e+00  0.00000000e+00  0.00000000e+00
  0.00000000e+00  0.00000000e+00  0.00000000e+00  0.00000000e+00
  0.00000000e+00  0.00000000e+00 -2.01977729e-06  1.50228088e-07
  0.00000000e+00  0.00000000e+00  0.00000000e+00  3.20279039e-06]","[[ 0.0003125   0.02388599]
 [-0.0005856   0.00557375]]",[],0.0,0.0
1787154024.433659,1.7865117582515404,0.5369455197192059,1.9314642887703464,"[ 3.23523012e-05 -7.04319999e-07  0.00000000e+00  0.00000000e+00
  0.00000000e+00 -2.01977729e-06 -7.04319999e-07  2.48943299e-05
  0.00000000e+00  0.00000000e+00  0.00000000e+00  1.50228088e-07
  0.00000000e+00  0.00000000e+00  0.00000000e+00  0.00000000e+00
  0.00000000e+00  0.00000000e+00  0.00000000e+00  0.00000000e+00
  0.00000000e+00  0.00000000e+00  0.00000000e+00  0.00000000e+00
  0.00000000e+00  0.00000000e+00  0.00000000e+00  0.00000000e+00
  0.00000000e+00  0.00000000e+00 -2.01977729e-06  1.50228088e-07
  0.00000000e+00  0.00000000e+00  0.00000000e+00  3.20279039e-06]","[[ 0.0003125   0.02388599]
 [-0.0005856   0.00557375]]",[],0.0,0.0
1787154024.649655,1.7865117582515404,0.5369455197192059,1.9314642887703464,"[ 3.23523012e-05 -7.04319999e-07  0.00000000e+00  0.00000000e+00
  0.00000000e+00 -2.01977729e-06 -7.04319999e-07  2.48943299e-05
  0.00000000e+00  0.00000000e+00  0.00000000e+00  1.50228088e-07
  0.00000000e+00  0.00000000e+00  0.00000000e+00  0.00000000e+00
  0.00000000e+00  0.00000000e+00  0.00000000e+00  0.00000000e+00
  0.00000000e+00  0.00000000e+00  0.00000000e+00  0.00000000e+00
  0.00000000e+00  0.00000000e+00  0.00000000e+00  0.00000000e+00
  0.00000000e+00  0.00000000e+00 -2.01977729e-06  1.50228088e-07
  0.00000000e+00  0.00000000e+00  0.00000000e+00  3.20279039e-06]","[[ 0.0003125   0.02388599]
 [-0.0005856   0.00557375]]",[],0.0,0.0
1787154024.6873777,1.7865117582515404,0.5369455197192059,1.9314642887703464,"[ 3.23523012e-05 -7.04319999e-07  0.00000000e+00  0.00000000e+00
  0.00000000e+00 -2.01977729e-06 -7.04319999e-07  2.48943299e-05
  0.00000000e+00  0.00000000e+00  0.00000000e+00  1.50228088e-07
  0.00000000e+00  0.00000000e+00  0.00000000e+00  0.00000000e+00
  0.00000000e+00  0.00000000e+00  0.00000000e+00  0.00000000e+00
  0.00000000e+00  0.00000000e+00  0.00000000e+00  0.00000000e+00
  0.00000000e+00  0.00000000e+00  0.00000000e+00  0.00000000e+00
  0.00000000e+00  0.00000000e+00 -2.01977729e-06  1.50228088e-07
  0.00000000e+00  0.00000000e+00  0.00000000e+00  3.20279039e-06]","[[ 0.0003125   0.02388599]
 [-0.0005856   0.00557375]]",[],0.0,0.0
1787154024.9224718,1.7865117582515404,0.5369455197192059,1.9314642887703464,"[ 3.23523012e-05 -7.04319999e-07  0.00000000e+00  0.00000000e+00
  0.00000000e+00 -2.01977729e-06 -7.04319999e-07  2.48943299e-05
  0.00000000e+00  0.00000000e+00  0.00000000e+00  1.50228088e-07
  0.00000000e+00  0.00000000e+00  0.00000000e+00  0.00000000e+00
  0.00000000e+00  0.00000000e+00  0.00000000e+00  0.00000000e+00
  0.00000000e+00  0.00000000e+00  0.00000000e+00  0.00000000e+00
  0.00000000e+00  0.00000000e+00  0.00000000e+00  0.00000000e+00
  0.00000000e+00  0.00000000e+00 -2.01977729e-06  1.50228088e-07
  0.00000000e+00  0.00000000e+00  0.00000000e+00  3.20279039e-06]","[[ 0.0003125   0.02388599]
 [-0.0005856   0.00557375]]",[],0.0,0.0
1787154025.0497782,1.7865117582515404,0.5369455197192059,1.9314642887703464,"[ 3.23523012e-05 -7.04319999e-07  0.00000000e+00  0.00000000e+00
  0.00000000e+00 -2.01977729e-06 -7.04319999e-07  2.48943299e-05
  0.00000000e+00  0.00000000e+00  0.00000000e+00  1.50228088e-07
  0.00000000e+00  0.00000000e+00  0.00000000e+00  0.00000000e+00
  0.00000000e+00  0.00000000e+00  0.00000000e+00  0.00000000e+00
  0.00000000e+00  0.00000000e+00  0.00000000e+00  0.00000000e+00
  0.00000000e+00  0.00000000e+00  0.00000000e+00  0.00000000e+00
  0.00000000e+00  0.00000000e+00 -2.01977729e-06  1.50228088e-07
  0.00000000e+00  0.00000000e+00  0.00000000e+00  3.20279039e-06]","[[ 0.0003125   0.02388599]
 [-0.0005856   0.00557375]]",[],0.0,0.0
1787154025.0847645,1.784637317382444,0.5303538564441549,1.968268495446754,"[ 2.03823605e-05 -5.84841004e-07  0.00000000e+00  0.00000000e+00
  0.00000000e+00 -1.04653026e-06 -5.84841004e-07  1.65229350e-05
  0.00000000e+00  0.00000000e+00  0.00000000e+00  1.01643824e-07
  0.00000000e+00  0.00000000e+00  0.00000000e+00  0.00000000e+00
  0.00000000e+00  0.00000000e+00  0.00000000e+00  0.00000000e+00
  0.00000000e+00  0.00000000e+00  0.00000000e+00  0.00000000e+00
  0.00000000e+00  0.00000000e+00  0.00000000e+00  0.00000000e+00
  0.00000000e+00  0.00000000e+00 -1.04653026e-06  1.01643824e-07
  0.00000000e+00  0.00000000e+00  0.00000000e+00  3.16580042e-06]","[[ 0.00022637  0.01387896]
 [-0.00038133  0.00407304]]",[],0.0,0.0
1787154025.1609313,1.784637317382444,0.5303538564441549,1.968268495446754,"[ 2.03823605e-05 -5.84841004e-07  0.00000000e+00  0.00000000e+00
  0.00000000e+00 -1.04653026e-06 -5.84841004e-07  1.65229350e-05
  0.00000000e+00  0.00000000e+00  0.00000000e+00  1.01643824e-07
  0.00000000e+00  0.00000000e+00  0.00000000e+00  0.00000000e+00
  0.00000000e+00  0.00000000e+00  0.00000000e+00  0.00000000e+00
  0.00000000e+00  0.00000000e+00  0.00000000e+00  0.00000000e+00
  0.00000000e+00  0.00000000e+00  0.00000000e+00  0.00000000e+00
  0.00000000e+00  0.00000000e+00 -1.04653026e-06  1.01643824e-07
  0.00000000e+00  0.00000000e+00  0.00000000e+00  3.16580042e-06]","[[ 0.00022637  0.01387896]
 [-0.00038133  0.00407304]]",[],0.0,0.0
1787154025.2685826,1.784637317382444,0.5303538564441549,1.968268495446754,"[ 2.03823605e-05 -5.84841004e-07  0.00000000e+00  0.00000000e+00
  0.00000000e+00 -1.04653026e-06 -5.84841004e-07  1.65229350e-05
  0.00000000e+00  0.00000000e+00  0.00000000e+00  1.01643824e-07
  0.00000000e+00  0.00000000e+00  0.00000000e+00  0.00000000e+00
  0.00000000e+00  0.00000000e+00  0.00000000e+00  0.00000000e+00
  0.00000000e+00  0.00000000e+00  0.00000000e+00  0.00000000e+00
  0.00000000e+00  0.00000000e+00  0.00000000e+00  0.00000000e+00
  0.00000000e+00  0.00000000e+00 -1.04653026e-06  1.01643824e-07
  0.00000000e+00  0.00000000e+00  0.00000000e+00  3.16580042e-06]","[[ 0.00022637  0.01387896]
 [-0.00038133  0.00407304]]",[],0.0,0.0
1787154025.283564,1.784637317382444,0.5303538564441549,1.968268495446754,"[ 2.03823605e-05 -5.84841004e-07  0.00000000e+00  0.00000000e+00
  0.00000000e+00 -1.04653026e-06 -5.84841004e-07  1.65229350e-05
  0.00000000e+00  0.00000000e+00  0.00000000e+00  1.01643824e-07
  0.00000000e+00  0.00000000e+00  0.00000000e+00  0.00000000e+00
  0.00000000e+00  0.00000000e+00  0.00000000e+00  0.00000000e+00
  0.00000000e+00  0.00000000e+00  0.00000000e+00  0.00000000e+00
  0.00000000e+00  0.00000000e+00  0.00000000e+00  0.00000000e+00
  0.00000000e+00  0.00000000e+00 -1.04653026e-06  1.01643824e-07
  0.00000000e+00  0.00000000e+00  0.00000000e+00  3.16580042e-06]","[[ 0.00022637  0.01387896]
 [-0.00038133  0.00407304]]",[],0.0,0.0
1787154025.446387,1.784637317382444,0.5303538564441549,1.968268495446754,"[ 2.03823605e-05 -5.84841004e-07  0.00000000e+00  0.00000000e+00
  0.00000000e+00 -1.04653026e-06 -5.84841004e-07  1.65229350e-05
  0.00000000e+00  0.00000000e+00  0.00000000e+00  1.01643824e-07
  0.00000000e+00  0.00000000e+00  0.00000000e+00  0.00000000e+00
  0.00000000e+00  0.00000000e+00  0.00000000e+00  0.00000000e+00
  0.00000000e+00  0.00000000e+00  0.00000000e+00  0.00000000e+00
  0.00000000e+00  0.00000000e+00  0.00000000e+00  0.00000000e+00
  0.00000000e+00  0.00000000e+00 -1.04653026e-06  1.01643824e-07
  0.00000000e+00  0.00000000e+00  0.00000000e+00  3.16580042e-06]","[[ 0.00022637  0.01387896]
 [-0.00038133  0.00407304]]",[],0.0,0.0
1787154025.4894085,1.784637317382444,0.5303538564441549,1.968268495446754,"[ 2.03823605e-05 -5.84841004e-07  0.00000000e+00  0.00000000e+00
  0.00000000e+00 -1.04653026e-06 -5.84841004e-07  1.65229350e-05
  0.00000000e+00  0.00000000e+00  0.00000000e+00  1.01643824e-07
  0.00000000e+00  0.00000000e+00  0.00000000e+00  0.00000000e+00
  0.00000000e+00  0.00000000e+00  0.00000000e+00  0.00000000e+00
  0.00000000e+00  0.00000000e+00  0.00000000e+00  0.00000000e+00
  0.00000000e+00  0.00000000e+00  0.00000000e+00  0.00000000e+00
  0.00000000e+00  0.00000000e+00 -1.04653026e-06  1.01643824e-07
  0.00000000e+00  0.00000000e+00  0.00000000e+00  3.16580042e-06]","[[ 0.00022637  0.01387896]
 [-0.00038133  0.00407304]]",[],0.0,0.0
1787154025.5816004,1.784637317382444,0.5303538564441549,1.968268495446754,"[ 2.03823605e-05 -5.84841004e-07  0.00000000e+00  0.00000000e+00
  0.00000000e+00 -1.04653026e-06 -5.84841004e-07  1.65229350e-05
  0.00000000e+00  0.00000000e+00  0.00000000e+00  1.01643824e-07
  0.00000000e+00  0.00000000e+00  0.00000000e+00  0.00000000e+00
  0.00000000e+00  0.00000000e+00  0.00000000e+00  0.00000000e+00
  0.00000000e+00  0.00000000e+00  0.00000000e+00  0.00000000e+00
  0.00000000e+00  0.00000000e+00  0.00000000e+00  0.00000000e+00
  0.00000000e+00  0.00000000e+00 -1.04653026e-06  1.01643824e-07
  0.00000000e+00  0.00000000e+00  0.00000000e+00  3.16580042e-06]","[[ 0.00022637  0.01387896]
 [-0.00038133  0.00407304]]",[],0.0,0.0
1787154025.588264,1.784637317382444,0.5303538564441549,1.968268495446754,"[ 2.03823605e-05 -5.84841004e-07  0.00000000e+00  0.00000000e+00
  0.00000000e+00 -1.04653026e-06 -5.84841004e-07  1.65229350e-05
  0.00000000e+00  0.00000000e+00  0.00000000e+00  1.01643824e-07
  0.00000000e+00  0.00000000e+00  0.00000000e+00  0.00000000e+00
  0.00000000e+00  0.00000000e+00  0.00000000e+00  0.00000000e+00
  0.00000000e+00  0.00000000e+00  0.00000000e+00  0.00000000e+00
  0.00000000e+00  0.00000000e+00  0.00000000e+00  0.00000000e+00
  0.00000000e+00  0.00000000e+00 -1.04653026e-06  1.01643824e-07
  0.00000000e+00  0.00000000e+00  0.00000000e+00  3.16580042e-06]","[[ 0.00022637  0.01387896]
 [-0.00038133  0.00407304]]",[],0.0,0.0
1787154025.663446,1.784637317382444,0.5303538564441549,1.968268495446754,"[ 2.03823605e-05 -5.84841004e-07  0.00000000e+00  0.00000000e+00
  0.00000000e+00 -1.04653026e-06 -5.84841004e-07  1.65229350e-05
  0.00000000e+00  0.00000000e+00  0.00000000e+00  1.01643824e-07
  0.00000000e+00  0.00000000e+00  0.00000000e+00  0.00000000e+00
  0.00000000e+00  0.00000000e+00  0.00000000e+00  0.00000000e+00
  0.00000000e+00  0.00000000e+00  0.00000000e+00  0.00000000e+00
  0.00000000e+00  0.00000000e+00  0.00000000e+00  0.00000000e+00
  0.00000000e+00  0.00000000e+00 -1.04653026e-06  1.01643824e-07
  0.00000000e+00  0.00000000e+00  0.00000000e+00  3.16580042e-06]","[[ 0.00022637  0.01387896]
 [-0.00038133  0.00407304]]",[],0.0,0.0
1787154025.7222564,1.784637317382444,0.5303538564441549,1.968268495446754,"[ 2.03823605e-05 -5.84841004e-07  0.00000000e+00  0.00000000e+00
  0.00000000e+00 -1.04653026e-06 -5.84841004e-07  1.65229350e-05
  0.00000000e+00  0.00000000e+00  0.00000000e+00  1.01643824e-07
  0.00000000e+00  0.00000000e+00  0.00000000e+00  0.00000000e+00
  0.00000000e+00  0.00000000e+00  0.00000000e+00  0.00000000e+00
  0.00000000e+00  0.00000000e+00  0.00000000e+00  0.00000000e+00
  0.00000000e+00  0.00000000e+00  0.00000000e+00  0.00000000e+00
  0.00000000e+00  0.00000000e+00 -1.04653026e-06  1.01643824e-07
  0.00000000e+00  0.00000000e+00  0.00000000e+00  3.16580042e-06]","[[ 0.00022637  0.01387896]
 [-0.00038133  0.00407304]]",[],0.0,0.0
1787154025.7500064,1.784637317382444,0.5303538564441549,1.968268495446754,"[ 2.03823605e-05 -5.84841004e-07  0.00000000e+00  0.00000000e+00
  0.00000000e+00 -1.04653026e-06 -5.84841004e-07  1.65229350e-05
  0.00000000e+00  0.00000000e+00  0.00000000e+00  1.01643824e-07
  0.00000000e+00  0.00000000e+00  0.00000000e+00  0.00000000e+00
  0.00000000e+00  0.00000000e+00  0.00000000e+00  0.00000000e+00
  0.00000000e+00  0.00000000e+00  0.00000000e+00  0.00000000e+00
  0.00000000e+00  0.00000000e+00  0.00000000e+00  0.00000000e+00
  0.00000000e+00  0.00000000e+00 -1.04653026e-06  1.01643824e-07
  0.00000000e+00  0.00000000e+00  0.00000000e+00  3.16580042e-06]","[[ 0.00022637  0.01387896]
 [-0.00038133  0.00407304]]",[],0.0,0.0
1787154025.7900345,1.784637317382444,0.5303538564441549,1.968268495446754,"[ 2.03823605e-05 -5.84841004e-07  0.00000000e+00  0.00000000e+00
  0.00000000e+00 -1.04653026e-06 -5.84841004e-07  1.65229350e-05
  0.00000000e+00  0.00000000e+00  0.00000000e+00  1.01643824e-07
  0.00000000e+00  0.00000000e+00  0.00000000e+00  0.00000000e+00
  0.00000000e+00  0.00000000e+00  0.00000000e+00  0.00000000e+00
  0.00000000e+00  0.00000000e+00  0.00000000e+00  0.00000000e+00
  0.00000000e+00  0.00000000e+00  0.00000000e+00  0.00000000e+00
  0.00000000e+00  0.00000000e+00 -1.04653026e-06  1.01643824e-07
  0.00000000e+00  0.00000000e+00  0.00000000e+00  3.16580042e-06]","[[ 0.00022637  0.01387896]
 [-0.00038133  0.00407304]]",[],0.0,0.0
1787154025.8702252,1.784637317382444,0.5303538564441549,1.968268495446754,"[ 2.03823605e-05 -5.84841004e-07  0.00000000e+00  0.00000000e+00
  0.00000000e+00 -1.04653026e-06 -5.84841004e-07  1.65229350e-05
  0.00000000e+00  0.00000000e+00  0.00000000e+00  1.01643824e-07
  0.00000000e+00  0.00000000e+00  0.00000000e+00  0.00000000e+00
  0.00000000e+00  0.00000000e+00  0.00000000e+00  0.00000000e+00
  0.00000000e+00  0.00000000e+00  0.00000000e+00  0.00000000e+00
  0.00000000e+00  0.00000000e+00  0.00000000e+00  0.00000000e+00
  0.00000000e+00  0.00000000e+00 -1.04653026e-06  1.01643824e-07
  0.00000000e+00  0.00000000e+00  0.00000000e+00  3.16580042e-06]","[[ 0.00022637  0.01387896]
 [-0.00038133  0.00407304]]",[],0.0,0.0
1787154025.8841765,1.784637317382444,0.5303538564441549,1.968268495446754,"[ 2.03823605e-05 -5.84841004e-07  0.00000000e+00  0.00000000e+00
  0.00000000e+00 -1.04653026e-06 -5.84841004e-07  1.65229350e-05
  0.00000000e+00  0.00000000e+00  0.00000000e+00  1.01643824e-07
  0.00000000e+00  0.00000000e+00  0.00000000e+00  0.00000000e+00
  0.00000000e+00  0.00000000e+00  0.00000000e+00  0.00000000e+00
  0.00000000e+00  0.00000000e+00  0.00000000e+00  0.00000000e+00
  0.00000000e+00  0.00000000e+00  0.00000000e+00  0.00000000e+00
  0.00000000e+00  0.00000000e+00 -1.04653026e-06  1.01643824e-07
  0.00000000e+00  0.00000000e+00  0.00000000e+00  3.16580042e-06]","[[ 0.00022637  0.01387896]
 [-0.00038133  0.00407304]]",[],0.0,0.0
1787154025.9381635,1.784637317382444,0.5303538564441549,1.968268495446754,"[ 2.03823605e-05 -5.84841004e-07  0.00000000e+00  0.00000000e+00
  0.00000000e+00 -1.04653026e-06 -5.84841004e-07  1.65229350e-05
  0.00000000e+00  0.00000000e+00  0.00000000e+00  1.01643824e-07
  0.00000000e+00  0.00000000e+00  0.00000000e+00  0.00000000e+00
  0.00000000e+00  0.00000000e+00  0.00000000e+00  0.00000000e+00
  0.00000000e+00  0.00000000e+00  0.00000000e+00  0.00000000e+00
  0.00000000e+00  0.00000000e+00  0.00000000e+00  0.00000000e+00
  0.00000000e+00  0.00000000e+00 -1.04653026e-06  1.01643824e-07
  0.00000000e+00  0.00000000e+00  0.00000000e+00  3.16580042e-06]","[[ 0.00022637  0.01387896]
 [-0.00038133  0.00407304]]",[],0.0,0.0
1787154025.9884088,1.784637317382444,0.5303538564441549,1.968268495446754,"[ 2.03823605e-05 -5.84841004e-07  0.00000000e+00  0.00000000e+00
  0.00000000e+00 -1.04653026e-06 -5.84841004e-07  1.65229350e-05
  0.00000000e+00  0.00000000e+00  0.00000000e+00  1.01643824e-07
  0.00000000e+00  0.00000000e+00  0.00000000e+00  0.00000000e+00
  0.00000000e+00  0.00000000e+00  0.00000000e+00  0.00000000e+00
  0.00000000e+00  0.00000000e+00  0.00000000e+00  0.00000000e+00
  0.00000000e+00  0.00000000e+00  0.00000000e+00  0.00000000e+00
  0.00000000e+00  0.00000000e+00 -1.04653026e-06  1.01643824e-07
  0.00000000e+00  0.00000000e+00  0.00000000e+00  3.16580042e-06]","[[ 0.00022637  0.01387896]
 [-0.00038133  0.00407304]]",[],0.0,0.0
1787154026.0333555,1.784637317382444,0.5303538564441549,1.968268495446754,"[ 2.03823605e-05 -5.84841004e-07  0.00000000e+00  0.00000000e+00
  0.00000000e+00 -1.04653026e-06 -5.84841004e-07  1.65229350e-05
  0.00000000e+00  0.00000000e+00  0.00000000e+00  1.01643824e-07
  0.00000000e+00  0.00000000e+00  0.00000000e+00  0.00000000e+00
  0.00000000e+00  0.00000000e+00  0.00000000e+00  0.00000000e+00
  0.00000000e+00  0.00000000e+00  0.00000000e+00  0.00000000e+00
  0.00000000e+00  0.00000000e+00  0.00000000e+00  0.00000000e+00
  0.00000000e+00  0.00000000e+00 -1.04653026e-06  1.01643824e-07
  0.00000000e+00  0.00000000e+00  0.00000000e+00  3.16580042e-06]","[[ 0.00022637  0.01387896]
 [-0.00038133  0.00407304]]",[],0.0,0.0
1787154026.086414,1.7800699489745062,0.5235353580115985,1.9959090718917132,"[ 1.51453716e-05 -4.58241597e-07  0.00000000e+00  0.00000000e+00
  0.00000000e+00 -7.02592475e-07 -4.58241597e-07  1.27394957e-05
  0.00000000e+00  0.00000000e+00  0.00000000e+00  7.69066514e-08
  0.00000000e+00  0.00000000e+00  0.00000000e+00  0.00000000e+00
  0.00000000e+00  0.00000000e+00  0.00000000e+00  0.00000000e+00
  0.00000000e+00  0.00000000e+00  0.00000000e+00  0.00000000e+00
  0.00000000e+00  0.00000000e+00  0.00000000e+00  0.00000000e+00
  0.00000000e+00  0.00000000e+00 -7.02592475e-07  7.69066514e-08
  0.00000000e+00  0.00000000e+00  0.00000000e+00  3.44638759e-06]","[[ 0.00016814  0.01017138]
 [-0.00029431  0.0031176 ]]",[],0.0,0.0
1787154026.1381266,1.7800699489745062,0.5235353580115985,1.9959090718917132,"[ 1.51453716e-05 -4.58241597e-07  0.00000000e+00  0.00000000e+00
  0.00000000e+00 -7.02592475e-07 -4.58241597e-07  1.27394957e-05
  0.00000000e+00  0.00000000e+00  0.00000000e+00  7.69066514e-08
  0.00000000e+00  0.00000000e+00  0.00000000e+00  0.00000000e+00
  0.00000000e+00  0.00000000e+00  0.00000000e+00  0.00000000e+00
  0.00000000e+00  0.00000000e+00  0.00000000e+00  0.00000000e+00
  0.00000000e+00  0.00000000e+00  0.00000000e+00  0.00000000e+00
  0.00000000e+00  0.00000000e+00 -7.02592475e-07  7.69066514e-08
  0.00000000e+00  0.00000000e+00  0.00000000e+00  3.44638759e-06]","[[ 0.00016814  0.01017138]
 [-0.00029431  0.0031176 ]]",[],0.0,0.0
1787154026.1833942,1.7800699489745062,0.5235353580115985,1.9959090718917132,"[ 1.51453716e-05 -4.58241597e-07  0.00000000e+00  0.00000000e+00
  0.00000000e+00 -7.02592475e-07 -4.58241597e-07  1.27394957e-05
  0.00000000e+00  0.00000000e+00  0.00000000e+00  7.69066514e-08
  0.00000000e+00  0.00000000e+00  0.00000000e+00  0.00000000e+00
  0.00000000e+00  0.00000000e+00  0.00000000e+00  0.00000000e+00
  0.00000000e+00  0.00000000e+00  0.00000000e+00  0.00000000e+00
  0.00000000e+00  0.00000000e+00  0.00000000e+00  0.00000000e+00
  0.00000000e+00  0.00000000e+00 -7.02592475e-07  7.69066514e-08
  0.00000000e+00  0.00000000e+00  0.00000000e+00  3.44638759e-06]","[[ 0.00016814  0.01017138]
 [-0.00029431  0.0031176 ]]",[],0.0,0.0
1787154026.2339642,1.7800699489745062,0.5235353580115985,1.9959090718917132,"[ 1.51453716e-05 -4.58241597e-07  0.00000000e+00  0.00000000e+00
  0.00000000e+00 -7.02592475e-07 -4.58241597e-07  1.27394957e-05
  0.00000000e+00  0.00000000e+00  0.00000000e+00  7.69066514e-08
  0.00000000e+00  0.00000000e+00  0.00000000e+00  0.00000000e+00
  0.00000000e+00  0.00000000e+00  0.00000000e+00  0.00000000e+00
  0.00000000e+00  0.00000000e+00  0.00000000e+00  0.00000000e+00
  0.00000000e+00  0.00000000e+00  0.00000000e+00  0.00000000e+00
  0.00000000e+00  0.00000000e+00 -7.02592475e-07  7.69066514e-08
  0.00000000e+00  0.00000000e+00  0.00000000e+00  3.44638759e-06]","[[ 0.00016814  0.01017138]
 [-0.00029431  0.0031176 ]]",[],0.0,0.0
1787154026.2873795,1.7800699489745062,0.5235353580115985,1.9959090718917132,"[ 1.51453716e-05 -4.58241597e-07  0.00000000e+00  0.00000000e+00
  0.00000000e+00 -7.02592475e-07 -4.58241597e-07  1.27394957e-05
  0.00000000e+00  0.00000000e+00  0.00000000e+00  7.69066514e-08
  0.00000000e+00  0.00000000e+00  0.00000000e+00  0.00000000e+00
  0.00000000e+00  0.00000000e+00  0.00000000e+00  0.00000000e+00
  0.00000000e+00  0.00000000e+00  0.00000000e+00  0.00000000e+00
  0.00000000e+00  0.00000000e+00  0.00000000e+00  0.00000000e+00
  0.00000000e+00  0.00000000e+00 -7.02592475e-07  7.69066514e-08
  0.00000000e+00  0.00000000e+00  0.00000000e+00  3.44638759e-06]","[[ 0.00016814  0.01017138]
 [-0.00029431  0.0031176 ]]",[],0.0,0.0
1787154026.3553512,1.7800699489745062,0.5235353580115985,1.9959090718917132,"[ 1.51453716e-05 -4.58241597e-07  0.00000000e+00  0.00000000e+00
  0.00000000e+00 -7.02592475e-07 -4.58241597e-07  1.27394957e-05
  0.00000000e+00  0.00000000e+00  0.00000000e+00  7.69066514e-08
  0.00000000e+00  0.00000000e+00  0.00000000e+00  0.00000000e+00
  0.00000000e+00  0.00000000e+00  0.00000000e+00  0.00000000e+00
  0.00000000e+00  0.00000000e+00  0.00000000e+00  0.00000000e+00
  0.00000000e+00  0.00000000e+00  0.00000000e+00  0.00000000e+00
  0.00000000e+00  0.00000000e+00 -7.02592475e-07  7.69066514e-08
  0.00000000e+00  0.00000000e+00  0.00000000e+00  3.44638759e-06]","[[ 0.00016814  0.01017138]
 [-0.00029431  0.0031176 ]]",[],0.0,0.0
1787154026.3837729,1.7800699489745062,0.5235353580115985,1.9959090718917132,"[ 1.51453716e-05 -4.58241597e-07  0.00000000e+00  0.00000000e+00
  0.00000000e+00 -7.02592475e-07 -4.58241597e-07  1.27394957e-05
  0.00000000e+00  0.00000000e+00  0.00000000e+00  7.69066514e-08
  0.00000000e+00  0.00000000e+00  0.00000000e+00  0.00000000e+00
  0.00000000e+00  0.00000000e+00  0.00000000e+00  0.00000000e+00
  0.00000000e+00  0.00000000e+00  0.00000000e+00  0.00000000e+00
  0.00000000e+00  0.00000000e+00  0.00000000e+00  0.00000000e+00
  0.00000000e+00  0.00000000e+00 -7.02592475e-07  7.69066514e-08
  0.00000000e+00  0.00000000e+00  0.00000000e+00  3.44638759e-06]","[[ 0.00016814  0.01017138]
 [-0.00029431  0.0031176 ]]",[],0.0,0.0
1787154026.4623241,1.7800699489745062,0.5235353580115985,1.9959090718917132,"[ 1.51453716e-05 -4.58241597e-07  0.00000000e+00  0.00000000e+00
  0.00000000e+00 -7.02592475e-07 -4.58241597e-07  1.27394957e-05
  0.00000000e+00  0.00000000e+00  0.00000000e+00  7.69066514e-08
  0.00000000e+00  0.00000000e+00  0.00000000e+00  0.00000000e+00
  0.00000000e+00  0.00000000e+00  0.00000000e+00  0.00000000e+00
  0.00000000e+00  0.00000000e+00  0.00000000e+00  0.00000000e+00
  0.00000000e+00  0.00000000e+00  0.00000000e+00  0.00000000e+00
  0.00000000e+00  0.00000000e+00 -7.02592475e-07  7.69066514e-08
  0.00000000e+00  0.00000000e+00  0.00000000e+00  3.44638759e-06]","[[ 0.00016814  0.01017138]
 [-0.00029431  0.0031176 ]]",[],0.0,0.0
1787154026.5154023,1.7800699489745062,0.5235353580115985,1.9959090718917132,"[ 1.51453716e-05 -4.58241597e-07  0.00000000e+00  0.00000000e+00
  0.00000000e+00 -7.02592475e-07 -4.58241597e-07  1.27394957e-05
  0.00000000e+00  0.00000000e+00  0.00000000e+00  7.69066514e-08
  0.00000000e+00  0.00000000e+00  0.00000000e+00  0.00000000e+00
  0.00000000e+00  0.00000000e+00  0.00000000e+00  0.00000000e+00
  0.00000000e+00  0.00000000e+00  0.00000000e+00  0.00000000e+00
  0.00000000e+00  0.00000000e+00  0.00000000e+00  0.00000000e+00
  0.00000000e+00  0.00000000e+00 -7.02592475e-07  7.69066514e-08
  0.00000000e+00  0.00000000e+00  0.00000000e+00  3.44638759e-06]","[[ 0.00016814  0.01017138]
 [-0.00029431  0.0031176 ]]",[],0.0,0.0
1787154026.5333924,1.7800699489745062,0.5235353580115985,1.9959090718917132,"[ 1.51453716e-05 -4.58241597e-07  0.00000000e+00  0.00000000e+00
  0.00000000e+00 -7.02592475e-07 -4.58241597e-07  1.27394957e-05
  0.00000000e+00  0.00000000e+00  0.00000000e+00  7.69066514e-08
  0.00000000e+00  0.00000000e+00  0.00000000e+00  0.00000000e+00
  0.00000000e+00  0.00000000e+00  0.00000000e+00  0.00000000e+00
  0.00000000e+00  0.00000000e+00  0.00000000e+00  0.00000000e+00
  0.00000000e+00  0.00000000e+00  0.00000000e+00  0.00000000e+00
  0.00000000e+00  0.00000000e+00 -7.02592475e-07  7.69066514e-08
  0.00000000e+00  0.00000000e+00  0.00000000e+00  3.44638759e-06]","[[ 0.00016814  0.01017138]
 [-0.00029431  0.0031176 ]]",[],0.0,0.0
1787154026.584607,1.7800699489745062,0.5235353580115985,1.9959090718917132,"[ 1.51453716e-05 -4.58241597e-07  0.00000000e+00  0.00000000e+00
  0.00000000e+00 -7.02592475e-07 -4.58241597e-07  1.27394957e-05
  0.00000000e+00  0.00000000e+00  0.00000000e+00  7.69066514e-08
  0.00000000e+00  0.00000000e+00  0.00000000e+00  0.00000000e+00
  0.00000000e+00  0.00000000e+00  0.00000000e+00  0.00000000e+00
  0.00000000e+00  0.00000000e+00  0.00000000e+00  0.00000000e+00
  0.00000000e+00  0.00000000e+00  0.00000000e+00  0.00000000e+00
  0.00000000e+00  0.00000000e+00 -7.02592475e-07  7.69066514e-08
  0.00000000e+00  0.00000000e+00  0.00000000e+00  3.44638759e-06]","[[ 0.00016814  0.01017138]
 [-0.00029431  0.0031176 ]]",[],0.0,0.0
1787154026.6476462,1.7800699489745062,0.5235353580115985,1.9959090718917132,"[ 1.51453716e-05 -4.58241597e-07  0.00000000e+00  0.00000000e+00
  0.00000000e+00 -7.02592475e-07 -4.58241597e-07  1.27394957e-05
  0.00000000e+00  0.00000000e+00  0.00000000e+00  7.69066514e-08
  0.00000000e+00  0.00000000e+00  0.00000000e+00  0.00000000e+00
  0.00000000e+00  0.00000000e+00  0.00000000e+00  0.00000000e+00
  0.00000000e+00  0.00000000e+00  0.00000000e+00  0.00000000e+00
  0.00000000e+00  0.00000000e+00  0.00000000e+00  0.00000000e+00
  0.00000000e+00  0.00000000e+00 -7.02592475e-07  7.69066514e-08
  0.00000000e+00  0.00000000e+00  0.00000000e+00  3.44638759e-06]","[[ 0.00016814  0.01017138]
 [-0.00029431  0.0031176 ]]",[],0.0,0.0
1787154026.6882493,1.7800699489745062,0.5235353580115985,1.9959090718917132,"[ 1.51453716e-05 -4.58241597e-07  0.00000000e+00  0.00000000e+00
  0.00000000e+00 -7.02592475e-07 -4.58241597e-07  1.27394957e-05
  0.00000000e+00  0.00000000e+00  0.00000000e+00  7.69066514e-08
  0.00000000e+00  0.00000000e+00  0.00000000e+00  0.00000000e+00
  0.00000000e+00  0.00000000e+00  0.00000000e+00  0.00000000e+00
  0.00000000e+00  0.00000000e+00  0.00000000e+00  0.00000000e+00
  0.00000000e+00  0.00000000e+00  0.00000000e+00  0.00000000e+00
  0.00000000e+00  0.00000000e+00 -7.02592475e-07  7.69066514e-08
  0.00000000e+00  0.00000000e+00  0.00000000e+00  3.44638759e-06]","[[ 0.00016814  0.01017138]
 [-0.00029431  0.0031176 ]]",[],0.0,0.0
1787154026.7374232,1.7800699489745062,0.5235353580115985,1.9959090718917132,"[ 1.51453716e-05 -4.58241597e-07  0.00000000e+00  0.00000000e+00
  0.00000000e+00 -7.02592475e-07 -4.58241597e-07  1.27394957e-05
  0.00000000e+00  0.00000000e+00  0.00000000e+00  7.69066514e-08
  0.00000000e+00  0.00000000e+00  0.00000000e+00  0.00000000e+00
  0.00000000e+00  0.00000000e+00  0.00000000e+00  0.00000000e+00
  0.00000000e+00  0.00000000e+00  0.00000000e+00  0.00000000e+00
  0.00000000e+00  0.00000000e+00  0.00000000e+00  0.00000000e+00
  0.00000000e+00  0.00000000e+00 -7.02592475e-07  7.69066514e-08
  0.00000000e+00  0.00000000e+00  0.00000000e+00  3.44638759e-06]","[[ 0.00016814  0.01017138]
 [-0.00029431  0.0031176 ]]",[],0.0,0.0
1787154026.7841687,1.7800699489745062,0.5235353580115985,1.9959090718917132,"[ 1.51453716e-05 -4.58241597e-07  0.00000000e+00  0.00000000e+00
  0.00000000e+00 -7.02592475e-07 -4.58241597e-07  1.27394957e-05
  0.00000000e+00  0.00000000e+00  0.00000000e+00  7.69066514e-08
  0.00000000e+00  0.00000000e+00  0.00000000e+00  0.00000000e+00
  0.00000000e+00  0.00000000e+00  0.00000000e+00  0.00000000e+00
  0.00000000e+00  0.00000000e+00  0.00000000e+00  0.00000000e+00
  0.00000000e+00  0.00000000e+00  0.00000000e+00  0.00000000e+00
  0.00000000e+00  0.00000000e+00 -7.02592475e-07  7.69066514e-08
  0.00000000e+00  0.00000000e+00  0.00000000e+00  3.44638759e-06]","[[ 0.00016814  0.01017138]
 [-0.00029431  0.0031176 ]]",[],0.0,0.0
1787154026.83473,1.7800699489745062,0.5235353580115985,1.9959090718917132,"[ 1.51453716e-05 -4.58241597e-07  0.00000000e+00  0.00000000e+00
  0.00000000e+00 -7.02592475e-07 -4.58241597e-07  1.27394957e-05
  0.00000000e+00  0.00000000e+00  0.00000000e+00  7.69066514e-08
  0.00000000e+00  0.00000000e+00  0.00000000e+00  0.00000000e+00
  0.00000000e+00  0.00000000e+00  0.00000000e+00  0.00000000e+00
  0.00000000e+00  0.00000000e+00  0.00000000e+00  0.00000000e+00
  0.00000000e+00  0.00000000e+00  0.00000000e+00  0.00000000e+00
  0.00000000e+00  0.00000000e+00 -7.02592475e-07  7.69066514e-08
  0.00000000e+00  0.00000000e+00  0.00000000e+00  3.44638759e-06]","[[ 0.00016814  0.01017138]
 [-0.00029431  0.0031176 ]]",[],0.0,0.0
1787154026.9044838,1.7800699489745062,0.5235353580115985,1.9959090718917132,"[ 1.51453716e-05 -4.58241597e-07  0.00000000e+00  0.00000000e+00
  0.00000000e+00 -7.02592475e-07 -4.58241597e-07  1.27394957e-05
  0.00000000e+00  0.00000000e+00  0.00000000e+00  7.69066514e-08
  0.00000000e+00  0.00000000e+00  0.00000000e+00  0.00000000e+00
  0.00000000e+00  0.00000000e+00  0.00000000e+00  0.00000000e+00
  0.00000000e+00  0.00000000e+00  0.00000000e+00  0.00000000e+00
  0.00000000e+00  0.00000000e+00  0.00000000e+00  0.00000000e+00
  0.00000000e+00  0.00000000e+00 -7.02592475e-07  7.69066514e-08
  0.00000000e+00  0.00000000e+00  0.00000000e+00  3.44638759e-06]","[[ 0.00016814  0.01017138]
 [-0.00029431  0.0031176 ]]",[],0.0,0.0
1787154026.9375596,1.7800699489745062,0.5235353580115985,1.9959090718917132,"[ 1.51453716e-05 -4.58241597e-07  0.00000000e+00  0.00000000e+00
  0.00000000e+00 -7.02592475e-07 -4.58241597e-07  1.27394957e-05
  0.00000000e+00  0.00000000e+00  0.00000000e+00  7.69066514e-08
  0.00000000e+00  0.00000000e+00  0.00000000e+00  0.00000000e+00
  0.00000000e+00  0.00000000e+00  0.00000000e+00  0.00000000e+00
  0.00000000e+00  0.00000000e+00  0.00000000e+00  0.00000000e+00
  0.00000000e+00  0.00000000e+00  0.00000000e+00  0.00000000e+00
  0.00000000e+00  0.00000000e+00 -7.02592475e-07  7.69066514e-08
  0.00000000e+00  0.00000000e+00  0.00000000e+00  3.44638759e-06]","[[ 0.00016814  0.01017138]
 [-0.00029431  0.0031176 ]]",[],0.0,0.0
1787154026.9864953,1.7800699489745062,0.5235353580115985,1.9959090718917132,"[ 1.51453716e-05 -4.58241597e-07  0.00000000e+00  0.00000000e+00
  0.00000000e+00 -7.02592475e-07 -4.58241597e-07  1.27394957e-05
  0.00000000e+00  0.00000000e+00  0.00000000e+00  7.69066514e-08
  0.00000000e+00  0.00000000e+00  0.00000000e+00  0.00000000e+00
  0.00000000e+00  0.00000000e+00  0.00000000e+00  0.00000000e+00
  0.00000000e+00  0.00000000e+00  0.00000000e+00  0.00000000e+00
  0.00000000e+00  0.00000000e+00  0.00000000e+00  0.00000000e+00
  0.00000000e+00  0.00000000e+00 -7.02592475e-07  7.69066514e-08
  0.00000000e+00  0.00000000e+00  0.00000000e+00  3.44638759e-06]","[[ 0.00016814  0.01017138]
 [-0.00029431  0.0031176 ]]",[],0.0,0.0
1787154027.0345142,1.7800699489745062,0.5235353580115985,1.9959090718917132,"[ 1.51453716e-05 -4.58241597e-07  0.00000000e+00  0.00000000e+00
  0.00000000e+00 -7.02592475e-07 -4.58241597e-07  1.27394957e-05
  0.00000000e+00  0.00000000e+00  0.00000000e+00  7.69066514e-08
  0.00000000e+00  0.00000000e+00  0.00000000e+00  0.00000000e+00
  0.00000000e+00  0.00000000e+00  0.00000000e+00  0.00000000e+00
  0.00000000e+00  0.00000000e+00  0.00000000e+00  0.00000000e+00
  0.00000000e+00  0.00000000e+00  0.00000000e+00  0.00000000e+00
  0.00000000e+00  0.00000000e+00 -7.02592475e-07  7.69066514e-08
  0.00000000e+00  0.00000000e+00  0.00000000e+00  3.44638759e-06]","[[ 0.00016814  0.01017138]
 [-0.00029431  0.0031176 ]]",[],0.0,0.0
1787154027.0834568,1.7800699489745062,0.5235353580115985,1.9959090718917132,"[ 1.51453716e-05 -4.58241597e-07  0.00000000e+00  0.00000000e+00
  0.00000000e+00 -7.02592475e-07 -4.58241597e-07  1.27394957e-05
  0.00000000e+00  0.00000000e+00  0.00000000e+00  7.69066514e-08
  0.00000000e+00  0.00000000e+00  0.00000000e+00  0.00000000e+00
  0.00000000e+00  0.00000000e+00  0.00000000e+00  0.00000000e+00
  0.00000000e+00  0.00000000e+00  0.00000000e+00  0.00000000e+00
  0.00000000e+00  0.00000000e+00  0.00000000e+00  0.00000000e+00
  0.00000000e+00  0.00000000e+00 -7.02592475e-07  7.69066514e-08
  0.00000000e+00  0.00000000e+00  0.00000000e+00  3.44638759e-06]","[[ 0.00016814  0.01017138]
 [-0.00029431  0.0031176 ]]",[],0.0,0.0
1787154027.146569,1.7800699489745062,0.5235353580115985,1.9959090718917132,"[ 1.51453716e-05 -4.58241597e-07  0.00000000e+00  0.00000000e+00
  0.00000000e+00 -7.02592475e-07 -4.58241597e-07  1.27394957e-05
  0.00000000e+00  0.00000000e+00  0.00000000e+00  7.69066514e-08
  0.00000000e+00  0.00000000e+00  0.00000000e+00  0.00000000e+00
  0.00000000e+00  0.00000000e+00  0.00000000e+00  0.00000000e+00
  0.00000000e+00  0.00000000e+00  0.00000000e+00  0.00000000e+00
  0.00000000e+00  0.00000000e+00  0.00000000e+00  0.00000000e+00
  0.00000000e+00  0.00000000e+00 -7.02592475e-07  7.69066514e-08
  0.00000000e+00  0.00000000e+00  0.00000000e+00  3.44638759e-06]","[[ 0.00016814  0.01017138]
 [-0.00029431  0.0031176 ]]",[],0.0,0.0
1787154027.183485,1.7746800987609637,0.5237135625457814,2.029617676530351,"[ 1.21105407e-05 -4.43600206e-07  0.00000000e+00  0.00000000e+00
  0.00000000e+00 -6.33875054e-07 -4.43600206e-07  1.03262157e-05
  0.00000000e+00  0.00000000e+00  0.00000000e+00  3.57419853e-08
  0.00000000e+00  0.00000000e+00  0.00000000e+00  0.00000000e+00
  0.00000000e+00  0.00000000e+00  0.00000000e+00  0.00000000e+00
  0.00000000e+00  0.00000000e+00  0.00000000e+00  0.00000000e+00
  0.00000000e+00  0.00000000e+00  0.00000000e+00  0.00000000e+00
  0.00000000e+00  0.00000000e+00 -6.33875054e-07  3.57419853e-08
  0.00000000e+00  0.00000000e+00  0.00000000e+00  3.38569346e-06]","[[ 0.00013544  0.0082288 ]
 [-0.00023958  0.00250526]]",[],0.0,0.0
1787154027.2816265,1.7746800987609637,0.5237135625457814,2.029617676530351,"[ 1.21105407e-05 -4.43600206e-07  0.00000000e+00  0.00000000e+00
  0.00000000e+00 -6.33875054e-07 -4.43600206e-07  1.03262157e-05
  0.00000000e+00  0.00000000e+00  0.00000000e+00  3.57419853e-08
  0.00000000e+00  0.00000000e+00  0.00000000e+00  0.00000000e+00
  0.00000000e+00  0.00000000e+00  0.00000000e+00  0.00000000e+00
  0.00000000e+00  0.00000000e+00  0.00000000e+00  0.00000000e+00
  0.00000000e+00  0.00000000e+00  0.00000000e+00  0.00000000e+00
  0.00000000e+00  0.00000000e+00 -6.33875054e-07  3.57419853e-08
  0.00000000e+00  0.00000000e+00  0.00000000e+00  3.38569346e-06]","[[ 0.00013544  0.0082288 ]
 [-0.00023958  0.00250526]]",[],0.0,0.0
1787154027.2834964,1.7746800987609637,0.5237135625457814,2.029617676530351,"[ 1.21105407e-05 -4.43600206e-07  0.00000000e+00  0.00000000e+00
  0.00000000e+00 -6.33875054e-07 -4.43600206e-07  1.03262157e-05
  0.00000000e+00  0.00000000e+00  0.00000000e+00  3.57419853e-08
  0.00000000e+00  0.00000000e+00  0.00000000e+00  0.00000000e+00
  0.00000000e+00  0.00000000e+00  0.00000000e+00  0.00000000e+00
  0.00000000e+00  0.00000000e+00  0.00000000e+00  0.00000000e+00
  0.00000000e+00  0.00000000e+00  0.00000000e+00  0.00000000e+00
  0.00000000e+00  0.00000000e+00 -6.33875054e-07  3.57419853e-08
  0.00000000e+00  0.00000000e+00  0.00000000e+00  3.38569346e-06]","[[ 0.00013544  0.0082288 ]
 [-0.00023958  0.00250526]]",[],0.0,0.0
1787154027.3628662,1.7746800987609637,0.5237135625457814,2.029617676530351,"[ 1.21105407e-05 -4.43600206e-07  0.00000000e+00  0.00000000e+00
  0.00000000e+00 -6.33875054e-07 -4.43600206e-07  1.03262157e-05
  0.00000000e+00  0.00000000e+00  0.00000000e+00  3.57419853e-08
  0.00000000e+00  0.00000000e+00  0.00000000e+00  0.00000000e+00
  0.00000000e+00  0.00000000e+00  0.00000000e+00  0.00000000e+00
  0.00000000e+00  0.00000000e+00  0.00000000e+00  0.00000000e+00
  0.00000000e+00  0.00000000e+00  0.00000000e+00  0.00000000e+00
  0.00000000e+00  0.00000000e+00 -6.33875054e-07  3.57419853e-08
  0.00000000e+00  0.00000000e+00  0.00000000e+00  3.38569346e-06]","[[ 0.00013544  0.0082288 ]
 [-0.00023958  0.00250526]]",[],0.0,0.0
1787154027.3874977,1.7746800987609637,0.5237135625457814,2.029617676530351,"[ 1.21105407e-05 -4.43600206e-07  0.00000000e+00  0.00000000e+00
  0.00000000e+00 -6.33875054e-07 -4.43600206e-07  1.03262157e-05
  0.00000000e+00  0.00000000e+00  0.00000000e+00  3.57419853e-08
  0.00000000e+00  0.00000000e+00  0.00000000e+00  0.00000000e+00
  0.00000000e+00  0.00000000e+00  0.00000000e+00  0.00000000e+00
  0.00000000e+00  0.00000000e+00  0.00000000e+00  0.00000000e+00
  0.00000000e+00  0.00000000e+00  0.00000000e+00  0.00000000e+00
  0.00000000e+00  0.00000000e+00 -6.33875054e-07  3.57419853e-08
  0.00000000e+00  0.00000000e+00  0.00000000e+00  3.38569346e-06]","[[ 0.00013544  0.0082288 ]
 [-0.00023958  0.00250526]]",[],0.0,0.0
1787154027.434626,1.7746800987609637,0.5237135625457814,2.029617676530351,"[ 1.21105407e-05 -4.43600206e-07  0.00000000e+00  0.00000000e+00
  0.00000000e+00 -6.33875054e-07 -4.43600206e-07  1.03262157e-05
  0.00000000e+00  0.00000000e+00  0.00000000e+00  3.57419853e-08
  0.00000000e+00  0.00000000e+00  0.00000000e+00  0.00000000e+00
  0.00000000e+00  0.00000000e+00  0.00000000e+00  0.00000000e+00
  0.00000000e+00  0.00000000e+00  0.00000000e+00  0.00000000e+00
  0.00000000e+00  0.00000000e+00  0.00000000e+00  0.00000000e+00
  0.00000000e+00  0.00000000e+00 -6.33875054e-07  3.57419853e-08
  0.00000000e+00  0.00000000e+00  0.00000000e+00  3.38569346e-06]","[[ 0.00013544  0.0082288 ]
 [-0.00023958  0.00250526]]",[],0.0,0.0
1787154027.6184754,1.7746800987609637,0.5237135625457814,2.029617676530351,"[ 1.21105407e-05 -4.43600206e-07  0.00000000e+00  0.00000000e+00
  0.00000000e+00 -6.33875054e-07 -4.43600206e-07  1.03262157e-05
  0.00000000e+00  0.00000000e+00  0.00000000e+00  3.57419853e-08
  0.00000000e+00  0.00000000e+00  0.00000000e+00  0.00000000e+00
  0.00000000e+00  0.00000000e+00  0.00000000e+00  0.00000000e+00
  0.00000000e+00  0.00000000e+00  0.00000000e+00  0.00000000e+00
  0.00000000e+00  0.00000000e+00  0.00000000e+00  0.00000000e+00
  0.00000000e+00  0.00000000e+00 -6.33875054e-07  3.57419853e-08
  0.00000000e+00  0.00000000e+00  0.00000000e+00  3.38569346e-06]","[[ 0.00013544  0.0082288 ]
 [-0.00023958  0.00250526]]",[],0.0,0.0
1787154027.6386616,1.7746800987609637,0.5237135625457814,2.029617676530351,"[ 1.21105407e-05 -4.43600206e-07  0.00000000e+00  0.00000000e+00
  0.00000000e+00 -6.33875054e-07 -4.43600206e-07  1.03262157e-05
  0.00000000e+00  0.00000000e+00  0.00000000e+00  3.57419853e-08
  0.00000000e+00  0.00000000e+00  0.00000000e+00  0.00000000e+00
  0.00000000e+00  0.00000000e+00  0.00000000e+00  0.00000000e+00
  0.00000000e+00  0.00000000e+00  0.00000000e+00  0.00000000e+00
  0.00000000e+00  0.00000000e+00  0.00000000e+00  0.00000000e+00
  0.00000000e+00  0.00000000e+00 -6.33875054e-07  3.57419853e-08
  0.00000000e+00  0.00000000e+00  0.00000000e+00  3.38569346e-06]","[[ 0.00013544  0.0082288 ]
 [-0.00023958  0.00250526]]",[],0.0,0.0
1787154027.8585863,1.7746800987609637,0.5237135625457814,2.029617676530351,"[ 1.21105407e-05 -4.43600206e-07  0.00000000e+00  0.00000000e+00
  0.00000000e+00 -6.33875054e-07 -4.43600206e-07  1.03262157e-05
  0.00000000e+00  0.00000000e+00  0.00000000e+00  3.57419853e-08
  0.00000000e+00  0.00000000e+00  0.00000000e+00  0.00000000e+00
  0.00000000e+00  0.00000000e+00  0.00000000e+00  0.00000000e+00
  0.00000000e+00  0.00000000e+00  0.00000000e+00  0.00000000e+00
  0.00000000e+00  0.00000000e+00  0.00000000e+00  0.00000000e+00
  0.00000000e+00  0.00000000e+00 -6.33875054e-07  3.57419853e-08
  0.00000000e+00  0.00000000e+00  0.00000000e+00  3.38569346e-06]","[[ 0.00013544  0.0082288 ]
 [-0.00023958  0.00250526]]",[],0.0,0.0
1787154027.8856633,1.7746800987609637,0.5237135625457814,2.029617676530351,"[ 1.21105407e-05 -4.43600206e-07  0.00000000e+00  0.00000000e+00
  0.00000000e+00 -6.33875054e-07 -4.43600206e-07  1.03262157e-05
  0.00000000e+00  0.00000000e+00  0.00000000e+00  3.57419853e-08
  0.00000000e+00  0.00000000e+00  0.00000000e+00  0.00000000e+00
  0.00000000e+00  0.00000000e+00  0.00000000e+00  0.00000000e+00
  0.00000000e+00  0.00000000e+00  0.00000000e+00  0.00000000e+00
  0.00000000e+00  0.00000000e+00  0.00000000e+00  0.00000000e+00
  0.00000000e+00  0.00000000e+00 -6.33875054e-07  3.57419853e-08
  0.00000000e+00  0.00000000e+00  0.00000000e+00  3.38569346e-06]","[[ 0.00013544  0.0082288 ]
 [-0.00023958  0.00250526]]",[],0.0,0.0
1787154027.938782,1.7746800987609637,0.5237135625457814,2.029617676530351,"[ 1.21105407e-05 -4.43600206e-07  0.00000000e+00  0.00000000e+00
  0.00000000e+00 -6.33875054e-07 -4.43600206e-07  1.03262157e-05
  0.00000000e+00  0.00000000e+00  0.00000000e+00  3.57419853e-08
  0.00000000e+00  0.00000000e+00  0.00000000e+00  0.00000000e+00
  0.00000000e+00  0.00000000e+00  0.00000000e+00  0.00000000e+00
  0.00000000e+00  0.00000000e+00  0.00000000e+00  0.00000000e+00
  0.00000000e+00  0.00000000e+00  0.00000000e+00  0.00000000e+00
  0.00000000e+00  0.00000000e+00 -6.33875054e-07  3.57419853e-08
  0.00000000e+00  0.00000000e+00  0.00000000e+00  3.38569346e-06]","[[ 0.00013544  0.0082288 ]
 [-0.00023958  0.00250526]]",[],0.0,0.0
1787154028.0867186,1.7746800987609637,0.5237135625457814,2.029617676530351,"[ 1.21105407e-05 -4.43600206e-07  0.00000000e+00  0.00000000e+00
  0.00000000e+00 -6.33875054e-07 -4.43600206e-07  1.03262157e-05
  0.00000000e+00  0.00000000e+00  0.00000000e+00  3.57419853e-08
  0.00000000e+00  0.00000000e+00  0.00000000e+00  0.00000000e+00
  0.00000000e+00  0.00000000e+00  0.00000000e+00  0.00000000e+00
  0.00000000e+00  0.00000000e+00  0.00000000e+00  0.00000000e+00
  0.00000000e+00  0.00000000e+00  0.00000000e+00  0.00000000e+00
  0.00000000e+00  0.00000000e+00 -6.33875054e-07  3.57419853e-08
  0.00000000e+00  0.00000000e+00  0.00000000e+00  3.38569346e-06]","[[ 0.00013544  0.0082288 ]
 [-0.00023958  0.00250526]]",[],0.0,0.0
1787154028.1408622,1.7746523523408155,0.5232992776896422,2.0605921672325422,"[ 1.00881074e-05 -3.99804270e-07  0.00000000e+00  0.00000000e+00
  0.00000000e+00 -5.32146126e-07 -3.99804270e-07  8.72591728e-06
  0.00000000e+00  0.00000000e+00  0.00000000e+00  8.82894558e-08
  0.00000000e+00  0.00000000e+00  0.00000000e+00  0.00000000e+00
  0.00000000e+00  0.00000000e+00  0.00000000e+00  0.00000000e+00
  0.00000000e+00  0.00000000e+00  0.00000000e+00  0.00000000e+00
  0.00000000e+00  0.00000000e+00  0.00000000e+00  0.00000000e+00
  0.00000000e+00  0.00000000e+00 -5.32146126e-07  8.82894558e-08
  0.00000000e+00  0.00000000e+00  0.00000000e+00  3.23671219e-06]","[[ 0.00011308  0.00686467]
 [-0.00020287  0.00199753]]",[],0.0,0.0
1787154028.1953177,1.7746523523408155,0.5232992776896422,2.0605921672325422,"[ 1.00881074e-05 -3.99804270e-07  0.00000000e+00  0.00000000e+00
  0.00000000e+00 -5.32146126e-07 -3.99804270e-07  8.72591728e-06
  0.00000000e+00  0.00000000e+00  0.00000000e+00  8.82894558e-08
  0.00000000e+00  0.00000000e+00  0.00000000e+00  0.00000000e+00
  0.00000000e+00  0.00000000e+00  0.00000000e+00  0.00000000e+00
  0.00000000e+00  0.00000000e+00  0.00000000e+00  0.00000000e+00
  0.00000000e+00  0.00000000e+00  0.00000000e+00  0.00000000e+00
  0.00000000e+00  0.00000000e+00 -5.32146126e-07  8.82894558e-08
  0.00000000e+00  0.00000000e+00  0.00000000e+00  3.23671219e-06]","[[ 0.00011308  0.00686467]
 [-0.00020287  0.00199753]]",[],0.0,0.0
1787154028.6507638,1.7746523523408155,0.5232992776896422,2.0605921672325422,"[ 1.00881074e-05 -3.99804270e-07  0.00000000e+00  0.00000000e+00
  0.00000000e+00 -5.32146126e-07 -3.99804270e-07  8.72591728e-06
  0.00000000e+00  0.00000000e+00  0.00000000e+00  8.82894558e-08
  0.00000000e+00  0.00000000e+00  0.00000000e+00  0.00000000e+00
  0.00000000e+00  0.00000000e+00  0.00000000e+00  0.00000000e+00
  0.00000000e+00  0.00000000e+00  0.00000000e+00  0.00000000e+00
  0.00000000e+00  0.00000000e+00  0.00000000e+00  0.00000000e+00
  0.00000000e+00  0.00000000e+00 -5.32146126e-07  8.82894558e-08
  0.00000000e+00  0.00000000e+00  0.00000000e+00  3.23671219e-06]","[[ 0.00011308  0.00686467]
 [-0.00020287  0.00199753]]",[],0.0,0.0
1787154028.6838737,1.7746523523408155,0.5232992776896422,2.0605921672325422,"[ 1.00881074e-05 -3.99804270e-07  0.00000000e+00  0.00000000e+00
  0.00000000e+00 -5.32146126e-07 -3.99804270e-07  8.72591728e-06
  0.00000000e+00  0.00000000e+00  0.00000000e+00  8.82894558e-08
  0.00000000e+00  0.00000000e+00  0.00000000e+00  0.00000000e+00
  0.00000000e+00  0.00000000e+00  0.00000000e+00  0.00000000e+00
  0.00000000e+00  0.00000000e+00  0.00000000e+00  0.00000000e+00
  0.00000000e+00  0.00000000e+00  0.00000000e+00  0.00000000e+00
  0.00000000e+00  0.00000000e+00 -5.32146126e-07  8.82894558e-08
  0.00000000e+00  0.00000000e+00  0.00000000e+00  3.23671219e-06]","[[ 0.00011308  0.00686467]
 [-0.00020287  0.00199753]]",[],0.0,0.0
1787154028.7338376,1.7746523523408155,0.5232992776896422,2.0605921672325422,"[ 1.00881074e-05 -3.99804270e-07  0.00000000e+00  0.00000000e+00
  0.00000000e+00 -5.32146126e-07 -3.99804270e-07  8.72591728e-06
  0.00000000e+00  0.00000000e+00  0.00000000e+00  8.82894558e-08
  0.00000000e+00  0.00000000e+00  0.00000000e+00  0.00000000e+00
  0.00000000e+00  0.00000000e+00  0.00000000e+00  0.00000000e+00
  0.00000000e+00  0.00000000e+00  0.00000000e+00  0.00000000e+00
  0.00000000e+00  0.00000000e+00  0.00000000e+00  0.00000000e+00
  0.00000000e+00  0.00000000e+00 -5.32146126e-07  8.82894558e-08
  0.00000000e+00  0.00000000e+00  0.00000000e+00  3.23671219e-06]","[[ 0.00011308  0.00686467]
 [-0.00020287  0.00199753]]",[],0.0,0.0
1787154028.7918065,1.7746523523408155,0.5232992776896422,2.0605921672325422,"[ 1.00881074e-05 -3.99804270e-07  0.00000000e+00  0.00000000e+00
  0.00000000e+00 -5.32146126e-07 -3.99804270e-07  8.72591728e-06
  0.00000000e+00  0.00000000e+00  0.00000000e+00  8.82894558e-08
  0.00000000e+00  0.00000000e+00  0.00000000e+00  0.00000000e+00
  0.00000000e+00  0.00000000e+00  0.00000000e+00  0.00000000e+00
  0.00000000e+00  0.00000000e+00  0.00000000e+00  0.00000000e+00
  0.00000000e+00  0.00000000e+00  0.00000000e+00  0.00000000e+00
  0.00000000e+00  0.00000000e+00 -5.32146126e-07  8.82894558e-08
  0.00000000e+00  0.00000000e+00  0.00000000e+00  3.23671219e-06]","[[ 0.00011308  0.00686467]
 [-0.00020287  0.00199753]]",[],0.0,0.0
1787154028.846251,1.7746523523408155,0.5232992776896422,2.0605921672325422,"[ 1.00881074e-05 -3.99804270e-07  0.00000000e+00  0.00000000e+00
  0.00000000e+00 -5.32146126e-07 -3.99804270e-07  8.72591728e-06
  0.00000000e+00  0.00000000e+00  0.00000000e+00  8.82894558e-08
  0.00000000e+00  0.00000000e+00  0.00000000e+00  0.00000000e+00
  0.00000000e+00  0.00000000e+00  0.00000000e+00  0.00000000e+00
  0.00000000e+00  0.00000000e+00  0.00000000e+00  0.00000000e+00
  0.00000000e+00  0.00000000e+00  0.00000000e+00  0.00000000e+00
  0.00000000e+00  0.00000000e+00 -5.32146126e-07  8.82894558e-08
  0.00000000e+00  0.00000000e+00  0.00000000e+00  3.23671219e-06]","[[ 0.00011308  0.00686467]
 [-0.00020287  0.00199753]]",[],0.0,0.0
1787154028.894722,1.7746523523408155,0.5232992776896422,2.0605921672325422,"[ 1.00881074e-05 -3.99804270e-07  0.00000000e+00  0.00000000e+00
  0.00000000e+00 -5.32146126e-07 -3.99804270e-07  8.72591728e-06
  0.00000000e+00  0.00000000e+00  0.00000000e+00  8.82894558e-08
  0.00000000e+00  0.00000000e+00  0.00000000e+00  0.00000000e+00
  0.00000000e+00  0.00000000e+00  0.00000000e+00  0.00000000e+00
  0.00000000e+00  0.00000000e+00  0.00000000e+00  0.00000000e+00
  0.00000000e+00  0.00000000e+00  0.00000000e+00  0.00000000e+00
  0.00000000e+00  0.00000000e+00 -5.32146126e-07  8.82894558e-08
  0.00000000e+00  0.00000000e+00  0.00000000e+00  3.23671219e-06]","[[ 0.00011308  0.00686467]
 [-0.00020287  0.00199753]]",[],0.0,0.0
1787154028.9390912,1.7746523523408155,0.5232992776896422,2.0605921672325422,"[ 1.00881074e-05 -3.99804270e-07  0.00000000e+00  0.00000000e+00
  0.00000000e+00 -5.32146126e-07 -3.99804270e-07  8.72591728e-06
  0.00000000e+00  0.00000000e+00  0.00000000e+00  8.82894558e-08
  0.00000000e+00  0.00000000e+00  0.00000000e+00  0.00000000e+00
  0.00000000e+00  0.00000000e+00  0.00000000e+00  0.00000000e+00
  0.00000000e+00  0.00000000e+00  0.00000000e+00  0.00000000e+00
  0.00000000e+00  0.00000000e+00  0.00000000e+00  0.00000000e+00
  0.00000000e+00  0.00000000e+00 -5.32146126e-07  8.82894558e-08
  0.00000000e+00  0.00000000e+00  0.00000000e+00  3.23671219e-06]","[[ 0.00011308  0.00686467]
 [-0.00020287  0.00199753]]",[],0.0,0.0
1787154028.9917521,1.7746523523408155,0.5232992776896422,2.0605921672325422,"[ 1.00881074e-05 -3.99804270e-07  0.00000000e+00  0.00000000e+00
  0.00000000e+00 -5.32146126e-07 -3.99804270e-07  8.72591728e-06
  0.00000000e+00  0.00000000e+00  0.00000000e+00  8.82894558e-08
  0.00000000e+00  0.00000000e+00  0.00000000e+00  0.00000000e+00
  0.00000000e+00  0.00000000e+00  0.00000000e+00  0.00000000e+00
  0.00000000e+00  0.00000000e+00  0.00000000e+00  0.00000000e+00
  0.00000000e+00  0.00000000e+00  0.00000000e+00  0.00000000e+00
  0.00000000e+00  0.00000000e+00 -5.32146126e-07  8.82894558e-08
  0.00000000e+00  0.00000000e+00  0.00000000e+00  3.23671219e-06]","[[ 0.00011308  0.00686467]
 [-0.00020287  0.00199753]]",[],0.0,0.0
1787154029.03735,1.7741066157612486,0.5215031831691223,2.0928615294909925,"[ 8.70789056e-06 -3.62472182e-07  0.00000000e+00  0.00000000e+00
  0.00000000e+00 -3.63315377e-07 -3.62472182e-07  7.63701455e-06
  0.00000000e+00  0.00000000e+00  0.00000000e+00 -4.98788490e-10
  0.00000000e+00  0.00000000e+00  0.00000000e+00  0.00000000e+00
  0.00000000e+00  0.00000000e+00  0.00000000e+00  0.00000000e+00
  0.00000000e+00  0.00000000e+00  0.00000000e+00  0.00000000e+00
  0.00000000e+00  0.00000000e+00  0.00000000e+00  0.00000000e+00
  0.00000000e+00  0.00000000e+00 -3.63315377e-07 -4.98788490e-10
  0.00000000e+00  0.00000000e+00  0.00000000e+00  3.37002617e-06]","[[ 9.79868056e-05  5.76134794e-03]
 [-1.77687617e-04  1.86865919e-03]]",[],0.0,0.0
1787154029.0843225,1.7741066157612486,0.5215031831691223,2.0928615294909925,"[ 8.70789056e-06 -3.62472182e-07  0.00000000e+00  0.00000000e+00
  0.00000000e+00 -3.63315377e-07 -3.62472182e-07  7.63701455e-06
  0.00000000e+00  0.00000000e+00  0.00000000e+00 -4.98788490e-10
  0.00000000e+00  0.00000000e+00  0.00000000e+00  0.00000000e+00
  0.00000000e+00  0.00000000e+00  0.00000000e+00  0.00000000e+00
  0.00000000e+00  0.00000000e+00  0.00000000e+00  0.00000000e+00
  0.00000000e+00  0.00000000e+00  0.00000000e+00  0.00000000e+00
  0.00000000e+00  0.00000000e+00 -3.63315377e-07 -4.98788490e-10
  0.00000000e+00  0.00000000e+00  0.00000000e+00  3.37002617e-06]","[[ 9.79868056e-05  5.76134794e-03]
 [-1.77687617e-04  1.86865919e-03]]",[],0.0,0.0
1787154029.140289,1.7741066157612486,0.5215031831691223,2.0928615294909925,"[ 8.70789056e-06 -3.62472182e-07  0.00000000e+00  0.00000000e+00
  0.00000000e+00 -3.63315377e-07 -3.62472182e-07  7.63701455e-06
  0.00000000e+00  0.00000000e+00  0.00000000e+00 -4.98788490e-10
  0.00000000e+00  0.00000000e+00  0.00000000e+00  0.00000000e+00
  0.00000000e+00  0.00000000e+00  0.00000000e+00  0.00000000e+00
  0.00000000e+00  0.00000000e+00  0.00000000e+00  0.00000000e+00
  0.00000000e+00  0.00000000e+00  0.00000000e+00  0.00000000e+00
  0.00000000e+00  0.00000000e+00 -3.63315377e-07 -4.98788490e-10
  0.00000000e+00  0.00000000e+00  0.00000000e+00  3.37002617e-06]","[[ 9.79868056e-05  5.76134794e-03]
 [-1.77687617e-04  1.86865919e-03]]",[],0.0,0.0
1787154029.1832988,1.7741066157612486,0.5215031831691223,2.0928615294909925,"[ 8.70789056e-06 -3.62472182e-07  0.00000000e+00  0.00000000e+00
  0.00000000e+00 -3.63315377e-07 -3.62472182e-07  7.63701455e-06
  0.00000000e+00  0.00000000e+00  0.00000000e+00 -4.98788490e-10
  0.00000000e+00  0.00000000e+00  0.00000000e+00  0.00000000e+00
  0.00000000e+00  0.00000000e+00  0.00000000e+00  0.00000000e+00
  0.00000000e+00  0.00000000e+00  0.00000000e+00  0.00000000e+00
  0.00000000e+00  0.00000000e+00  0.00000000e+00  0.00000000e+00
  0.00000000e+00  0.00000000e+00 -3.63315377e-07 -4.98788490e-10
  0.00000000e+00  0.00000000e+00  0.00000000e+00  3.37002617e-06]","[[ 9.79868056e-05  5.76134794e-03]
 [-1.77687617e-04  1.86865919e-03]]",[],0.0,0.0
1787154029.2359324,1.7741066157612486,0.5215031831691223,2.0928615294909925,"[ 8.70789056e-06 -3.62472182e-07  0.00000000e+00  0.00000000e+00
  0.00000000e+00 -3.63315377e-07 -3.62472182e-07  7.63701455e-06
  0.00000000e+00  0.00000000e+00  0.00000000e+00 -4.98788490e-10
  0.00000000e+00  0.00000000e+00  0.00000000e+00  0.00000000e+00
  0.00000000e+00  0.00000000e+00  0.00000000e+00  0.00000000e+00
  0.00000000e+00  0.00000000e+00  0.00000000e+00  0.00000000e+00
  0.00000000e+00  0.00000000e+00  0.00000000e+00  0.00000000e+00
  0.00000000e+00  0.00000000e+00 -3.63315377e-07 -4.98788490e-10
  0.00000000e+00  0.00000000e+00  0.00000000e+00  3.37002617e-06]","[[ 9.79868056e-05  5.76134794e-03]
 [-1.77687617e-04  1.86865919e-03]]",[],0.0,0.0
1787154029.291768,1.7741066157612486,0.5215031831691223,2.0928615294909925,"[ 8.70789056e-06 -3.62472182e-07  0.00000000e+00  0.00000000e+00
  0.00000000e+00 -3.63315377e-07 -3.62472182e-07  7.63701455e-06
  0.00000000e+00  0.00000000e+00  0.00000000e+00 -4.98788490e-10
  0.00000000e+00  0.00000000e+00  0.00000000e+00  0.00000000e+00
  0.00000000e+00  0.00000000e+00  0.00000000e+00  0.00000000e+00
  0.00000000e+00  0.00000000e+00  0.00000000e+00  0.00000000e+00
  0.00000000e+00  0.00000000e+00  0.00000000e+00  0.00000000e+00
  0.00000000e+00  0.00000000e+00 -3.63315377e-07 -4.98788490e-10
  0.00000000e+00  0.00000000e+00  0.00000000e+00  3.37002617e-06]","[[ 9.79868056e-05  5.76134794e-03]
 [-1.77687617e-04  1.86865919e-03]]",[],0.0,0.0
1787154029.3596535,1.7741066157612486,0.5215031831691223,2.0928615294909925,"[ 8.70789056e-06 -3.62472182e-07  0.00000000e+00  0.00000000e+00
  0.00000000e+00 -3.63315377e-07 -3.62472182e-07  7.63701455e-06
  0.00000000e+00  0.00000000e+00  0.00000000e+00 -4.98788490e-10
  0.00000000e+00  0.00000000e+00  0.00000000e+00  0.00000000e+00
  0.00000000e+00  0.00000000e+00  0.00000000e+00  0.00000000e+00
  0.00000000e+00  0.00000000e+00  0.00000000e+00  0.00000000e+00
  0.00000000e+00  0.00000000e+00  0.00000000e+00  0.00000000e+00
  0.00000000e+00  0.00000000e+00 -3.63315377e-07 -4.98788490e-10
  0.00000000e+00  0.00000000e+00  0.00000000e+00  3.37002617e-06]","[[ 9.79868056e-05  5.76134794e-03]
 [-1.77687617e-04  1.86865919e-03]]",[],0.0,0.0
1787154029.3837757,1.7741066157612486,0.5215031831691223,2.0928615294909925,"[ 8.70789056e-06 -3.62472182e-07  0.00000000e+00  0.00000000e+00
  0.00000000e+00 -3.63315377e-07 -3.62472182e-07  7.63701455e-06
  0.00000000e+00  0.00000000e+00  0.00000000e+00 -4.98788490e-10
  0.00000000e+00  0.00000000e+00  0.00000000e+00  0.00000000e+00
  0.00000000e+00  0.00000000e+00  0.00000000e+00  0.00000000e+00
  0.00000000e+00  0.00000000e+00  0.00000000e+00  0.00000000e+00
  0.00000000e+00  0.00000000e+00  0.00000000e+00  0.00000000e+00
  0.00000000e+00  0.00000000e+00 -3.63315377e-07 -4.98788490e-10
  0.00000000e+00  0.00000000e+00  0.00000000e+00  3.37002617e-06]","[[ 9.79868056e-05  5.76134794e-03]
 [-1.77687617e-04  1.86865919e-03]]",[],0.0,0.0
1787154029.437703,1.7741066157612486,0.5215031831691223,2.0928615294909925,"[ 8.70789056e-06 -3.62472182e-07  0.00000000e+00  0.00000000e+00
  0.00000000e+00 -3.63315377e-07 -3.62472182e-07  7.63701455e-06
  0.00000000e+00  0.00000000e+00  0.00000000e+00 -4.98788490e-10
  0.00000000e+00  0.00000000e+00  0.00000000e+00  0.00000000e+00
  0.00000000e+00  0.00000000e+00  0.00000000e+00  0.00000000e+00
  0.00000000e+00  0.00000000e+00  0.00000000e+00  0.00000000e+00
  0.00000000e+00  0.00000000e+00  0.00000000e+00  0.00000000e+00
  0.00000000e+00  0.00000000e+00 -3.63315377e-07 -4.98788490e-10
  0.00000000e+00  0.00000000e+00  0.00000000e+00  3.37002617e-06]","[[ 9.79868056e-05  5.76134794e-03]
 [-1.77687617e-04  1.86865919e-03]]",[],0.0,0.0
1787154029.4877017,1.7741066157612486,0.5215031831691223,2.0928615294909925,"[ 8.70789056e-06 -3.62472182e-07  0.00000000e+00  0.00000000e+00
  0.00000000e+00 -3.63315377e-07 -3.62472182e-07  7.63701455e-06
  0.00000000e+00  0.00000000e+00  0.00000000e+00 -4.98788490e-10
  0.00000000e+00  0.00000000e+00  0.00000000e+00  0.00000000e+00
  0.00000000e+00  0.00000000e+00  0.00000000e+00  0.00000000e+00
  0.00000000e+00  0.00000000e+00  0.00000000e+00  0.00000000e+00
  0.00000000e+00  0.00000000e+00  0.00000000e+00  0.00000000e+00
  0.00000000e+00  0.00000000e+00 -3.63315377e-07 -4.98788490e-10
  0.00000000e+00  0.00000000e+00  0.00000000e+00  3.37002617e-06]","[[ 9.79868056e-05  5.76134794e-03]
 [-1.77687617e-04  1.86865919e-03]]",[],0.0,0.0
1787154029.5373693,1.7741066157612486,0.5215031831691223,2.0928615294909925,"[ 8.70789056e-06 -3.62472182e-07  0.00000000e+00  0.00000000e+00
  0.00000000e+00 -3.63315377e-07 -3.62472182e-07  7.63701455e-06
  0.00000000e+00  0.00000000e+00  0.00000000e+00 -4.98788490e-10
  0.00000000e+00  0.00000000e+00  0.00000000e+00  0.00000000e+00
  0.00000000e+00  0.00000000e+00  0.00000000e+00  0.00000000e+00
  0.00000000e+00  0.00000000e+00  0.00000000e+00  0.00000000e+00
  0.00000000e+00  0.00000000e+00  0.00000000e+00  0.00000000e+00
  0.00000000e+00  0.00000000e+00 -3.63315377e-07 -4.98788490e-10
  0.00000000e+00  0.00000000e+00  0.00000000e+00  3.37002617e-06]","[[ 9.79868056e-05  5.76134794e-03]
 [-1.77687617e-04  1.86865919e-03]]",[],0.0,0.0
1787154029.5845625,1.7741066157612486,0.5215031831691223,2.0928615294909925,"[ 8.70789056e-06 -3.62472182e-07  0.00000000e+00  0.00000000e+00
  0.00000000e+00 -3.63315377e-07 -3.62472182e-07  7.63701455e-06
  0.00000000e+00  0.00000000e+00  0.00000000e+00 -4.98788490e-10
  0.00000000e+00  0.00000000e+00  0.00000000e+00  0.00000000e+00
  0.00000000e+00  0.00000000e+00  0.00000000e+00  0.00000000e+00
  0.00000000e+00  0.00000000e+00  0.00000000e+00  0.00000000e+00
  0.00000000e+00  0.00000000e+00  0.00000000e+00  0.00000000e+00
  0.00000000e+00  0.00000000e+00 -3.63315377e-07 -4.98788490e-10
  0.00000000e+00  0.00000000e+00  0.00000000e+00  3.37002617e-06]","[[ 9.79868056e-05  5.76134794e-03]
 [-1.77687617e-04  1.86865919e-03]]",[],0.0,0.0
1787154029.6334314,1.7741066157612486,0.5215031831691223,2.0928615294909925,"[ 8.70789056e-06 -3.62472182e-07  0.00000000e+00  0.00000000e+00
  0.00000000e+00 -3.63315377e-07 -3.62472182e-07  7.63701455e-06
  0.00000000e+00  0.00000000e+00  0.00000000e+00 -4.98788490e-10
  0.00000000e+00  0.00000000e+00  0.00000000e+00  0.00000000e+00
  0.00000000e+00  0.00000000e+00  0.00000000e+00  0.00000000e+00
  0.00000000e+00  0.00000000e+00  0.00000000e+00  0.00000000e+00
  0.00000000e+00  0.00000000e+00  0.00000000e+00  0.00000000e+00
  0.00000000e+00  0.00000000e+00 -3.63315377e-07 -4.98788490e-10
  0.00000000e+00  0.00000000e+00  0.00000000e+00  3.37002617e-06]","[[ 9.79868056e-05  5.76134794e-03]
 [-1.77687617e-04  1.86865919e-03]]",[],0.0,0.0
1787154029.683221,1.7741066157612486,0.5215031831691223,2.0928615294909925,"[ 8.70789056e-06 -3.62472182e-07  0.00000000e+00  0.00000000e+00
  0.00000000e+00 -3.63315377e-07 -3.62472182e-07  7.63701455e-06
  0.00000000e+00  0.00000000e+00  0.00000000e+00 -4.98788490e-10
  0.00000000e+00  0.00000000e+00  0.00000000e+00  0.00000000e+00
  0.00000000e+00  0.00000000e+00  0.00000000e+00  0.00000000e+00
  0.00000000e+00  0.00000000e+00  0.00000000e+00  0.00000000e+00
  0.00000000e+00  0.00000000e+00  0.00000000e+00  0.00000000e+00
  0.00000000e+00  0.00000000e+00 -3.63315377e-07 -4.98788490e-10
  0.00000000e+00  0.00000000e+00  0.00000000e+00  3.37002617e-06]","[[ 9.79868056e-05  5.76134794e-03]
 [-1.77687617e-04  1.86865919e-03]]",[],0.0,0.0
1787154029.7346966,1.7741066157612486,0.5215031831691223,2.0928615294909925,"[ 8.70789056e-06 -3.62472182e-07  0.00000000e+00  0.00000000e+00
  0.00000000e+00 -3.63315377e-07 -3.62472182e-07  7.63701455e-06
  0.00000000e+00  0.00000000e+00  0.00000000e+00 -4.98788490e-10
  0.00000000e+00  0.00000000e+00  0.00000000e+00  0.00000000e+00
  0.00000000e+00  0.00000000e+00  0.00000000e+00  0.00000000e+00
  0.00000000e+00  0.00000000e+00  0.00000000e+00  0.00000000e+00
  0.00000000e+00  0.00000000e+00  0.00000000e+00  0.00000000e+00
  0.00000000e+00  0.00000000e+00 -3.63315377e-07 -4.98788490e-10
  0.00000000e+00  0.00000000e+00  0.00000000e+00  3.37002617e-06]","[[ 9.79868056e-05  5.76134794e-03]
 [-1.77687617e-04  1.86865919e-03]]",[],0.0,0.0
1787154029.8121834,1.7741066157612486,0.5215031831691223,2.0928615294909925,"[ 8.70789056e-06 -3.62472182e-07  0.00000000e+00  0.00000000e+00
  0.00000000e+00 -3.63315377e-07 -3.62472182e-07  7.63701455e-06
  0.00000000e+00  0.00000000e+00  0.00000000e+00 -4.98788490e-10
  0.00000000e+00  0.00000000e+00  0.00000000e+00  0.00000000e+00
  0.00000000e+00  0.00000000e+00  0.00000000e+00  0.00000000e+00
  0.00000000e+00  0.00000000e+00  0.00000000e+00  0.00000000e+00
  0.00000000e+00  0.00000000e+00  0.00000000e+00  0.00000000e+00
  0.00000000e+00  0.00000000e+00 -3.63315377e-07 -4.98788490e-10
  0.00000000e+00  0.00000000e+00  0.00000000e+00  3.37002617e-06]","[[ 9.79868056e-05  5.76134794e-03]
 [-1.77687617e-04  1.86865919e-03]]",[],0.0,0.0
1787154029.8355806,1.7741066157612486,0.5215031831691223,2.0928615294909925,"[ 8.70789056e-06 -3.62472182e-07  0.00000000e+00  0.00000000e+00
  0.00000000e+00 -3.63315377e-07 -3.62472182e-07  7.63701455e-06
  0.00000000e+00  0.00000000e+00  0.00000000e+00 -4.98788490e-10
  0.00000000e+00  0.00000000e+00  0.00000000e+00  0.00000000e+00
  0.00000000e+00  0.00000000e+00  0.00000000e+00  0.00000000e+00
  0.00000000e+00  0.00000000e+00  0.00000000e+00  0.00000000e+00
  0.00000000e+00  0.00000000e+00  0.00000000e+00  0.00000000e+00
  0.00000000e+00  0.00000000e+00 -3.63315377e-07 -4.98788490e-10
  0.00000000e+00  0.00000000e+00  0.00000000e+00  3.37002617e-06]","[[ 9.79868056e-05  5.76134794e-03]
 [-1.77687617e-04  1.86865919e-03]]",[],0.0,0.0
1787154029.8834312,1.7741066157612486,0.5215031831691223,2.0928615294909925,"[ 8.70789056e-06 -3.62472182e-07  0.00000000e+00  0.00000000e+00
  0.00000000e+00 -3.63315377e-07 -3.62472182e-07  7.63701455e-06
  0.00000000e+00  0.00000000e+00  0.00000000e+00 -4.98788490e-10
  0.00000000e+00  0.00000000e+00  0.00000000e+00  0.00000000e+00
  0.00000000e+00  0.00000000e+00  0.00000000e+00  0.00000000e+00
  0.00000000e+00  0.00000000e+00  0.00000000e+00  0.00000000e+00
  0.00000000e+00  0.00000000e+00  0.00000000e+00  0.00000000e+00
  0.00000000e+00  0.00000000e+00 -3.63315377e-07 -4.98788490e-10
  0.00000000e+00  0.00000000e+00  0.00000000e+00  3.37002617e-06]","[[ 9.79868056e-05  5.76134794e-03]
 [-1.77687617e-04  1.86865919e-03]]",[],0.0,0.0
1787154029.939733,1.7741066157612486,0.5215031831691223,2.0928615294909925,"[ 8.70789056e-06 -3.62472182e-07  0.00000000e+00  0.00000000e+00
  0.00000000e+00 -3.63315377e-07 -3.62472182e-07  7.63701455e-06
  0.00000000e+00  0.00000000e+00  0.00000000e+00 -4.98788490e-10
  0.00000000e+00  0.00000000e+00  0.00000000e+00  0.00000000e+00
  0.00000000e+00  0.00000000e+00  0.00000000e+00  0.00000000e+00
  0.00000000e+00  0.00000000e+00  0.00000000e+00  0.00000000e+00
  0.00000000e+00  0.00000000e+00  0.00000000e+00  0.00000000e+00
  0.00000000e+00  0.00000000e+00 -3.63315377e-07 -4.98788490e-10
  0.00000000e+00  0.00000000e+00  0.00000000e+00  3.37002617e-06]","[[ 9.79868056e-05  5.76134794e-03]
 [-1.77687617e-04  1.86865919e-03]]",[],0.0,0.0
1787154029.986329,1.7741066157612486,0.5215031831691223,2.0928615294909925,"[ 8.70789056e-06 -3.62472182e-07  0.00000000e+00  0.00000000e+00
  0.00000000e+00 -3.63315377e-07 -3.62472182e-07  7.63701455e-06
  0.00000000e+00  0.00000000e+00  0.00000000e+00 -4.98788490e-10
  0.00000000e+00  0.00000000e+00  0.00000000e+00  0.00000000e+00
  0.00000000e+00  0.00000000e+00  0.00000000e+00  0.00000000e+00
  0.00000000e+00  0.00000000e+00  0.00000000e+00  0.00000000e+00
  0.00000000e+00  0.00000000e+00  0.00000000e+00  0.00000000e+00
  0.00000000e+00  0.00000000e+00 -3.63315377e-07 -4.98788490e-10
  0.00000000e+00  0.00000000e+00  0.00000000e+00  3.37002617e-06]","[[ 9.79868056e-05  5.76134794e-03]
 [-1.77687617e-04  1.86865919e-03]]",[],0.0,0.0
1787154030.0344005,1.7741066157612486,0.5215031831691223,2.0928615294909925,"[ 8.70789056e-06 -3.62472182e-07  0.00000000e+00  0.00000000e+00
  0.00000000e+00 -3.63315377e-07 -3.62472182e-07  7.63701455e-06
  0.00000000e+00  0.00000000e+00  0.00000000e+00 -4.98788490e-10
  0.00000000e+00  0.00000000e+00  0.00000000e+00  0.00000000e+00
  0.00000000e+00  0.00000000e+00  0.00000000e+00  0.00000000e+00
  0.00000000e+00  0.00000000e+00  0.00000000e+00  0.00000000e+00
  0.00000000e+00  0.00000000e+00  0.00000000e+00  0.00000000e+00
  0.00000000e+00  0.00000000e+00 -3.63315377e-07 -4.98788490e-10
  0.00000000e+00  0.00000000e+00  0.00000000e+00  3.37002617e-06]","[[ 9.79868056e-05  5.76134794e-03]
 [-1.77687617e-04  1.86865919e-03]]",[],0.0,0.0
1787154030.0934994,1.7741066157612486,0.5215031831691223,2.0928615294909925,"[ 8.70789056e-06 -3.62472182e-07  0.00000000e+00  0.00000000e+00
  0.00000000e+00 -3.63315377e-07 -3.62472182e-07  7.63701455e-06
  0.00000000e+00  0.00000000e+00  0.00000000e+00 -4.98788490e-10
  0.00000000e+00  0.00000000e+00  0.00000000e+00  0.00000000e+00
  0.00000000e+00  0.00000000e+00  0.00000000e+00  0.00000000e+00
  0.00000000e+00  0.00000000e+00  0.00000000e+00  0.00000000e+00
  0.00000000e+00  0.00000000e+00  0.00000000e+00  0.00000000e+00
  0.00000000e+00  0.00000000e+00 -3.63315377e-07 -4.98788490e-10
  0.00000000e+00  0.00000000e+00  0.00000000e+00  3.37002617e-06]","[[ 9.79868056e-05  5.76134794e-03]
 [-1.77687617e-04  1.86865919e-03]]",[],0.0,0.0
1787154030.1556349,1.7763762113178574,0.5202120426022924,2.167058279314472,"[ 7.70187258e-06 -4.37037415e-07  0.00000000e+00  0.00000000e+00
  0.00000000e+00 -5.10003267e-07 -4.37037415e-07  6.93143243e-06
  0.00000000e+00  0.00000000e+00  0.00000000e+00  6.24746792e-08
  0.00000000e+00  0.00000000e+00  0.00000000e+00  0.00000000e+00
  0.00000000e+00  0.00000000e+00  0.00000000e+00  0.00000000e+00
  0.00000000e+00  0.00000000e+00  0.00000000e+00  0.00000000e+00
  0.00000000e+00  0.00000000e+00  0.00000000e+00  0.00000000e+00
  0.00000000e+00  0.00000000e+00 -5.10003267e-07  6.24746792e-08
  0.00000000e+00  0.00000000e+00  0.00000000e+00  3.51073131e-06]","[[ 8.92339496e-05  5.37457882e-03]
 [-1.62414992e-04  1.52361435e-03]]",[],0.0,0.0
1787154030.1851063,1.7763762113178574,0.5202120426022924,2.167058279314472,"[ 7.70187258e-06 -4.37037415e-07  0.00000000e+00  0.00000000e+00
  0.00000000e+00 -5.10003267e-07 -4.37037415e-07  6.93143243e-06
  0.00000000e+00  0.00000000e+00  0.00000000e+00  6.24746792e-08
  0.00000000e+00  0.00000000e+00  0.00000000e+00  0.00000000e+00
  0.00000000e+00  0.00000000e+00  0.00000000e+00  0.00000000e+00
  0.00000000e+00  0.00000000e+00  0.00000000e+00  0.00000000e+00
  0.00000000e+00  0.00000000e+00  0.00000000e+00  0.00000000e+00
  0.00000000e+00  0.00000000e+00 -5.10003267e-07  6.24746792e-08
  0.00000000e+00  0.00000000e+00  0.00000000e+00  3.51073131e-06]","[[ 8.92339496e-05  5.37457882e-03]
 [-1.62414992e-04  1.52361435e-03]]",[],0.0,0.0
1787154030.238301,1.7763762113178574,0.5202120426022924,2.167058279314472,"[ 7.70187258e-06 -4.37037415e-07  0.00000000e+00  0.00000000e+00
  0.00000000e+00 -5.10003267e-07 -4.37037415e-07  6.93143243e-06
  0.00000000e+00  0.00000000e+00  0.00000000e+00  6.24746792e-08
  0.00000000e+00  0.00000000e+00  0.00000000e+00  0.00000000e+00
  0.00000000e+00  0.00000000e+00  0.00000000e+00  0.00000000e+00
  0.00000000e+00  0.00000000e+00  0.00000000e+00  0.00000000e+00
  0.00000000e+00  0.00000000e+00  0.00000000e+00  0.00000000e+00
  0.00000000e+00  0.00000000e+00 -5.10003267e-07  6.24746792e-08
  0.00000000e+00  0.00000000e+00  0.00000000e+00  3.51073131e-06]","[[ 8.92339496e-05  5.37457882e-03]
 [-1.62414992e-04  1.52361435e-03]]",[],0.0,0.0
1787154030.284246,1.7763762113178574,0.5202120426022924,2.167058279314472,"[ 7.70187258e-06 -4.37037415e-07  0.00000000e+00  0.00000000e+00
  0.00000000e+00 -5.10003267e-07 -4.37037415e-07  6.93143243e-06
  0.00000000e+00  0.00000000e+00  0.00000000e+00  6.24746792e-08
  0.00000000e+00  0.00000000e+00  0.00000000e+00  0.00000000e+00
  0.00000000e+00  0.00000000e+00  0.00000000e+00  0.00000000e+00
  0.00000000e+00  0.00000000e+00  0.00000000e+00  0.00000000e+00
  0.00000000e+00  0.00000000e+00  0.00000000e+00  0.00000000e+00
  0.00000000e+00  0.00000000e+00 -5.10003267e-07  6.24746792e-08
  0.00000000e+00  0.00000000e+00  0.00000000e+00  3.51073131e-06]","[[ 8.92339496e-05  5.37457882e-03]
 [-1.62414992e-04  1.52361435e-03]]",[],0.0,0.0
1787154030.3501854,1.7763762113178574,0.5202120426022924,2.167058279314472,"[ 7.70187258e-06 -4.37037415e-07  0.00000000e+00  0.00000000e+00
  0.00000000e+00 -5.10003267e-07 -4.37037415e-07  6.93143243e-06
  0.00000000e+00  0.00000000e+00  0.00000000e+00  6.24746792e-08
  0.00000000e+00  0.00000000e+00  0.00000000e+00  0.00000000e+00
  0.00000000e+00  0.00000000e+00  0.00000000e+00  0.00000000e+00
  0.00000000e+00  0.00000000e+00  0.00000000e+00  0.00000000e+00
  0.00000000e+00  0.00000000e+00  0.00000000e+00  0.00000000e+00
  0.00000000e+00  0.00000000e+00 -5.10003267e-07  6.24746792e-08
  0.00000000e+00  0.00000000e+00  0.00000000e+00  3.51073131e-06]","[[ 8.92339496e-05  5.37457882e-03]
 [-1.62414992e-04  1.52361435e-03]]",[],0.0,0.0
1787154030.3934371,1.7763762113178574,0.5202120426022924,2.167058279314472,"[ 7.70187258e-06 -4.37037415e-07  0.00000000e+00  0.00000000e+00
  0.00000000e+00 -5.10003267e-07 -4.37037415e-07  6.93143243e-06
  0.00000000e+00  0.00000000e+00  0.00000000e+00  6.24746792e-08
  0.00000000e+00  0.00000000e+00  0.00000000e+00  0.00000000e+00
  0.00000000e+00  0.00000000e+00  0.00000000e+00  0.00000000e+00
  0.00000000e+00  0.00000000e+00  0.00000000e+00  0.00000000e+00
  0.00000000e+00  0.00000000e+00  0.00000000e+00  0.00000000e+00
  0.00000000e+00  0.00000000e+00 -5.10003267e-07  6.24746792e-08
  0.00000000e+00  0.00000000e+00  0.00000000e+00  3.51073131e-06]","[[ 8.92339496e-05  5.37457882e-03]
 [-1.62414992e-04  1.52361435e-03]]",[],0.0,0.0
1787154030.4337082,1.7763762113178574,0.5202120426022924,2.167058279314472,"[ 7.70187258e-06 -4.37037415e-07  0.00000000e+00  0.00000000e+00
  0.00000000e+00 -5.10003267e-07 -4.37037415e-07  6.93143243e-06
  0.00000000e+00  0.00000000e+00  0.00000000e+00  6.24746792e-08
  0.00000000e+00  0.00000000e+00  0.00000000e+00  0.00000000e+00
  0.00000000e+00  0.00000000e+00  0.00000000e+00  0.00000000e+00
  0.00000000e+00  0.00000000e+00  0.00000000e+00  0.00000000e+00
  0.00000000e+00  0.00000000e+00  0.00000000e+00  0.00000000e+00
  0.00000000e+00  0.00000000e+00 -5.10003267e-07  6.24746792e-08
  0.00000000e+00  0.00000000e+00  0.00000000e+00  3.51073131e-06]","[[ 8.92339496e-05  5.37457882e-03]
 [-1.62414992e-04  1.52361435e-03]]",[],0.0,0.0
1787154030.486203,1.7763762113178574,0.5202120426022924,2.167058279314472,"[ 7.70187258e-06 -4.37037415e-07  0.00000000e+00  0.00000000e+00
  0.00000000e+00 -5.10003267e-07 -4.37037415e-07  6.93143243e-06
  0.00000000e+00  0.00000000e+00  0.00000000e+00  6.24746792e-08
  0.00000000e+00  0.00000000e+00  0.00000000e+00  0.00000000e+00
  0.00000000e+00  0.00000000e+00  0.00000000e+00  0.00000000e+00
  0.00000000e+00  0.00000000e+00  0.00000000e+00  0.00000000e+00
  0.00000000e+00  0.00000000e+00  0.00000000e+00  0.00000000e+00
  0.00000000e+00  0.00000000e+00 -5.10003267e-07  6.24746792e-08
  0.00000000e+00  0.00000000e+00  0.00000000e+00  3.51073131e-06]","[[ 8.92339496e-05  5.37457882e-03]
 [-1.62414992e-04  1.52361435e-03]]",[],0.0,0.0
1787154030.5587683,1.7763762113178574,0.5202120426022924,2.167058279314472,"[ 7.70187258e-06 -4.37037415e-07  0.00000000e+00  0.00000000e+00
  0.00000000e+00 -5.10003267e-07 -4.37037415e-07  6.93143243e-06
  0.00000000e+00  0.00000000e+00  0.00000000e+00  6.24746792e-08
  0.00000000e+00  0.00000000e+00  0.00000000e+00  0.00000000e+00
  0.00000000e+00  0.00000000e+00  0.00000000e+00  0.00000000e+00
  0.00000000e+00  0.00000000e+00  0.00000000e+00  0.00000000e+00
  0.00000000e+00  0.00000000e+00  0.00000000e+00  0.00000000e+00
  0.00000000e+00  0.00000000e+00 -5.10003267e-07  6.24746792e-08
  0.00000000e+00  0.00000000e+00  0.00000000e+00  3.51073131e-06]","[[ 8.92339496e-05  5.37457882e-03]
 [-1.62414992e-04  1.52361435e-03]]",[],0.0,0.0
1787154030.5875578,1.7763762113178574,0.5202120426022924,2.167058279314472,"[ 7.70187258e-06 -4.37037415e-07  0.00000000e+00  0.00000000e+00
  0.00000000e+00 -5.10003267e-07 -4.37037415e-07  6.93143243e-06
  0.00000000e+00  0.00000000e+00  0.00000000e+00  6.24746792e-08
  0.00000000e+00  0.00000000e+00  0.00000000e+00  0.00000000e+00
  0.00000000e+00  0.00000000e+00  0.00000000e+00  0.00000000e+00
  0.00000000e+00  0.00000000e+00  0.00000000e+00  0.00000000e+00
  0.00000000e+00  0.00000000e+00  0.00000000e+00  0.00000000e+00
  0.00000000e+00  0.00000000e+00 -5.10003267e-07  6.24746792e-08
  0.00000000e+00  0.00000000e+00  0.00000000e+00  3.51073131e-06]","[[ 8.92339496e-05  5.37457882e-03]
 [-1.62414992e-04  1.52361435e-03]]",[],0.0,0.0
1787154030.634194,1.7763762113178574,0.5202120426022924,2.167058279314472,"[ 7.70187258e-06 -4.37037415e-07  0.00000000e+00  0.00000000e+00
  0.00000000e+00 -5.10003267e-07 -4.37037415e-07  6.93143243e-06
  0.00000000e+00  0.00000000e+00  0.00000000e+00  6.24746792e-08
  0.00000000e+00  0.00000000e+00  0.00000000e+00  0.00000000e+00
  0.00000000e+00  0.00000000e+00  0.00000000e+00  0.00000000e+00
  0.00000000e+00  0.00000000e+00  0.00000000e+00  0.00000000e+00
  0.00000000e+00  0.00000000e+00  0.00000000e+00  0.00000000e+00
  0.00000000e+00  0.00000000e+00 -5.10003267e-07  6.24746792e-08
  0.00000000e+00  0.00000000e+00  0.00000000e+00  3.51073131e-06]","[[ 8.92339496e-05  5.37457882e-03]
 [-1.62414992e-04  1.52361435e-03]]",[],0.0,0.0
1787154030.7263718,1.7763762113178574,0.5202120426022924,2.167058279314472,"[ 7.70187258e-06 -4.37037415e-07  0.00000000e+00  0.00000000e+00
  0.00000000e+00 -5.10003267e-07 -4.37037415e-07  6.93143243e-06
  0.00000000e+00  0.00000000e+00  0.00000000e+00  6.24746792e-08
  0.00000000e+00  0.00000000e+00  0.00000000e+00  0.00000000e+00
  0.00000000e+00  0.00000000e+00  0.00000000e+00  0.00000000e+00
  0.00000000e+00  0.00000000e+00  0.00000000e+00  0.00000000e+00
  0.00000000e+00  0.00000000e+00  0.00000000e+00  0.00000000e+00
  0.00000000e+00  0.00000000e+00 -5.10003267e-07  6.24746792e-08
  0.00000000e+00  0.00000000e+00  0.00000000e+00  3.51073131e-06]","[[ 8.92339496e-05  5.37457882e-03]
 [-1.62414992e-04  1.52361435e-03]]",[],0.0,0.0
1787154030.740365,1.7763762113178574,0.5202120426022924,2.167058279314472,"[ 7.70187258e-06 -4.37037415e-07  0.00000000e+00  0.00000000e+00
  0.00000000e+00 -5.10003267e-07 -4.37037415e-07  6.93143243e-06
  0.00000000e+00  0.00000000e+00  0.00000000e+00  6.24746792e-08
  0.00000000e+00  0.00000000e+00  0.00000000e+00  0.00000000e+00
  0.00000000e+00  0.00000000e+00  0.00000000e+00  0.00000000e+00
  0.00000000e+00  0.00000000e+00  0.00000000e+00  0.00000000e+00
  0.00000000e+00  0.00000000e+00  0.00000000e+00  0.00000000e+00
  0.00000000e+00  0.00000000e+00 -5.10003267e-07  6.24746792e-08
  0.00000000e+00  0.00000000e+00  0.00000000e+00  3.51073131e-06]","[[ 8.92339496e-05  5.37457882e-03]
 [-1.62414992e-04  1.52361435e-03]]",[],0.0,0.0
1787154030.7832704,1.7763762113178574,0.5202120426022924,2.167058279314472,"[ 7.70187258e-06 -4.37037415e-07  0.00000000e+00  0.00000000e+00
  0.00000000e+00 -5.10003267e-07 -4.37037415e-07  6.93143243e-06
  0.00000000e+00  0.00000000e+00  0.00000000e+00  6.24746792e-08
  0.00000000e+00  0.00000000e+00  0.00000000e+00  0.00000000e+00
  0.00000000e+00  0.00000000e+00  0.00000000e+00  0.00000000e+00
  0.00000000e+00  0.00000000e+00  0.00000000e+00  0.00000000e+00
  0.00000000e+00  0.00000000e+00  0.00000000e+00  0.00000000e+00
  0.00000000e+00  0.00000000e+00 -5.10003267e-07  6.24746792e-08
  0.00000000e+00  0.00000000e+00  0.00000000e+00  3.51073131e-06]","[[ 8.92339496e-05  5.37457882e-03]
 [-1.62414992e-04  1.52361435e-03]]",[],0.0,0.0
1787154031.0848734,1.7763762113178574,0.5202120426022924,2.167058279314472,"[ 7.70187258e-06 -4.37037415e-07  0.00000000e+00  0.00000000e+00
  0.00000000e+00 -5.10003267e-07 -4.37037415e-07  6.93143243e-06
  0.00000000e+00  0.00000000e+00  0.00000000e+00  6.24746792e-08
  0.00000000e+00  0.00000000e+00  0.00000000e+00  0.00000000e+00
  0.00000000e+00  0.00000000e+00  0.00000000e+00  0.00000000e+00
  0.00000000e+00  0.00000000e+00  0.00000000e+00  0.00000000e+00
  0.00000000e+00  0.00000000e+00  0.00000000e+00  0.00000000e+00
  0.00000000e+00  0.00000000e+00 -5.10003267e-07  6.24746792e-08
  0.00000000e+00  0.00000000e+00  0.00000000e+00  3.51073131e-06]","[[ 8.92339496e-05  5.37457882e-03]
 [-1.62414992e-04  1.52361435e-03]]",[],0.0,0.0
1787154031.1397667,1.7763762113178574,0.5202120426022924,2.167058279314472,"[ 7.70187258e-06 -4.37037415e-07  0.00000000e+00  0.00000000e+00
  0.00000000e+00 -5.10003267e-07 -4.37037415e-07  6.93143243e-06
  0.00000000e+00  0.00000000e+00  0.00000000e+00  6.24746792e-08
  0.00000000e+00  0.00000000e+00  0.00000000e+00  0.00000000e+00
  0.00000000e+00  0.00000000e+00  0.00000000e+00  0.00000000e+00
  0.00000000e+00  0.00000000e+00  0.00000000e+00  0.00000000e+00
  0.00000000e+00  0.00000000e+00  0.00000000e+00  0.00000000e+00
  0.00000000e+00  0.00000000e+00 -5.10003267e-07  6.24746792e-08
  0.00000000e+00  0.00000000e+00  0.00000000e+00  3.51073131e-06]","[[ 8.92339496e-05  5.37457882e-03]
 [-1.62414992e-04  1.52361435e-03]]",[],0.0,0.0
1787154031.480318,1.7763762113178574,0.5202120426022924,2.167058279314472,"[ 7.70187258e-06 -4.37037415e-07  0.00000000e+00  0.00000000e+00
  0.00000000e+00 -5.10003267e-07 -4.37037415e-07  6.93143243e-06
  0.00000000e+00  0.00000000e+00  0.00000000e+00  6.24746792e-08
  0.00000000e+00  0.00000000e+00  0.00000000e+00  0.00000000e+00
  0.00000000e+00  0.00000000e+00  0.00000000e+00  0.00000000e+00
  0.00000000e+00  0.00000000e+00  0.00000000e+00  0.00000000e+00
  0.00000000e+00  0.00000000e+00  0.00000000e+00  0.00000000e+00
  0.00000000e+00  0.00000000e+00 -5.10003267e-07  6.24746792e-08
  0.00000000e+00  0.00000000e+00  0.00000000e+00  3.51073131e-06]","[[ 8.92339496e-05  5.37457882e-03]
 [-1.62414992e-04  1.52361435e-03]]",[],0.0,0.0
1787154031.493745,1.7763762113178574,0.5202120426022924,2.167058279314472,"[ 7.70187258e-06 -4.37037415e-07  0.00000000e+00  0.00000000e+00
  0.00000000e+00 -5.10003267e-07 -4.37037415e-07  6.93143243e-06
  0.00000000e+00  0.00000000e+00  0.00000000e+00  6.24746792e-08
  0.00000000e+00  0.00000000e+00  0.00000000e+00  0.00000000e+00
  0.00000000e+00  0.00000000e+00  0.00000000e+00  0.00000000e+00
  0.00000000e+00  0.00000000e+00  0.00000000e+00  0.00000000e+00
  0.00000000e+00  0.00000000e+00  0.00000000e+00  0.00000000e+00
  0.00000000e+00  0.00000000e+00 -5.10003267e-07  6.24746792e-08
  0.00000000e+00  0.00000000e+00  0.00000000e+00  3.51073131e-06]","[[ 8.92339496e-05  5.37457882e-03]
 [-1.62414992e-04  1.52361435e-03]]",[],0.0,0.0
1787154031.534973,1.7763762113178574,0.5202120426022924,2.167058279314472,"[ 7.70187258e-06 -4.37037415e-07  0.00000000e+00  0.00000000e+00
  0.00000000e+00 -5.10003267e-07 -4.37037415e-07  6.93143243e-06
  0.00000000e+00  0.00000000e+00  0.00000000e+00  6.24746792e-08
  0.00000000e+00  0.00000000e+00  0.00000000e+00  0.00000000e+00
  0.00000000e+00  0.00000000e+00  0.00000000e+00  0.00000000e+00
  0.00000000e+00  0.00000000e+00  0.00000000e+00  0.00000000e+00
  0.00000000e+00  0.00000000e+00  0.00000000e+00  0.00000000e+00
  0.00000000e+00  0.00000000e+00 -5.10003267e-07  6.24746792e-08
  0.00000000e+00  0.00000000e+00  0.00000000e+00  3.51073131e-06]","[[ 8.92339496e-05  5.37457882e-03]
 [-1.62414992e-04  1.52361435e-03]]",[],0.0,0.0
1787154031.5834796,1.7754403738762703,0.5179774288262673,2.2429256616622126,"[ 7.03183662e-06 -6.09236668e-07  0.00000000e+00  0.00000000e+00
  0.00000000e+00 -3.67599918e-07 -6.09236668e-07  6.49921827e-06
  0.00000000e+00  0.00000000e+00  0.00000000e+00  7.97705792e-08
  0.00000000e+00  0.00000000e+00  0.00000000e+00  0.00000000e+00
  0.00000000e+00  0.00000000e+00  0.00000000e+00  0.00000000e+00
  0.00000000e+00  0.00000000e+00  0.00000000e+00  0.00000000e+00
  0.00000000e+00  0.00000000e+00  0.00000000e+00  0.00000000e+00
  0.00000000e+00  0.00000000e+00 -3.67599918e-07  7.97705792e-08
  0.00000000e+00  0.00000000e+00  0.00000000e+00  3.57923087e-06]","[[ 8.92339496e-05  5.37457882e-03]
 [-1.62414992e-04  1.52361435e-03]]",[],0.0,0.0
1787154031.6473,1.7754403738762703,0.5179774288262673,2.2429256616622126,"[ 7.03183662e-06 -6.09236668e-07  0.00000000e+00  0.00000000e+00
  0.00000000e+00 -3.67599918e-07 -6.09236668e-07  6.49921827e-06
  0.00000000e+00  0.00000000e+00  0.00000000e+00  7.97705792e-08
  0.00000000e+00  0.00000000e+00  0.00000000e+00  0.00000000e+00
  0.00000000e+00  0.00000000e+00  0.00000000e+00  0.00000000e+00
  0.00000000e+00  0.00000000e+00  0.00000000e+00  0.00000000e+00
  0.00000000e+00  0.00000000e+00  0.00000000e+00  0.00000000e+00
  0.00000000e+00  0.00000000e+00 -3.67599918e-07  7.97705792e-08
  0.00000000e+00  0.00000000e+00  0.00000000e+00  3.57923087e-06]","[[ 0.00011046  0.0043804 ]
 [-0.00014349  0.00199916]]",[],0.0,0.0
1787154031.7183483,1.7754403738762703,0.5179774288262673,2.2429256616622126,"[ 7.03183662e-06 -6.09236668e-07  0.00000000e+00  0.00000000e+00
  0.00000000e+00 -3.67599918e-07 -6.09236668e-07  6.49921827e-06
  0.00000000e+00  0.00000000e+00  0.00000000e+00  7.97705792e-08
  0.00000000e+00  0.00000000e+00  0.00000000e+00  0.00000000e+00
  0.00000000e+00  0.00000000e+00  0.00000000e+00  0.00000000e+00
  0.00000000e+00  0.00000000e+00  0.00000000e+00  0.00000000e+00
  0.00000000e+00  0.00000000e+00  0.00000000e+00  0.00000000e+00
  0.00000000e+00  0.00000000e+00 -3.67599918e-07  7.97705792e-08
  0.00000000e+00  0.00000000e+00  0.00000000e+00  3.57923087e-06]","[[ 0.00011046  0.0043804 ]
 [-0.00014349  0.00199916]]",[],0.0,0.0
1787154031.7977269,1.7754403738762703,0.5179774288262673,2.2429256616622126,"[ 7.03183662e-06 -6.09236668e-07  0.00000000e+00  0.00000000e+00
  0.00000000e+00 -3.67599918e-07 -6.09236668e-07  6.49921827e-06
  0.00000000e+00  0.00000000e+00  0.00000000e+00  7.97705792e-08
  0.00000000e+00  0.00000000e+00  0.00000000e+00  0.00000000e+00
  0.00000000e+00  0.00000000e+00  0.00000000e+00  0.00000000e+00
  0.00000000e+00  0.00000000e+00  0.00000000e+00  0.00000000e+00
  0.00000000e+00  0.00000000e+00  0.00000000e+00  0.00000000e+00
  0.00000000e+00  0.00000000e+00 -3.67599918e-07  7.97705792e-08
  0.00000000e+00  0.00000000e+00  0.00000000e+00  3.57923087e-06]","[[ 0.00011046  0.0043804 ]
 [-0.00014349  0.00199916]]",[],0.0,0.0
1787154031.8668501,1.7754403738762703,0.5179774288262673,2.2429256616622126,"[ 7.03183662e-06 -6.09236668e-07  0.00000000e+00  0.00000000e+00
  0.00000000e+00 -3.67599918e-07 -6.09236668e-07  6.49921827e-06
  0.00000000e+00  0.00000000e+00  0.00000000e+00  7.97705792e-08
  0.00000000e+00  0.00000000e+00  0.00000000e+00  0.00000000e+00
  0.00000000e+00  0.00000000e+00  0.00000000e+00  0.00000000e+00
  0.00000000e+00  0.00000000e+00  0.00000000e+00  0.00000000e+00
  0.00000000e+00  0.00000000e+00  0.00000000e+00  0.00000000e+00
  0.00000000e+00  0.00000000e+00 -3.67599918e-07  7.97705792e-08
  0.00000000e+00  0.00000000e+00  0.00000000e+00  3.57923087e-06]","[[ 0.00011046  0.0043804 ]
 [-0.00014349  0.00199916]]",[],0.0,0.0
1787154031.8886049,1.7754403738762703,0.5179774288262673,2.2429256616622126,"[ 7.03183662e-06 -6.09236668e-07  0.00000000e+00  0.00000000e+00
  0.00000000e+00 -3.67599918e-07 -6.09236668e-07  6.49921827e-06
  0.00000000e+00  0.00000000e+00  0.00000000e+00  7.97705792e-08
  0.00000000e+00  0.00000000e+00  0.00000000e+00  0.00000000e+00
  0.00000000e+00  0.00000000e+00  0.00000000e+00  0.00000000e+00
  0.00000000e+00  0.00000000e+00  0.00000000e+00  0.00000000e+00
  0.00000000e+00  0.00000000e+00  0.00000000e+00  0.00000000e+00
  0.00000000e+00  0.00000000e+00 -3.67599918e-07  7.97705792e-08
  0.00000000e+00  0.00000000e+00  0.00000000e+00  3.57923087e-06]","[[ 0.00011046  0.0043804 ]
 [-0.00014349  0.00199916]]",[],0.0,0.0
1787154031.9622993,1.7754403738762703,0.5179774288262673,2.2429256616622126,"[ 7.03183662e-06 -6.09236668e-07  0.00000000e+00  0.00000000e+00
  0.00000000e+00 -3.67599918e-07 -6.09236668e-07  6.49921827e-06
  0.00000000e+00  0.00000000e+00  0.00000000e+00  7.97705792e-08
  0.00000000e+00  0.00000000e+00  0.00000000e+00  0.00000000e+00
  0.00000000e+00  0.00000000e+00  0.00000000e+00  0.00000000e+00
  0.00000000e+00  0.00000000e+00  0.00000000e+00  0.00000000e+00
  0.00000000e+00  0.00000000e+00  0.00000000e+00  0.00000000e+00
  0.00000000e+00  0.00000000e+00 -3.67599918e-07  7.97705792e-08
  0.00000000e+00  0.00000000e+00  0.00000000e+00  3.57923087e-06]","[[ 0.00011046  0.0043804 ]
 [-0.00014349  0.00199916]]",[],0.0,0.0
1787154031.9864297,1.7754403738762703,0.5179774288262673,2.2429256616622126,"[ 7.03183662e-06 -6.09236668e-07  0.00000000e+00  0.00000000e+00
  0.00000000e+00 -3.67599918e-07 -6.09236668e-07  6.49921827e-06
  0.00000000e+00  0.00000000e+00  0.00000000e+00  7.97705792e-08
  0.00000000e+00  0.00000000e+00  0.00000000e+00  0.00000000e+00
  0.00000000e+00  0.00000000e+00  0.00000000e+00  0.00000000e+00
  0.00000000e+00  0.00000000e+00  0.00000000e+00  0.00000000e+00
  0.00000000e+00  0.00000000e+00  0.00000000e+00  0.00000000e+00
  0.00000000e+00  0.00000000e+00 -3.67599918e-07  7.97705792e-08
  0.00000000e+00  0.00000000e+00  0.00000000e+00  3.57923087e-06]","[[ 0.00011046  0.0043804 ]
 [-0.00014349  0.00199916]]",[],0.0,0.0
1787154032.0338013,1.7754403738762703,0.5179774288262673,2.2429256616622126,"[ 7.03183662e-06 -6.09236668e-07  0.00000000e+00  0.00000000e+00
  0.00000000e+00 -3.67599918e-07 -6.09236668e-07  6.49921827e-06
  0.00000000e+00  0.00000000e+00  0.00000000e+00  7.97705792e-08
  0.00000000e+00  0.00000000e+00  0.00000000e+00  0.00000000e+00
  0.00000000e+00  0.00000000e+00  0.00000000e+00  0.00000000e+00
  0.00000000e+00  0.00000000e+00  0.00000000e+00  0.00000000e+00
  0.00000000e+00  0.00000000e+00  0.00000000e+00  0.00000000e+00
  0.00000000e+00  0.00000000e+00 -3.67599918e-07  7.97705792e-08
  0.00000000e+00  0.00000000e+00  0.00000000e+00  3.57923087e-06]","[[ 0.00011046  0.0043804 ]
 [-0.00014349  0.00199916]]",[],0.0,0.0
1787154032.09936,1.7754403738762703,0.5179774288262673,2.2429256616622126,"[ 7.03183662e-06 -6.09236668e-07  0.00000000e+00  0.00000000e+00
  0.00000000e+00 -3.67599918e-07 -6.09236668e-07  6.49921827e-06
  0.00000000e+00  0.00000000e+00  0.00000000e+00  7.97705792e-08
  0.00000000e+00  0.00000000e+00  0.00000000e+00  0.00000000e+00
  0.00000000e+00  0.00000000e+00  0.00000000e+00  0.00000000e+00
  0.00000000e+00  0.00000000e+00  0.00000000e+00  0.00000000e+00
  0.00000000e+00  0.00000000e+00  0.00000000e+00  0.00000000e+00
  0.00000000e+00  0.00000000e+00 -3.67599918e-07  7.97705792e-08
  0.00000000e+00  0.00000000e+00  0.00000000e+00  3.57923087e-06]","[[ 0.00011046  0.0043804 ]
 [-0.00014349  0.00199916]]",[],0.0,0.0
1787154032.1752896,1.7754403738762703,0.5179774288262673,2.2429256616622126,"[ 7.03183662e-06 -6.09236668e-07  0.00000000e+00  0.00000000e+00
  0.00000000e+00 -3.67599918e-07 -6.09236668e-07  6.49921827e-06
  0.00000000e+00  0.00000000e+00  0.00000000e+00  7.97705792e-08
  0.00000000e+00  0.00000000e+00  0.00000000e+00  0.00000000e+00
  0.00000000e+00  0.00000000e+00  0.00000000e+00  0.00000000e+00
  0.00000000e+00  0.00000000e+00  0.00000000e+00  0.00000000e+00
  0.00000000e+00  0.00000000e+00  0.00000000e+00  0.00000000e+00
  0.00000000e+00  0.00000000e+00 -3.67599918e-07  7.97705792e-08
  0.00000000e+00  0.00000000e+00  0.00000000e+00  3.57923087e-06]","[[ 0.00011046  0.0043804 ]
 [-0.00014349  0.00199916]]",[],0.0,0.0
1787154032.1935563,1.7754403738762703,0.5179774288262673,2.2429256616622126,"[ 7.03183662e-06 -6.09236668e-07  0.00000000e+00  0.00000000e+00
  0.00000000e+00 -3.67599918e-07 -6.09236668e-07  6.49921827e-06
  0.00000000e+00  0.00000000e+00  0.00000000e+00  7.97705792e-08
  0.00000000e+00  0.00000000e+00  0.00000000e+00  0.00000000e+00
  0.00000000e+00  0.00000000e+00  0.00000000e+00  0.00000000e+00
  0.00000000e+00  0.00000000e+00  0.00000000e+00  0.00000000e+00
  0.00000000e+00  0.00000000e+00  0.00000000e+00  0.00000000e+00
  0.00000000e+00  0.00000000e+00 -3.67599918e-07  7.97705792e-08
  0.00000000e+00  0.00000000e+00  0.00000000e+00  3.57923087e-06]","[[ 0.00011046  0.0043804 ]
 [-0.00014349  0.00199916]]",[],0.0,0.0
1787154032.2915578,1.7754403738762703,0.5179774288262673,2.2429256616622126,"[ 7.03183662e-06 -6.09236668e-07  0.00000000e+00  0.00000000e+00
  0.00000000e+00 -3.67599918e-07 -6.09236668e-07  6.49921827e-06
  0.00000000e+00  0.00000000e+00  0.00000000e+00  7.97705792e-08
  0.00000000e+00  0.00000000e+00  0.00000000e+00  0.00000000e+00
  0.00000000e+00  0.00000000e+00  0.00000000e+00  0.00000000e+00
  0.00000000e+00  0.00000000e+00  0.00000000e+00  0.00000000e+00
  0.00000000e+00  0.00000000e+00  0.00000000e+00  0.00000000e+00
  0.00000000e+00  0.00000000e+00 -3.67599918e-07  7.97705792e-08
  0.00000000e+00  0.00000000e+00  0.00000000e+00  3.57923087e-06]","[[ 0.00011046  0.0043804 ]
 [-0.00014349  0.00199916]]",[],0.0,0.0
1787154032.3386545,1.7754403738762703,0.5179774288262673,2.2429256616622126,"[ 7.03183662e-06 -6.09236668e-07  0.00000000e+00  0.00000000e+00
  0.00000000e+00 -3.67599918e-07 -6.09236668e-07  6.49921827e-06
  0.00000000e+00  0.00000000e+00  0.00000000e+00  7.97705792e-08
  0.00000000e+00  0.00000000e+00  0.00000000e+00  0.00000000e+00
  0.00000000e+00  0.00000000e+00  0.00000000e+00  0.00000000e+00
  0.00000000e+00  0.00000000e+00  0.00000000e+00  0.00000000e+00
  0.00000000e+00  0.00000000e+00  0.00000000e+00  0.00000000e+00
  0.00000000e+00  0.00000000e+00 -3.67599918e-07  7.97705792e-08
  0.00000000e+00  0.00000000e+00  0.00000000e+00  3.57923087e-06]","[[ 0.00011046  0.0043804 ]
 [-0.00014349  0.00199916]]",[],0.0,0.0
1787154032.3834639,1.7754403738762703,0.5179774288262673,2.2429256616622126,"[ 7.03183662e-06 -6.09236668e-07  0.00000000e+00  0.00000000e+00
  0.00000000e+00 -3.67599918e-07 -6.09236668e-07  6.49921827e-06
  0.00000000e+00  0.00000000e+00  0.00000000e+00  7.97705792e-08
  0.00000000e+00  0.00000000e+00  0.00000000e+00  0.00000000e+00
  0.00000000e+00  0.00000000e+00  0.00000000e+00  0.00000000e+00
  0.00000000e+00  0.00000000e+00  0.00000000e+00  0.00000000e+00
  0.00000000e+00  0.00000000e+00  0.00000000e+00  0.00000000e+00
  0.00000000e+00  0.00000000e+00 -3.67599918e-07  7.97705792e-08
  0.00000000e+00  0.00000000e+00  0.00000000e+00  3.57923087e-06]","[[ 0.00011046  0.0043804 ]
 [-0.00014349  0.00199916]]",[],0.0,0.0
1787154032.4338086,1.7754403738762703,0.5179774288262673,2.2429256616622126,"[ 7.03183662e-06 -6.09236668e-07  0.00000000e+00  0.00000000e+00
  0.00000000e+00 -3.67599918e-07 -6.09236668e-07  6.49921827e-06
  0.00000000e+00  0.00000000e+00  0.00000000e+00  7.97705792e-08
  0.00000000e+00  0.00000000e+00  0.00000000e+00  0.00000000e+00
  0.00000000e+00  0.00000000e+00  0.00000000e+00  0.00000000e+00
  0.00000000e+00  0.00000000e+00  0.00000000e+00  0.00000000e+00
  0.00000000e+00  0.00000000e+00  0.00000000e+00  0.00000000e+00
  0.00000000e+00  0.00000000e+00 -3.67599918e-07  7.97705792e-08
  0.00000000e+00  0.00000000e+00  0.00000000e+00  3.57923087e-06]","[[ 0.00011046  0.0043804 ]
 [-0.00014349  0.00199916]]",[],0.0,0.0
1787154032.484358,1.7754403738762703,0.5179774288262673,2.2429256616622126,"[ 7.03183662e-06 -6.09236668e-07  0.00000000e+00  0.00000000e+00
  0.00000000e+00 -3.67599918e-07 -6.09236668e-07  6.49921827e-06
  0.00000000e+00  0.00000000e+00  0.00000000e+00  7.97705792e-08
  0.00000000e+00  0.00000000e+00  0.00000000e+00  0.00000000e+00
  0.00000000e+00  0.00000000e+00  0.00000000e+00  0.00000000e+00
  0.00000000e+00  0.00000000e+00  0.00000000e+00  0.00000000e+00
  0.00000000e+00  0.00000000e+00  0.00000000e+00  0.00000000e+00
  0.00000000e+00  0.00000000e+00 -3.67599918e-07  7.97705792e-08
  0.00000000e+00  0.00000000e+00  0.00000000e+00  3.57923087e-06]","[[ 0.00011046  0.0043804 ]
 [-0.00014349  0.00199916]]",[],0.0,0.0
1787154032.5402079,1.7754403738762703,0.5179774288262673,2.2429256616622126,"[ 7.03183662e-06 -6.09236668e-07  0.00000000e+00  0.00000000e+00
  0.00000000e+00 -3.67599918e-07 -6.09236668e-07  6.49921827e-06
  0.00000000e+00  0.00000000e+00  0.00000000e+00  7.97705792e-08
  0.00000000e+00  0.00000000e+00  0.00000000e+00  0.00000000e+00
  0.00000000e+00  0.00000000e+00  0.00000000e+00  0.00000000e+00
  0.00000000e+00  0.00000000e+00  0.00000000e+00  0.00000000e+00
  0.00000000e+00  0.00000000e+00  0.00000000e+00  0.00000000e+00
  0.00000000e+00  0.00000000e+00 -3.67599918e-07  7.97705792e-08
  0.00000000e+00  0.00000000e+00  0.00000000e+00  3.57923087e-06]","[[ 0.00011046  0.0043804 ]
 [-0.00014349  0.00199916]]",[],0.0,0.0
1787154032.5982065,1.7754403738762703,0.5179774288262673,2.2429256616622126,"[ 7.03183662e-06 -6.09236668e-07  0.00000000e+00  0.00000000e+00
  0.00000000e+00 -3.67599918e-07 -6.09236668e-07  6.49921827e-06
  0.00000000e+00  0.00000000e+00  0.00000000e+00  7.97705792e-08
  0.00000000e+00  0.00000000e+00  0.00000000e+00  0.00000000e+00
  0.00000000e+00  0.00000000e+00  0.00000000e+00  0.00000000e+00
  0.00000000e+00  0.00000000e+00  0.00000000e+00  0.00000000e+00
  0.00000000e+00  0.00000000e+00  0.00000000e+00  0.00000000e+00
  0.00000000e+00  0.00000000e+00 -3.67599918e-07  7.97705792e-08
  0.00000000e+00  0.00000000e+00  0.00000000e+00  3.57923087e-06]","[[ 0.00011046  0.0043804 ]
 [-0.00014349  0.00199916]]",[],0.0,0.0
1787154032.6786332,1.7754403738762703,0.5179774288262673,2.2429256616622126,"[ 7.03183662e-06 -6.09236668e-07  0.00000000e+00  0.00000000e+00
  0.00000000e+00 -3.67599918e-07 -6.09236668e-07  6.49921827e-06
  0.00000000e+00  0.00000000e+00  0.00000000e+00  7.97705792e-08
  0.00000000e+00  0.00000000e+00  0.00000000e+00  0.00000000e+00
  0.00000000e+00  0.00000000e+00  0.00000000e+00  0.00000000e+00
  0.00000000e+00  0.00000000e+00  0.00000000e+00  0.00000000e+00
  0.00000000e+00  0.00000000e+00  0.00000000e+00  0.00000000e+00
  0.00000000e+00  0.00000000e+00 -3.67599918e-07  7.97705792e-08
  0.00000000e+00  0.00000000e+00  0.00000000e+00  3.57923087e-06]","[[ 0.00011046  0.0043804 ]
 [-0.00014349  0.00199916]]",[],0.0,0.0
1787154032.6835742,1.7754403738762703,0.5179774288262673,2.2429256616622126,"[ 7.03183662e-06 -6.09236668e-07  0.00000000e+00  0.00000000e+00
  0.00000000e+00 -3.67599918e-07 -6.09236668e-07  6.49921827e-06
  0.00000000e+00  0.00000000e+00  0.00000000e+00  7.97705792e-08
  0.00000000e+00  0.00000000e+00  0.00000000e+00  0.00000000e+00
  0.00000000e+00  0.00000000e+00  0.00000000e+00  0.00000000e+00
  0.00000000e+00  0.00000000e+00  0.00000000e+00  0.00000000e+00
  0.00000000e+00  0.00000000e+00  0.00000000e+00  0.00000000e+00
  0.00000000e+00  0.00000000e+00 -3.67599918e-07  7.97705792e-08
  0.00000000e+00  0.00000000e+00  0.00000000e+00  3.57923087e-06]","[[ 0.00011046  0.0043804 ]
 [-0.00014349  0.00199916]]",[],0.0,0.0
1787154032.7335176,1.774203786751622,0.5160370233552889,2.262579702517975,"[ 6.45116429e-06 -6.56172546e-07  0.00000000e+00  0.00000000e+00
  0.00000000e+00 -3.37498400e-07 -6.56172546e-07  5.99868266e-06
  0.00000000e+00  0.00000000e+00  0.00000000e+00  3.48938622e-08
  0.00000000e+00  0.00000000e+00  0.00000000e+00  0.00000000e+00
  0.00000000e+00  0.00000000e+00  0.00000000e+00  0.00000000e+00
  0.00000000e+00  0.00000000e+00  0.00000000e+00  0.00000000e+00
  0.00000000e+00  0.00000000e+00  0.00000000e+00  0.00000000e+00
  0.00000000e+00  0.00000000e+00 -3.37498400e-07  3.48938622e-08
  0.00000000e+00  0.00000000e+00  0.00000000e+00  3.52953672e-06]","[[ 0.00011046  0.0043804 ]
 [-0.00014349  0.00199916]]",[],0.0,0.0
1787154032.8165023,1.774203786751622,0.5160370233552889,2.262579702517975,"[ 6.45116429e-06 -6.56172546e-07  0.00000000e+00  0.00000000e+00
  0.00000000e+00 -3.37498400e-07 -6.56172546e-07  5.99868266e-06
  0.00000000e+00  0.00000000e+00  0.00000000e+00  3.48938622e-08
  0.00000000e+00  0.00000000e+00  0.00000000e+00  0.00000000e+00
  0.00000000e+00  0.00000000e+00  0.00000000e+00  0.00000000e+00
  0.00000000e+00  0.00000000e+00  0.00000000e+00  0.00000000e+00
  0.00000000e+00  0.00000000e+00  0.00000000e+00  0.00000000e+00
  0.00000000e+00  0.00000000e+00 -3.37498400e-07  3.48938622e-08
  0.00000000e+00  0.00000000e+00  0.00000000e+00  3.52953672e-06]","[[ 0.00011799  0.00344805]
 [-0.0001241   0.00217231]]",[],0.0,0.0
1787154032.8352497,1.774203786751622,0.5160370233552889,2.262579702517975,"[ 6.45116429e-06 -6.56172546e-07  0.00000000e+00  0.00000000e+00
  0.00000000e+00 -3.37498400e-07 -6.56172546e-07  5.99868266e-06
  0.00000000e+00  0.00000000e+00  0.00000000e+00  3.48938622e-08
  0.00000000e+00  0.00000000e+00  0.00000000e+00  0.00000000e+00
  0.00000000e+00  0.00000000e+00  0.00000000e+00  0.00000000e+00
  0.00000000e+00  0.00000000e+00  0.00000000e+00  0.00000000e+00
  0.00000000e+00  0.00000000e+00  0.00000000e+00  0.00000000e+00
  0.00000000e+00  0.00000000e+00 -3.37498400e-07  3.48938622e-08
  0.00000000e+00  0.00000000e+00  0.00000000e+00  3.52953672e-06]","[[ 0.00011799  0.00344805]
 [-0.0001241   0.00217231]]",[],0.0,0.0
1787154032.887879,1.774203786751622,0.5160370233552889,2.262579702517975,"[ 6.45116429e-06 -6.56172546e-07  0.00000000e+00  0.00000000e+00
  0.00000000e+00 -3.37498400e-07 -6.56172546e-07  5.99868266e-06
  0.00000000e+00  0.00000000e+00  0.00000000e+00  3.48938622e-08
  0.00000000e+00  0.00000000e+00  0.00000000e+00  0.00000000e+00
  0.00000000e+00  0.00000000e+00  0.00000000e+00  0.00000000e+00
  0.00000000e+00  0.00000000e+00  0.00000000e+00  0.00000000e+00
  0.00000000e+00  0.00000000e+00  0.00000000e+00  0.00000000e+00
  0.00000000e+00  0.00000000e+00 -3.37498400e-07  3.48938622e-08
  0.00000000e+00  0.00000000e+00  0.00000000e+00  3.52953672e-06]","[[ 0.00011799  0.00344805]
 [-0.0001241   0.00217231]]",[],0.0,0.0
1787154032.944706,1.774203786751622,0.5160370233552889,2.262579702517975,"[ 6.45116429e-06 -6.56172546e-07  0.00000000e+00  0.00000000e+00
  0.00000000e+00 -3.37498400e-07 -6.56172546e-07  5.99868266e-06
  0.00000000e+00  0.00000000e+00  0.00000000e+00  3.48938622e-08
  0.00000000e+00  0.00000000e+00  0.00000000e+00  0.00000000e+00
  0.00000000e+00  0.00000000e+00  0.00000000e+00  0.00000000e+00
  0.00000000e+00  0.00000000e+00  0.00000000e+00  0.00000000e+00
  0.00000000e+00  0.00000000e+00  0.00000000e+00  0.00000000e+00
  0.00000000e+00  0.00000000e+00 -3.37498400e-07  3.48938622e-08
  0.00000000e+00  0.00000000e+00  0.00000000e+00  3.52953672e-06]","[[ 0.00011799  0.00344805]
 [-0.0001241   0.00217231]]",[],0.0,0.0
1787154033.0217714,1.774203786751622,0.5160370233552889,2.262579702517975,"[ 6.45116429e-06 -6.56172546e-07  0.00000000e+00  0.00000000e+00
  0.00000000e+00 -3.37498400e-07 -6.56172546e-07  5.99868266e-06
  0.00000000e+00  0.00000000e+00  0.00000000e+00  3.48938622e-08
  0.00000000e+00  0.00000000e+00  0.00000000e+00  0.00000000e+00
  0.00000000e+00  0.00000000e+00  0.00000000e+00  0.00000000e+00
  0.00000000e+00  0.00000000e+00  0.00000000e+00  0.00000000e+00
  0.00000000e+00  0.00000000e+00  0.00000000e+00  0.00000000e+00
  0.00000000e+00  0.00000000e+00 -3.37498400e-07  3.48938622e-08
  0.00000000e+00  0.00000000e+00  0.00000000e+00  3.52953672e-06]","[[ 0.00011799  0.00344805]
 [-0.0001241   0.00217231]]",[],0.0,0.0
1787154033.0334857,1.774203786751622,0.5160370233552889,2.262579702517975,"[ 6.45116429e-06 -6.56172546e-07  0.00000000e+00  0.00000000e+00
  0.00000000e+00 -3.37498400e-07 -6.56172546e-07  5.99868266e-06
  0.00000000e+00  0.00000000e+00  0.00000000e+00  3.48938622e-08
  0.00000000e+00  0.00000000e+00  0.00000000e+00  0.00000000e+00
  0.00000000e+00  0.00000000e+00  0.00000000e+00  0.00000000e+00
  0.00000000e+00  0.00000000e+00  0.00000000e+00  0.00000000e+00
  0.00000000e+00  0.00000000e+00  0.00000000e+00  0.00000000e+00
  0.00000000e+00  0.00000000e+00 -3.37498400e-07  3.48938622e-08
  0.00000000e+00  0.00000000e+00  0.00000000e+00  3.52953672e-06]","[[ 0.00011799  0.00344805]
 [-0.0001241   0.00217231]]",[],0.0,0.0
1787154033.0937417,1.774203786751622,0.5160370233552889,2.262579702517975,"[ 6.45116429e-06 -6.56172546e-07  0.00000000e+00  0.00000000e+00
  0.00000000e+00 -3.37498400e-07 -6.56172546e-07  5.99868266e-06
  0.00000000e+00  0.00000000e+00  0.00000000e+00  3.48938622e-08
  0.00000000e+00  0.00000000e+00  0.00000000e+00  0.00000000e+00
  0.00000000e+00  0.00000000e+00  0.00000000e+00  0.00000000e+00
  0.00000000e+00  0.00000000e+00  0.00000000e+00  0.00000000e+00
  0.00000000e+00  0.00000000e+00  0.00000000e+00  0.00000000e+00
  0.00000000e+00  0.00000000e+00 -3.37498400e-07  3.48938622e-08
  0.00000000e+00  0.00000000e+00  0.00000000e+00  3.52953672e-06]","[[ 0.00011799  0.00344805]
 [-0.0001241   0.00217231]]",[],0.0,0.0
1787154033.2073057,1.774203786751622,0.5160370233552889,2.262579702517975,"[ 6.45116429e-06 -6.56172546e-07  0.00000000e+00  0.00000000e+00
  0.00000000e+00 -3.37498400e-07 -6.56172546e-07  5.99868266e-06
  0.00000000e+00  0.00000000e+00  0.00000000e+00  3.48938622e-08
  0.00000000e+00  0.00000000e+00  0.00000000e+00  0.00000000e+00
  0.00000000e+00  0.00000000e+00  0.00000000e+00  0.00000000e+00
  0.00000000e+00  0.00000000e+00  0.00000000e+00  0.00000000e+00
  0.00000000e+00  0.00000000e+00  0.00000000e+00  0.00000000e+00
  0.00000000e+00  0.00000000e+00 -3.37498400e-07  3.48938622e-08
  0.00000000e+00  0.00000000e+00  0.00000000e+00  3.52953672e-06]","[[ 0.00011799  0.00344805]
 [-0.0001241   0.00217231]]",[],0.0,0.0
1787154033.2825685,1.774203786751622,0.5160370233552889,2.262579702517975,"[ 6.45116429e-06 -6.56172546e-07  0.00000000e+00  0.00000000e+00
  0.00000000e+00 -3.37498400e-07 -6.56172546e-07  5.99868266e-06
  0.00000000e+00  0.00000000e+00  0.00000000e+00  3.48938622e-08
  0.00000000e+00  0.00000000e+00  0.00000000e+00  0.00000000e+00
  0.00000000e+00  0.00000000e+00  0.00000000e+00  0.00000000e+00
  0.00000000e+00  0.00000000e+00  0.00000000e+00  0.00000000e+00
  0.00000000e+00  0.00000000e+00  0.00000000e+00  0.00000000e+00
  0.00000000e+00  0.00000000e+00 -3.37498400e-07  3.48938622e-08
  0.00000000e+00  0.00000000e+00  0.00000000e+00  3.52953672e-06]","[[ 0.00011799  0.00344805]
 [-0.0001241   0.00217231]]",[],0.0,0.0
1787154033.2843664,1.774203786751622,0.5160370233552889,2.262579702517975,"[ 6.45116429e-06 -6.56172546e-07  0.00000000e+00  0.00000000e+00
  0.00000000e+00 -3.37498400e-07 -6.56172546e-07  5.99868266e-06
  0.00000000e+00  0.00000000e+00  0.00000000e+00  3.48938622e-08
  0.00000000e+00  0.00000000e+00  0.00000000e+00  0.00000000e+00
  0.00000000e+00  0.00000000e+00  0.00000000e+00  0.00000000e+00
  0.00000000e+00  0.00000000e+00  0.00000000e+00  0.00000000e+00
  0.00000000e+00  0.00000000e+00  0.00000000e+00  0.00000000e+00
  0.00000000e+00  0.00000000e+00 -3.37498400e-07  3.48938622e-08
  0.00000000e+00  0.00000000e+00  0.00000000e+00  3.52953672e-06]","[[ 0.00011799  0.00344805]
 [-0.0001241   0.00217231]]",[],0.0,0.0
1787154033.3811638,1.774203786751622,0.5160370233552889,2.262579702517975,"[ 6.45116429e-06 -6.56172546e-07  0.00000000e+00  0.00000000e+00
  0.00000000e+00 -3.37498400e-07 -6.56172546e-07  5.99868266e-06
  0.00000000e+00  0.00000000e+00  0.00000000e+00  3.48938622e-08
  0.00000000e+00  0.00000000e+00  0.00000000e+00  0.00000000e+00
  0.00000000e+00  0.00000000e+00  0.00000000e+00  0.00000000e+00
  0.00000000e+00  0.00000000e+00  0.00000000e+00  0.00000000e+00
  0.00000000e+00  0.00000000e+00  0.00000000e+00  0.00000000e+00
  0.00000000e+00  0.00000000e+00 -3.37498400e-07  3.48938622e-08
  0.00000000e+00  0.00000000e+00  0.00000000e+00  3.52953672e-06]","[[ 0.00011799  0.00344805]
 [-0.0001241   0.00217231]]",[],0.0,0.0
1787154033.3907955,1.774203786751622,0.5160370233552889,2.262579702517975,"[ 6.45116429e-06 -6.56172546e-07  0.00000000e+00  0.00000000e+00
  0.00000000e+00 -3.37498400e-07 -6.56172546e-07  5.99868266e-06
  0.00000000e+00  0.00000000e+00  0.00000000e+00  3.48938622e-08
  0.00000000e+00  0.00000000e+00  0.00000000e+00  0.00000000e+00
  0.00000000e+00  0.00000000e+00  0.00000000e+00  0.00000000e+00
  0.00000000e+00  0.00000000e+00  0.00000000e+00  0.00000000e+00
  0.00000000e+00  0.00000000e+00  0.00000000e+00  0.00000000e+00
  0.00000000e+00  0.00000000e+00 -3.37498400e-07  3.48938622e-08
  0.00000000e+00  0.00000000e+00  0.00000000e+00  3.52953672e-06]","[[ 0.00011799  0.00344805]
 [-0.0001241   0.00217231]]",[],0.0,0.0
1787154033.4746215,1.774203786751622,0.5160370233552889,2.262579702517975,"[ 6.45116429e-06 -6.56172546e-07  0.00000000e+00  0.00000000e+00
  0.00000000e+00 -3.37498400e-07 -6.56172546e-07  5.99868266e-06
  0.00000000e+00  0.00000000e+00  0.00000000e+00  3.48938622e-08
  0.00000000e+00  0.00000000e+00  0.00000000e+00  0.00000000e+00
  0.00000000e+00  0.00000000e+00  0.00000000e+00  0.00000000e+00
  0.00000000e+00  0.00000000e+00  0.00000000e+00  0.00000000e+00
  0.00000000e+00  0.00000000e+00  0.00000000e+00  0.00000000e+00
  0.00000000e+00  0.00000000e+00 -3.37498400e-07  3.48938622e-08
  0.00000000e+00  0.00000000e+00  0.00000000e+00  3.52953672e-06]","[[ 0.00011799  0.00344805]
 [-0.0001241   0.00217231]]",[],0.0,0.0
1787154033.483861,1.774203786751622,0.5160370233552889,2.262579702517975,"[ 6.45116429e-06 -6.56172546e-07  0.00000000e+00  0.00000000e+00
  0.00000000e+00 -3.37498400e-07 -6.56172546e-07  5.99868266e-06
  0.00000000e+00  0.00000000e+00  0.00000000e+00  3.48938622e-08
  0.00000000e+00  0.00000000e+00  0.00000000e+00  0.00000000e+00
  0.00000000e+00  0.00000000e+00  0.00000000e+00  0.00000000e+00
  0.00000000e+00  0.00000000e+00  0.00000000e+00  0.00000000e+00
  0.00000000e+00  0.00000000e+00  0.00000000e+00  0.00000000e+00
  0.00000000e+00  0.00000000e+00 -3.37498400e-07  3.48938622e-08
  0.00000000e+00  0.00000000e+00  0.00000000e+00  3.52953672e-06]","[[ 0.00011799  0.00344805]
 [-0.0001241   0.00217231]]",[],0.0,0.0
1787154033.5844018,1.774203786751622,0.5160370233552889,2.262579702517975,"[ 6.45116429e-06 -6.56172546e-07  0.00000000e+00  0.00000000e+00
  0.00000000e+00 -3.37498400e-07 -6.56172546e-07  5.99868266e-06
  0.00000000e+00  0.00000000e+00  0.00000000e+00  3.48938622e-08
  0.00000000e+00  0.00000000e+00  0.00000000e+00  0.00000000e+00
  0.00000000e+00  0.00000000e+00  0.00000000e+00  0.00000000e+00
  0.00000000e+00  0.00000000e+00  0.00000000e+00  0.00000000e+00
  0.00000000e+00  0.00000000e+00  0.00000000e+00  0.00000000e+00
  0.00000000e+00  0.00000000e+00 -3.37498400e-07  3.48938622e-08
  0.00000000e+00  0.00000000e+00  0.00000000e+00  3.52953672e-06]","[[ 0.00011799  0.00344805]
 [-0.0001241   0.00217231]]",[],0.0,0.0
1787154033.6353452,1.774203786751622,0.5160370233552889,2.262579702517975,"[ 6.45116429e-06 -6.56172546e-07  0.00000000e+00  0.00000000e+00
  0.00000000e+00 -3.37498400e-07 -6.56172546e-07  5.99868266e-06
  0.00000000e+00  0.00000000e+00  0.00000000e+00  3.48938622e-08
  0.00000000e+00  0.00000000e+00  0.00000000e+00  0.00000000e+00
  0.00000000e+00  0.00000000e+00  0.00000000e+00  0.00000000e+00
  0.00000000e+00  0.00000000e+00  0.00000000e+00  0.00000000e+00
  0.00000000e+00  0.00000000e+00  0.00000000e+00  0.00000000e+00
  0.00000000e+00  0.00000000e+00 -3.37498400e-07  3.48938622e-08
  0.00000000e+00  0.00000000e+00  0.00000000e+00  3.52953672e-06]","[[ 0.00011799  0.00344805]
 [-0.0001241   0.00217231]]",[],0.0,0.0
1787154033.6984804,1.774203786751622,0.5160370233552889,2.262579702517975,"[ 6.45116429e-06 -6.56172546e-07  0.00000000e+00  0.00000000e+00
  0.00000000e+00 -3.37498400e-07 -6.56172546e-07  5.99868266e-06
  0.00000000e+00  0.00000000e+00  0.00000000e+00  3.48938622e-08
  0.00000000e+00  0.00000000e+00  0.00000000e+00  0.00000000e+00
  0.00000000e+00  0.00000000e+00  0.00000000e+00  0.00000000e+00
  0.00000000e+00  0.00000000e+00  0.00000000e+00  0.00000000e+00
  0.00000000e+00  0.00000000e+00  0.00000000e+00  0.00000000e+00
  0.00000000e+00  0.00000000e+00 -3.37498400e-07  3.48938622e-08
  0.00000000e+00  0.00000000e+00  0.00000000e+00  3.52953672e-06]","[[ 0.00011799  0.00344805]
 [-0.0001241   0.00217231]]",[],0.0,0.0
1787154033.771824,1.774203786751622,0.5160370233552889,2.262579702517975,"[ 6.45116429e-06 -6.56172546e-07  0.00000000e+00  0.00000000e+00
  0.00000000e+00 -3.37498400e-07 -6.56172546e-07  5.99868266e-06
  0.00000000e+00  0.00000000e+00  0.00000000e+00  3.48938622e-08
  0.00000000e+00  0.00000000e+00  0.00000000e+00  0.00000000e+00
  0.00000000e+00  0.00000000e+00  0.00000000e+00  0.00000000e+00
  0.00000000e+00  0.00000000e+00  0.00000000e+00  0.00000000e+00
  0.00000000e+00  0.00000000e+00  0.00000000e+00  0.00000000e+00
  0.00000000e+00  0.00000000e+00 -3.37498400e-07  3.48938622e-08
  0.00000000e+00  0.00000000e+00  0.00000000e+00  3.52953672e-06]","[[ 0.00011799  0.00344805]
 [-0.0001241   0.00217231]]",[],0.0,0.0
1787154033.783561,1.774203786751622,0.5160370233552889,2.262579702517975,"[ 6.45116429e-06 -6.56172546e-07  0.00000000e+00  0.00000000e+00
  0.00000000e+00 -3.37498400e-07 -6.56172546e-07  5.99868266e-06
  0.00000000e+00  0.00000000e+00  0.00000000e+00  3.48938622e-08
  0.00000000e+00  0.00000000e+00  0.00000000e+00  0.00000000e+00
  0.00000000e+00  0.00000000e+00  0.00000000e+00  0.00000000e+00
  0.00000000e+00  0.00000000e+00  0.00000000e+00  0.00000000e+00
  0.00000000e+00  0.00000000e+00  0.00000000e+00  0.00000000e+00
  0.00000000e+00  0.00000000e+00 -3.37498400e-07  3.48938622e-08
  0.00000000e+00  0.00000000e+00  0.00000000e+00  3.52953672e-06]","[[ 0.00011799  0.00344805]
 [-0.0001241   0.00217231]]",[],0.0,0.0
1787154033.876698,1.774203786751622,0.5160370233552889,2.262579702517975,"[ 6.45116429e-06 -6.56172546e-07  0.00000000e+00  0.00000000e+00
  0.00000000e+00 -3.37498400e-07 -6.56172546e-07  5.99868266e-06
  0.00000000e+00  0.00000000e+00  0.00000000e+00  3.48938622e-08
  0.00000000e+00  0.00000000e+00  0.00000000e+00  0.00000000e+00
  0.00000000e+00  0.00000000e+00  0.00000000e+00  0.00000000e+00
  0.00000000e+00  0.00000000e+00  0.00000000e+00  0.00000000e+00
  0.00000000e+00  0.00000000e+00  0.00000000e+00  0.00000000e+00
  0.00000000e+00  0.00000000e+00 -3.37498400e-07  3.48938622e-08
