time,x,y,yaw,cov_prop,K_gain,innovation,v_ekf,omega_ekf
1786957638.4256935,6.71321488615207e-20,-6.88574094611542e-27,-4.074895079142493e-07,"[ 9.99980015e-03 -1.64186589e-17  0.00000000e+00  0.00000000e+00
  0.00000000e+00  1.51881605e-10 -1.64186589e-17  9.99980000e-03
  0.00000000e+00  0.00000000e+00  0.00000000e+00 -1.68977899e-17
  0.00000000e+00  0.00000000e+00  0.00000000e+00  0.00000000e+00
  0.00000000e+00  0.00000000e+00  0.00000000e+00  0.00000000e+00
  0.00000000e+00  0.00000000e+00  0.00000000e+00  0.00000000e+00
  0.00000000e+00  0.00000000e+00  0.00000000e+00  0.00000000e+00
  0.00000000e+00  0.00000000e+00  1.51881605e-10 -1.68977899e-17
  0.00000000e+00  0.00000000e+00  0.00000000e+00  9.99980309e-03]","[[ 9.99980015e-06 -1.64186589e-20  1.51881605e-13]
 [-1.64186589e-20  9.99980000e-06 -1.68977899e-20]
 [ 1.51881605e-13 -1.68977899e-20  9.99980309e-06]]",[-5.24142198e-21  0.00000000e+00  4.07493583e-07],0.0,0.0
1786957638.4702516,1.7069623880339823e-17,1.1112275056122898e-23,8.214508802506518e-06,"[ 9.99950078e-03 -4.13871963e-15  0.00000000e+00  0.00000000e+00
  0.00000000e+00  7.78997029e-10 -4.13871963e-15  9.99950002e-03
  0.00000000e+00  0.00000000e+00  0.00000000e+00 -4.25949617e-15
  0.00000000e+00  0.00000000e+00  0.00000000e+00  0.00000000e+00
  0.00000000e+00  0.00000000e+00  0.00000000e+00  0.00000000e+00
  0.00000000e+00  0.00000000e+00  0.00000000e+00  0.00000000e+00
  0.00000000e+00  0.00000000e+00  0.00000000e+00  0.00000000e+00
  0.00000000e+00  0.00000000e+00  7.78997029e-10 -4.25949617e-15
  0.00000000e+00  0.00000000e+00  0.00000000e+00  9.99951585e-03]","[[ 9.99950078e-06 -4.13871963e-18  7.78997029e-13]
 [-4.13871963e-18  9.99950002e-06 -4.25949617e-18]
 [ 7.78997029e-13 -4.25949617e-18  9.99951585e-06]]",[-2.34690005e-17  2.38779824e-23 -8.21459094e-06],0.0,0.0
1786957638.5148957,-9.855809900522232e-17,-1.3525679709419078e-22,7.538181081834239e-05,"[9.99940153e-03 1.88662618e-15 0.00000000e+00 0.00000000e+00
 0.00000000e+00 1.53387660e-09 1.88662618e-15 9.99940004e-03
 0.00000000e+00 0.00000000e+00 0.00000000e+00 1.94168190e-15
 0.00000000e+00 0.00000000e+00 0.00000000e+00 0.00000000e+00
 0.00000000e+00 0.00000000e+00 0.00000000e+00 0.00000000e+00
 0.00000000e+00 0.00000000e+00 0.00000000e+00 0.00000000e+00
 0.00000000e+00 0.00000000e+00 0.00000000e+00 0.00000000e+00
 0.00000000e+00 0.00000000e+00 1.53387660e-09 1.94168190e-15
 0.00000000e+00 0.00000000e+00 0.00000000e+00 9.99943119e-03]","[[9.99940153e-06 1.88662618e-18 1.53387660e-12]
 [1.88662618e-18 9.99940004e-06 1.94168190e-18]
 [1.53387660e-12 1.94168190e-18 9.99943119e-06]]",[-1.70696239e-17 -1.11122751e-23 -7.53825646e-05],0.0,0.0
1786957638.56503,-3.765303524078538e-16,-2.3978120937125743e-21,8.496451249984105e-05,"[9.99920176e-03 1.78173502e-14 0.00000000e+00 0.00000000e+00
 0.00000000e+00 1.74424757e-09 1.78173502e-14 9.99920006e-03
 0.00000000e+00 0.00000000e+00 0.00000000e+00 1.83372980e-14
 0.00000000e+00 0.00000000e+00 0.00000000e+00 0.00000000e+00
 0.00000000e+00 0.00000000e+00 0.00000000e+00 0.00000000e+00
 0.00000000e+00 0.00000000e+00 0.00000000e+00 0.00000000e+00
 0.00000000e+00 0.00000000e+00 0.00000000e+00 0.00000000e+00
 0.00000000e+00 0.00000000e+00 1.74424757e-09 1.83372980e-14
 0.00000000e+00 0.00000000e+00 0.00000000e+00 9.99923549e-03]","[[9.99920176e-06 1.78173502e-17 1.74424757e-12]
 [1.78173502e-17 9.99920006e-06 1.83372980e-17]
 [1.74424757e-12 1.83372980e-17 9.99923549e-06]]",[ 2.28332009e-16  8.39785329e-22 -8.49653621e-05],0.0,0.0
1786957638.6145167,-8.158056815315158e-16,-1.2158617078453492e-20,8.524240792873174e-05,"[9.99890229e-03 5.21998301e-14 0.00000000e+00 0.00000000e+00
 0.00000000e+00 2.22978245e-09 5.21998301e-14 9.99890012e-03
 0.00000000e+00 0.00000000e+00 0.00000000e+00 5.37231310e-14
 0.00000000e+00 0.00000000e+00 0.00000000e+00 0.00000000e+00
 0.00000000e+00 0.00000000e+00 0.00000000e+00 0.00000000e+00
 0.00000000e+00 0.00000000e+00 0.00000000e+00 0.00000000e+00
 0.00000000e+00 0.00000000e+00 0.00000000e+00 0.00000000e+00
 0.00000000e+00 0.00000000e+00 2.22978245e-09 5.37231310e-14
 0.00000000e+00 0.00000000e+00 0.00000000e+00 9.99894541e-03]","[[9.99890229e-06 5.21998301e-17 2.22978245e-12]
 [5.21998301e-17 9.99890012e-06 5.37231310e-17]
 [2.22978245e-12 5.37231310e-17 9.99894541e-06]]",[ 6.25738013e-16  7.57915802e-21 -8.52432603e-05],0.0,0.0
1786957638.666519,-1.785029940249761e-15,-4.525812864558074e-20,0.00013334547876953096,"[9.99860281e-03 1.00106157e-13 0.00000000e+00 0.00000000e+00
 0.00000000e+00 2.69382726e-09 1.00106157e-13 9.99860020e-03
 0.00000000e+00 0.00000000e+00 0.00000000e+00 1.03027465e-13
 0.00000000e+00 0.00000000e+00 0.00000000e+00 0.00000000e+00
 0.00000000e+00 0.00000000e+00 0.00000000e+00 0.00000000e+00
 0.00000000e+00 0.00000000e+00 0.00000000e+00 0.00000000e+00
 0.00000000e+00 0.00000000e+00 0.00000000e+00 0.00000000e+00
 0.00000000e+00 0.00000000e+00 2.69382726e-09 1.03027465e-13
 0.00000000e+00 0.00000000e+00 0.00000000e+00 9.99865491e-03]","[[9.99860281e-06 1.00106157e-16 2.69382726e-12]
 [1.00106157e-16 9.99860020e-06 1.03027465e-16]
 [2.69382726e-12 1.03027465e-16 9.99865491e-06]]",[ 1.42583092e-15  3.15200597e-20 -1.33346812e-04],0.0,0.0
1786957638.7146847,-2.498886376629151e-15,-7.753748898086121e-20,0.00010468308690603223,"[9.99840316e-03 1.39120569e-13 0.00000000e+00 0.00000000e+00
 0.00000000e+00 2.98595594e-09 1.39120569e-13 9.99840026e-03
 0.00000000e+00 0.00000000e+00 0.00000000e+00 1.43180400e-13
 0.00000000e+00 0.00000000e+00 0.00000000e+00 0.00000000e+00
 0.00000000e+00 0.00000000e+00 0.00000000e+00 0.00000000e+00
 0.00000000e+00 0.00000000e+00 0.00000000e+00 0.00000000e+00
 0.00000000e+00 0.00000000e+00 0.00000000e+00 0.00000000e+00
 0.00000000e+00 0.00000000e+00 2.98595594e-09 1.43180400e-13
 0.00000000e+00 0.00000000e+00 0.00000000e+00 9.99846090e-03]","[[9.99840316e-06 1.39120569e-16 2.98595594e-12]
 [1.39120569e-16 9.99840026e-06 1.43180400e-16]
 [2.98595594e-12 1.43180400e-16 9.99846090e-06]]",[ 2.18632603e-15  6.25493982e-20 -1.04684134e-04],0.0,0.0
1786957638.7660034,-2.8721872205721367e-15,-9.66993460756984e-20,2.3661976807698437e-05,"[9.99810373e-03 1.70986925e-13 0.00000000e+00 0.00000000e+00
 0.00000000e+00 3.46683642e-09 1.70986925e-13 9.99810036e-03
 0.00000000e+00 0.00000000e+00 0.00000000e+00 1.75976684e-13
 0.00000000e+00 0.00000000e+00 0.00000000e+00 0.00000000e+00
 0.00000000e+00 0.00000000e+00 0.00000000e+00 0.00000000e+00
 0.00000000e+00 0.00000000e+00 0.00000000e+00 0.00000000e+00
 0.00000000e+00 0.00000000e+00 0.00000000e+00 0.00000000e+00
 0.00000000e+00 0.00000000e+00 3.46683642e-09 1.75976684e-13
 0.00000000e+00 0.00000000e+00 0.00000000e+00 9.99817077e-03]","[[9.99810373e-06 1.70986925e-16 3.46683642e-12]
 [1.70986925e-16 9.99810036e-06 1.75976684e-16]
 [3.46683642e-12 1.75976684e-16 9.99817077e-06]]",[ 2.79018209e-15  9.25362734e-20 -2.36622134e-05],0.0,0.0
1786957638.8169787,-2.990462959457655e-15,-1.0251312666052702e-19,1.2158550896312903e-05,"[9.99790412e-03 1.77705749e-13 0.00000000e+00 0.00000000e+00
 0.00000000e+00 3.78632105e-09 1.77705749e-13 9.99790044e-03
 0.00000000e+00 0.00000000e+00 0.00000000e+00 1.82891577e-13
 0.00000000e+00 0.00000000e+00 0.00000000e+00 0.00000000e+00
 0.00000000e+00 0.00000000e+00 0.00000000e+00 0.00000000e+00
 0.00000000e+00 0.00000000e+00 0.00000000e+00 0.00000000e+00
 0.00000000e+00 0.00000000e+00 0.00000000e+00 0.00000000e+00
 0.00000000e+00 0.00000000e+00 3.78632105e-09 1.82891577e-13
 0.00000000e+00 0.00000000e+00 0.00000000e+00 9.99797734e-03]","[[9.99790412e-06 1.77705749e-16 3.78632105e-12]
 [1.77705749e-16 9.99790044e-06 1.82891577e-16]
 [3.78632105e-12 1.82891577e-16 9.99797734e-06]]",[ 2.94445576e-15  1.00290411e-19 -1.21586725e-05],0.0,0.0
1786957638.870997,-1.0217181770009345e-05,2.2621689942396733e-11,-5.967521950367427e-06,"[9.99760468e-03 1.79820170e-13 0.00000000e+00 0.00000000e+00
 0.00000000e+00 4.22533066e-09 1.79820170e-13 9.99760058e-03
 0.00000000e+00 0.00000000e+00 0.00000000e+00 1.85067701e-13
 0.00000000e+00 0.00000000e+00 0.00000000e+00 0.00000000e+00
 0.00000000e+00 0.00000000e+00 0.00000000e+00 0.00000000e+00
 0.00000000e+00 0.00000000e+00 0.00000000e+00 0.00000000e+00
 0.00000000e+00 0.00000000e+00 0.00000000e+00 0.00000000e+00
 0.00000000e+00 0.00000000e+00 4.22533066e-09 1.85067701e-13
 0.00000000e+00 0.00000000e+00 0.00000000e+00 9.99768639e-03]","[[9.99760468e-06 1.79820170e-16 4.22533066e-12]
 [1.79820170e-16 9.99760058e-06 1.85067701e-16]
 [4.22533066e-12 1.85067701e-16 9.99768639e-06]]",[ 1.02172839e-05 -2.26219161e-11  5.96758161e-06],0.0,0.0
1786957638.915651,-1.0646669251890078e-05,-1.4346843751745939e-11,-1.2872991459911276e-05,"[9.99740512e-03 1.77046070e-13 0.00000000e+00 0.00000000e+00
 0.00000000e+00 4.57552003e-09 1.77046070e-13 9.99740068e-03
 0.00000000e+00 0.00000000e+00 0.00000000e+00 1.82212647e-13
 0.00000000e+00 0.00000000e+00 0.00000000e+00 0.00000000e+00
 0.00000000e+00 0.00000000e+00 0.00000000e+00 0.00000000e+00
 0.00000000e+00 0.00000000e+00 0.00000000e+00 0.00000000e+00
 0.00000000e+00 0.00000000e+00 0.00000000e+00 0.00000000e+00
 0.00000000e+00 0.00000000e+00 4.57552003e-09 1.82212647e-13
 0.00000000e+00 0.00000000e+00 0.00000000e+00 9.99749361e-03]","[[9.99740512e-06 1.77046070e-16 4.57552003e-12]
 [1.77046070e-16 9.99740068e-06 1.82212647e-16]
 [4.57552003e-12 1.82212647e-16 9.99749361e-06]]",[1.06467757e-05 1.43469872e-11 1.28731202e-05],0.0,0.0
1786957638.9674795,6.507198865919696e-06,-2.5669186894380774e-10,-2.3514537517144165e-07,"[9.99710573e-03 1.70102667e-13 0.00000000e+00 0.00000000e+00
 0.00000000e+00 5.03498430e-09 1.70102667e-13 9.99710084e-03
 0.00000000e+00 0.00000000e+00 0.00000000e+00 1.75066621e-13
 0.00000000e+00 0.00000000e+00 0.00000000e+00 0.00000000e+00
 0.00000000e+00 0.00000000e+00 0.00000000e+00 0.00000000e+00
 0.00000000e+00 0.00000000e+00 0.00000000e+00 0.00000000e+00
 0.00000000e+00 0.00000000e+00 0.00000000e+00 0.00000000e+00
 0.00000000e+00 0.00000000e+00 5.03498430e-09 1.75066621e-13
 0.00000000e+00 0.00000000e+00 0.00000000e+00 9.99720310e-03]","[[9.99710573e-06 1.70102667e-16 5.03498430e-12]
 [1.70102667e-16 9.99710084e-06 1.75066621e-16]
 [5.03498430e-12 1.75066621e-16 9.99720310e-06]]",[-6.50726392e-06  2.56694435e-10  2.35147726e-07],0.0,0.0
1786957639.0160456,6.507068761946507e-06,-2.566867367084002e-10,3.444388020534816e-05,"[9.99690615e-03 1.72649972e-13 0.00000000e+00 0.00000000e+00
 0.00000000e+00 5.34406936e-09 1.72649972e-13 9.99690096e-03
 0.00000000e+00 0.00000000e+00 0.00000000e+00 1.77688262e-13
 0.00000000e+00 0.00000000e+00 0.00000000e+00 0.00000000e+00
 0.00000000e+00 0.00000000e+00 0.00000000e+00 0.00000000e+00
 0.00000000e+00 0.00000000e+00 0.00000000e+00 0.00000000e+00
 0.00000000e+00 0.00000000e+00 0.00000000e+00 0.00000000e+00
 0.00000000e+00 0.00000000e+00 5.34406936e-09 1.77688262e-13
 0.00000000e+00 0.00000000e+00 0.00000000e+00 9.99700950e-03]","[[9.99690615e-06 1.72649972e-16 5.34406936e-12]
 [1.72649972e-16 9.99690096e-06 1.77688262e-16]
 [5.34406936e-12 1.77688262e-16 9.99700950e-06]]",[-6.50713381e-06  2.56689303e-10 -3.44442245e-05],0.0,0.0
1786957639.064152,6.506873615031837e-06,-2.5667903876445355e-10,7.325573984573452e-05,"[9.99660677e-03 1.94905869e-13 0.00000000e+00 0.00000000e+00
 0.00000000e+00 5.78089987e-09 1.94905869e-13 9.99660116e-03
 0.00000000e+00 0.00000000e+00 0.00000000e+00 2.00593633e-13
 0.00000000e+00 0.00000000e+00 0.00000000e+00 0.00000000e+00
 0.00000000e+00 0.00000000e+00 0.00000000e+00 0.00000000e+00
 0.00000000e+00 0.00000000e+00 0.00000000e+00 0.00000000e+00
 0.00000000e+00 0.00000000e+00 0.00000000e+00 0.00000000e+00
 0.00000000e+00 0.00000000e+00 5.78089987e-09 2.00593633e-13
 0.00000000e+00 0.00000000e+00 0.00000000e+00 9.99671857e-03]","[[9.99660677e-06 1.94905869e-16 5.78089987e-12]
 [1.94905869e-16 9.99660116e-06 2.00593633e-16]
 [5.78089987e-12 2.00593633e-16 9.99671857e-06]]",[-6.50693866e-06  2.56681605e-10 -7.32564722e-05],0.0,0.0
1786957639.1151388,6.506743523379959e-06,-2.566739070678236e-10,7.81304087067447e-05,"[9.99640722e-03 2.17669511e-13 0.00000000e+00 0.00000000e+00
 0.00000000e+00 6.09232427e-09 2.17669511e-13 9.99640130e-03
 0.00000000e+00 0.00000000e+00 0.00000000e+00 2.24021566e-13
 0.00000000e+00 0.00000000e+00 0.00000000e+00 0.00000000e+00
 0.00000000e+00 0.00000000e+00 0.00000000e+00 0.00000000e+00
 0.00000000e+00 0.00000000e+00 0.00000000e+00 0.00000000e+00
 0.00000000e+00 0.00000000e+00 0.00000000e+00 0.00000000e+00
 0.00000000e+00 0.00000000e+00 6.09232427e-09 2.24021566e-13
 0.00000000e+00 0.00000000e+00 0.00000000e+00 9.99652503e-03]","[[9.99640722e-06 2.17669511e-16 6.09232427e-12]
 [2.17669511e-16 9.99640130e-06 2.24021566e-16]
 [6.09232427e-12 2.24021566e-16 9.99652503e-06]]",[-6.50680857e-06  2.56676473e-10 -7.81311897e-05],0.0,0.0
1786957639.1641393,6.506548395601589e-06,-2.566662099134306e-10,6.834346395123703e-05,"[9.99610790e-03 2.53829238e-13 0.00000000e+00 0.00000000e+00
 0.00000000e+00 6.56369176e-09 2.53829238e-13 9.99610152e-03
 0.00000000e+00 0.00000000e+00 0.00000000e+00 2.61236510e-13
 0.00000000e+00 0.00000000e+00 0.00000000e+00 0.00000000e+00
 0.00000000e+00 0.00000000e+00 0.00000000e+00 0.00000000e+00
 0.00000000e+00 0.00000000e+00 0.00000000e+00 0.00000000e+00
 0.00000000e+00 0.00000000e+00 0.00000000e+00 0.00000000e+00
 0.00000000e+00 0.00000000e+00 6.56369176e-09 2.61236510e-13
 0.00000000e+00 0.00000000e+00 0.00000000e+00 9.99623483e-03]","[[9.99610790e-06 2.53829238e-16 6.56369176e-12]
 [2.53829238e-16 9.99610152e-06 2.61236510e-16]
 [6.56369176e-12 2.61236510e-16 9.99623483e-06]]",[-6.50661344e-06  2.56668776e-10 -6.83441471e-05],0.0,0.0
1786957639.2145734,6.506418317074936e-06,-2.5666107872919087e-10,6.071975828314535e-05,"[9.99590834e-03 2.71779621e-13 0.00000000e+00 0.00000000e+00
 0.00000000e+00 6.85721209e-09 2.71779621e-13 9.99590168e-03
 0.00000000e+00 0.00000000e+00 0.00000000e+00 2.79710723e-13
 0.00000000e+00 0.00000000e+00 0.00000000e+00 0.00000000e+00
 0.00000000e+00 0.00000000e+00 0.00000000e+00 0.00000000e+00
 0.00000000e+00 0.00000000e+00 0.00000000e+00 0.00000000e+00
 0.00000000e+00 0.00000000e+00 0.00000000e+00 0.00000000e+00
 0.00000000e+00 0.00000000e+00 6.85721209e-09 2.79710723e-13
 0.00000000e+00 0.00000000e+00 0.00000000e+00 9.99604095e-03]","[[9.99590834e-06 2.71779621e-16 6.85721209e-12]
 [2.71779621e-16 9.99590168e-06 2.79710723e-16]
 [6.85721209e-12 2.79710723e-16 9.99604095e-06]]",[-6.50648336e-06  2.56663644e-10 -6.07203652e-05],0.0,0.0
1786957639.264025,6.50622320924492e-06,-2.5665338233010673e-10,2.9359234730907954e-05,"[9.99560905e-03 2.97756965e-13 0.00000000e+00 0.00000000e+00
 0.00000000e+00 7.32556535e-09 2.97756965e-13 9.99560194e-03
 0.00000000e+00 0.00000000e+00 0.00000000e+00 3.06446140e-13
 0.00000000e+00 0.00000000e+00 0.00000000e+00 0.00000000e+00
 0.00000000e+00 0.00000000e+00 0.00000000e+00 0.00000000e+00
 0.00000000e+00 0.00000000e+00 0.00000000e+00 0.00000000e+00
 0.00000000e+00 0.00000000e+00 0.00000000e+00 0.00000000e+00
 0.00000000e+00 0.00000000e+00 7.32556535e-09 3.06446140e-13
 0.00000000e+00 0.00000000e+00 0.00000000e+00 9.99575072e-03]","[[9.99560905e-06 2.97756965e-16 7.32556535e-12]
 [2.97756965e-16 9.99560194e-06 3.06446140e-16]
 [7.32556535e-12 3.06446140e-16 9.99575072e-06]]",[-6.50628824e-06  2.56655948e-10 -2.93595282e-05],0.0,0.0
1786957639.3209672,6.506093144506077e-06,-2.56648251626935e-10,-9.734420447493617e-06,"[9.99540953e-03 3.04200429e-13 0.00000000e+00 0.00000000e+00
 0.00000000e+00 7.63195490e-09 3.04200429e-13 9.99540212e-03
 0.00000000e+00 0.00000000e+00 0.00000000e+00 3.13077638e-13
 0.00000000e+00 0.00000000e+00 0.00000000e+00 0.00000000e+00
 0.00000000e+00 0.00000000e+00 0.00000000e+00 0.00000000e+00
 0.00000000e+00 0.00000000e+00 0.00000000e+00 0.00000000e+00
 0.00000000e+00 0.00000000e+00 0.00000000e+00 0.00000000e+00
 0.00000000e+00 0.00000000e+00 7.63195490e-09 3.13077638e-13
 0.00000000e+00 0.00000000e+00 0.00000000e+00 9.99555712e-03]","[[9.99540953e-06 3.04200429e-16 7.63195490e-12]
 [3.04200429e-16 9.99540212e-06 3.13077638e-16]
 [7.63195490e-12 3.13077638e-16 9.99555712e-06]]",[-6.50615818e-06  2.56650817e-10  9.73451775e-06],0.0,0.0
1786957639.3700716,6.50596308572265e-06,-2.5664312109926394e-10,-5.7307116048122004e-05,"[9.99521005e-03 2.97731668e-13 0.00000000e+00 0.00000000e+00
 0.00000000e+00 7.97805902e-09 2.97731668e-13 9.99520230e-03
 0.00000000e+00 0.00000000e+00 0.00000000e+00 3.06420104e-13
 0.00000000e+00 0.00000000e+00 0.00000000e+00 0.00000000e+00
 0.00000000e+00 0.00000000e+00 0.00000000e+00 0.00000000e+00
 0.00000000e+00 0.00000000e+00 0.00000000e+00 0.00000000e+00
 0.00000000e+00 0.00000000e+00 0.00000000e+00 0.00000000e+00
 0.00000000e+00 0.00000000e+00 7.97805902e-09 3.06420104e-13
 0.00000000e+00 0.00000000e+00 0.00000000e+00 9.99536434e-03]","[[9.99521005e-06 2.97731668e-16 7.97805902e-12]
 [2.97731668e-16 9.99520230e-06 3.06420104e-16]
 [7.97805902e-12 3.06420104e-16 9.99536434e-06]]",[-6.50602811e-06  2.56645686e-10  5.73076889e-05],0.0,0.0
1786957639.4141092,6.505768008983505e-06,-2.566354256438457e-10,-0.00014513811116501071,"[9.99491089e-03 2.61963586e-13 0.00000000e+00 0.00000000e+00
 0.00000000e+00 8.53581125e-09 2.61963586e-13 9.99490260e-03
 0.00000000e+00 0.00000000e+00 0.00000000e+00 2.69608234e-13
 0.00000000e+00 0.00000000e+00 0.00000000e+00 0.00000000e+00
 0.00000000e+00 0.00000000e+00 0.00000000e+00 0.00000000e+00
 0.00000000e+00 0.00000000e+00 0.00000000e+00 0.00000000e+00
 0.00000000e+00 0.00000000e+00 0.00000000e+00 0.00000000e+00
 0.00000000e+00 0.00000000e+00 8.53581125e-09 2.69608234e-13
 0.00000000e+00 0.00000000e+00 0.00000000e+00 9.99507597e-03]","[[9.99491089e-06 2.61963586e-16 8.53581125e-12]
 [2.61963586e-16 9.99490260e-06 2.69608234e-16]
 [8.53581125e-12 2.69608234e-16 9.99507597e-06]]",[-6.50583303e-06  2.56637991e-10  1.45139562e-04],0.0,0.0
1786957639.4729657,6.505572948291419e-06,-2.5662773057401624e-10,-0.00031575896335178655,"[9.99461166e-03 1.69932680e-13 0.00000000e+00 0.00000000e+00
 0.00000000e+00 9.00592764e-09 1.69932680e-13 9.99460291e-03
 0.00000000e+00 0.00000000e+00 0.00000000e+00 1.74891671e-13
 0.00000000e+00 0.00000000e+00 0.00000000e+00 0.00000000e+00
 0.00000000e+00 0.00000000e+00 0.00000000e+00 0.00000000e+00
 0.00000000e+00 0.00000000e+00 0.00000000e+00 0.00000000e+00
 0.00000000e+00 0.00000000e+00 0.00000000e+00 0.00000000e+00
 0.00000000e+00 0.00000000e+00 9.00592764e-09 1.74891671e-13
 0.00000000e+00 0.00000000e+00 0.00000000e+00 9.99478583e-03]","[[9.99461166e-06 1.69932680e-16 9.00592764e-12]
 [1.69932680e-16 9.99460291e-06 1.74891671e-16]
 [9.00592764e-12 1.74891671e-16 9.99478583e-06]]",[-6.50563797e-06  2.56630296e-10  3.15762119e-04],0.0,0.0
1786957639.5143318,6.505442916735483e-06,-2.5662260082673067e-10,-0.0004117656532738324,"[9.99441222e-03 5.48860904e-14 0.00000000e+00 0.00000000e+00
 0.00000000e+00 9.35436539e-09 5.48860904e-14 9.99440313e-03
 0.00000000e+00 0.00000000e+00 0.00000000e+00 5.64877727e-14
 0.00000000e+00 0.00000000e+00 0.00000000e+00 0.00000000e+00
 0.00000000e+00 0.00000000e+00 0.00000000e+00 0.00000000e+00
 0.00000000e+00 0.00000000e+00 0.00000000e+00 0.00000000e+00
 0.00000000e+00 0.00000000e+00 0.00000000e+00 0.00000000e+00
 0.00000000e+00 0.00000000e+00 9.35436539e-09 5.64877727e-14
 0.00000000e+00 0.00000000e+00 0.00000000e+00 9.99459313e-03]","[[9.99441222e-06 5.48860904e-17 9.35436539e-12]
 [5.48860904e-17 9.99440313e-06 5.64877727e-17]
 [9.35436539e-12 5.64877727e-17 9.99459313e-06]]",[-6.50550793e-06  2.56625166e-10  4.11769769e-04],0.0,0.0
1786957639.5665243,6.505247882841825e-06,-2.5661490680351015e-10,-0.0005422830671646394,"[ 9.99411299e-03 -1.35147341e-13  0.00000000e+00  0.00000000e+00
  0.00000000e+00  9.78507758e-09 -1.35147341e-13  9.99410348e-03
  0.00000000e+00  0.00000000e+00  0.00000000e+00 -1.39091254e-13
  0.00000000e+00  0.00000000e+00  0.00000000e+00  0.00000000e+00
  0.00000000e+00  0.00000000e+00  0.00000000e+00  0.00000000e+00
  0.00000000e+00  0.00000000e+00  0.00000000e+00  0.00000000e+00
  0.00000000e+00  0.00000000e+00  0.00000000e+00  0.00000000e+00
  0.00000000e+00  0.00000000e+00  9.78507758e-09 -1.39091254e-13
  0.00000000e+00  0.00000000e+00  0.00000000e+00  9.99430222e-03]","[[ 9.99411299e-06 -1.35147341e-16  9.78507758e-12]
 [-1.35147341e-16  9.99410348e-06 -1.39091254e-16]
 [ 9.78507758e-12 -1.39091254e-16  9.99430222e-06]]",[-6.50531289e-06  2.56617471e-10  5.42288487e-04],0.0,0.0
1786957639.6170096,6.5051178692982065e-06,-2.5660977796026805e-10,-0.0006328863359468251,"[ 9.99391353e-03 -3.05710533e-13  0.00000000e+00  0.00000000e+00
  0.00000000e+00  1.00953278e-08 -3.05710533e-13  9.99390372e-03
  0.00000000e+00  0.00000000e+00  0.00000000e+00 -3.14631867e-13
  0.00000000e+00  0.00000000e+00  0.00000000e+00  0.00000000e+00
  0.00000000e+00  0.00000000e+00  0.00000000e+00  0.00000000e+00
  0.00000000e+00  0.00000000e+00  0.00000000e+00  0.00000000e+00
  0.00000000e+00  0.00000000e+00  0.00000000e+00  0.00000000e+00
  0.00000000e+00  0.00000000e+00  1.00953278e-08 -3.14631867e-13
  0.00000000e+00  0.00000000e+00  0.00000000e+00  9.99410876e-03]","[[ 9.99391353e-06 -3.05710533e-16  1.00953278e-11]
 [-3.05710533e-16  9.99390372e-06 -3.14631867e-16]
 [ 1.00953278e-11 -3.14631867e-16  9.99410876e-06]]",[-6.50518288e-06  2.56612342e-10  6.32892661e-04],0.0,0.0
1786957639.6645033,6.504922859186148e-06,-2.566020855003345e-10,-0.0005231029409880071,"[ 9.99361438e-03 -6.08322248e-13  0.00000000e+00  0.00000000e+00
  0.00000000e+00  1.05844860e-08 -6.08322248e-13  9.99360409e-03
  0.00000000e+00  0.00000000e+00  0.00000000e+00 -6.26074491e-13
  0.00000000e+00  0.00000000e+00  0.00000000e+00  0.00000000e+00
  0.00000000e+00  0.00000000e+00  0.00000000e+00  0.00000000e+00
  0.00000000e+00  0.00000000e+00  0.00000000e+00  0.00000000e+00
  0.00000000e+00  0.00000000e+00  0.00000000e+00  0.00000000e+00
  0.00000000e+00  0.00000000e+00  1.05844860e-08 -6.26074491e-13
  0.00000000e+00  0.00000000e+00  0.00000000e+00  9.99381907e-03]","[[ 9.99361438e-06 -6.08322248e-16  1.05844860e-11]
 [-6.08322248e-16  9.99360409e-06 -6.26074491e-16]
 [ 1.05844860e-11 -6.26074491e-16  9.99381907e-06]]",[-6.50498786e-06  2.56604650e-10  5.23108169e-04],0.0,0.0
1786957639.7163088,6.504792856392692e-06,-2.5659695751380494e-10,-0.00047387781257546285,"[ 9.99341492e-03 -7.46149026e-13  0.00000000e+00  0.00000000e+00
  0.00000000e+00  1.08760961e-08 -7.46149026e-13  9.99340435e-03
  0.00000000e+00  0.00000000e+00  0.00000000e+00 -7.67923360e-13
  0.00000000e+00  0.00000000e+00  0.00000000e+00  0.00000000e+00
  0.00000000e+00  0.00000000e+00  0.00000000e+00  0.00000000e+00
  0.00000000e+00  0.00000000e+00  0.00000000e+00  0.00000000e+00
  0.00000000e+00  0.00000000e+00  0.00000000e+00  0.00000000e+00
  0.00000000e+00  0.00000000e+00  1.08760961e-08 -7.67923360e-13
  0.00000000e+00  0.00000000e+00  0.00000000e+00  9.99362525e-03]","[[ 9.99341492e-06 -7.46149026e-16  1.08760961e-11]
 [-7.46149026e-16  9.99340435e-06 -7.67923360e-16]
 [ 1.08760961e-11 -7.67923360e-16  9.99362525e-06]]",[-6.50485786e-06  2.56599521e-10  4.73882548e-04],0.0,0.0
1786957639.7659142,6.504597863945416e-06,-2.5658926628590683e-10,-0.0005055079575000399,"[ 9.99311576e-03 -9.64081250e-13  0.00000000e+00  0.00000000e+00
  0.00000000e+00  1.13269775e-08 -9.64081250e-13  9.99310476e-03
  0.00000000e+00  0.00000000e+00  0.00000000e+00 -9.92215332e-13
  0.00000000e+00  0.00000000e+00  0.00000000e+00  0.00000000e+00
  0.00000000e+00  0.00000000e+00  0.00000000e+00  0.00000000e+00
  0.00000000e+00  0.00000000e+00  0.00000000e+00  0.00000000e+00
  0.00000000e+00  0.00000000e+00  0.00000000e+00  0.00000000e+00
  0.00000000e+00  0.00000000e+00  1.13269775e-08 -9.92215332e-13
  0.00000000e+00  0.00000000e+00  0.00000000e+00  9.99333481e-03]","[[ 9.99311576e-06 -9.64081250e-16  1.13269775e-11]
 [-9.64081250e-16  9.99310476e-06 -9.92215332e-16]
 [ 1.13269775e-11 -9.92215332e-16  9.99333481e-06]]",[-6.50466286e-06  2.56591830e-10  5.05513009e-04],0.0,0.0
1786957639.814239,6.504467876509121e-06,-2.5658413932292624e-10,-0.000576572328724545,"[ 9.99291637e-03 -1.12589331e-12  0.00000000e+00  0.00000000e+00
  0.00000000e+00  1.16609179e-08 -1.12589331e-12  9.99290504e-03
  0.00000000e+00  0.00000000e+00  0.00000000e+00 -1.15874943e-12
  0.00000000e+00  0.00000000e+00  0.00000000e+00  0.00000000e+00
  0.00000000e+00  0.00000000e+00  0.00000000e+00  0.00000000e+00
  0.00000000e+00  0.00000000e+00  0.00000000e+00  0.00000000e+00
  0.00000000e+00  0.00000000e+00  0.00000000e+00  0.00000000e+00
  0.00000000e+00  0.00000000e+00  1.16609179e-08 -1.15874943e-12
  0.00000000e+00  0.00000000e+00  0.00000000e+00  9.99314188e-03]","[[ 9.99291637e-06 -1.12589331e-15  1.16609179e-11]
 [-1.12589331e-15  9.99290504e-06 -1.15874943e-15]
 [ 1.16609179e-11 -1.15874943e-15  9.99314188e-06]]",[-6.50453287e-06  2.56586703e-10  5.76578091e-04],0.0,0.0
1786957639.8644667,6.504272912217484e-06,-2.5657645036037267e-10,-0.0007743718639958707,"[ 9.99261723e-03 -1.40085694e-12  0.00000000e+00  0.00000000e+00
  0.00000000e+00  1.20972894e-08 -1.40085694e-12  9.99260547e-03
  0.00000000e+00  0.00000000e+00  0.00000000e+00 -1.44173714e-12
  0.00000000e+00  0.00000000e+00  0.00000000e+00  0.00000000e+00
  0.00000000e+00  0.00000000e+00  0.00000000e+00  0.00000000e+00
  0.00000000e+00  0.00000000e+00  0.00000000e+00  0.00000000e+00
  0.00000000e+00  0.00000000e+00  0.00000000e+00  0.00000000e+00
  0.00000000e+00  0.00000000e+00  1.20972894e-08 -1.44173714e-12
  0.00000000e+00  0.00000000e+00  0.00000000e+00  9.99285117e-03]","[[ 9.99261723e-06 -1.40085694e-15  1.20972894e-11]
 [-1.40085694e-15  9.99260547e-06 -1.44173714e-15]
 [ 1.20972894e-11 -1.44173714e-15  9.99285117e-06]]",[-6.50433790e-06  2.56579013e-10  7.74379602e-04],0.0,0.0
1786957639.9189606,6.504142947200423e-06,-2.565713255861335e-10,-0.0009330333419961255,"[ 9.99241782e-03 -1.64030439e-12  0.00000000e+00  0.00000000e+00
  0.00000000e+00  1.24029745e-08 -1.64030439e-12  9.99240577e-03
  0.00000000e+00  0.00000000e+00  0.00000000e+00 -1.68817225e-12
  0.00000000e+00  0.00000000e+00  0.00000000e+00  0.00000000e+00
  0.00000000e+00  0.00000000e+00  0.00000000e+00  0.00000000e+00
  0.00000000e+00  0.00000000e+00  0.00000000e+00  0.00000000e+00
  0.00000000e+00  0.00000000e+00  0.00000000e+00  0.00000000e+00
  0.00000000e+00  0.00000000e+00  1.24029745e-08 -1.68817225e-12
  0.00000000e+00  0.00000000e+00  0.00000000e+00  9.99265768e-03]","[[ 9.99241782e-06 -1.64030439e-15  1.24029745e-11]
 [-1.64030439e-15  9.99240577e-06 -1.68817225e-15]
 [ 1.24029745e-11 -1.68817225e-15  9.99265768e-06]]",[-6.50420793e-06  2.56573888e-10  9.33042666e-04],0.0,0.0
1786957639.965073,6.50394801606355e-06,-2.5656364065526816e-10,-0.0010325202733687533,"[ 9.99211874e-03 -2.09141689e-12  0.00000000e+00  0.00000000e+00
  0.00000000e+00  1.28673494e-08 -2.09141689e-12  9.99210624e-03
  0.00000000e+00  0.00000000e+00  0.00000000e+00 -2.15244939e-12
  0.00000000e+00  0.00000000e+00  0.00000000e+00  0.00000000e+00
  0.00000000e+00  0.00000000e+00  0.00000000e+00  0.00000000e+00
  0.00000000e+00  0.00000000e+00  0.00000000e+00  0.00000000e+00
  0.00000000e+00  0.00000000e+00  0.00000000e+00  0.00000000e+00
  0.00000000e+00  0.00000000e+00  1.28673494e-08 -2.15244939e-12
  0.00000000e+00  0.00000000e+00  0.00000000e+00  9.99236758e-03]","[[ 9.99211874e-06 -2.09141689e-15  1.28673494e-11]
 [-2.09141689e-15  9.99210624e-06 -2.15244939e-15]
 [ 1.28673494e-11 -2.15244939e-15  9.99236758e-06]]",[-6.50401299e-06  2.56566202e-10  1.03253059e-03],0.0,0.0
1786957640.017406,6.503818069279265e-06,-2.565585184468145e-10,-0.0010331884588992148,"[ 9.99191936e-03 -2.39993353e-12  0.00000000e+00  0.00000000e+00
  0.00000000e+00  1.31743883e-08 -2.39993353e-12  9.99190656e-03
  0.00000000e+00  0.00000000e+00  0.00000000e+00 -2.46996936e-12
  0.00000000e+00  0.00000000e+00  0.00000000e+00  0.00000000e+00
  0.00000000e+00  0.00000000e+00  0.00000000e+00  0.00000000e+00
  0.00000000e+00  0.00000000e+00  0.00000000e+00  0.00000000e+00
  0.00000000e+00  0.00000000e+00  0.00000000e+00  0.00000000e+00
  0.00000000e+00  0.00000000e+00  1.31743883e-08 -2.46996936e-12
  0.00000000e+00  0.00000000e+00  0.00000000e+00  9.99217413e-03]","[[ 9.99191936e-06 -2.39993353e-15  1.31743883e-11]
 [-2.39993353e-15  9.99190656e-06 -2.46996936e-15]
 [ 1.31743883e-11 -2.46996936e-15  9.99217413e-06]]",[-6.50388304e-06  2.56561079e-10  1.03319878e-03],0.0,0.0
1786957640.0655525,6.5036231563102025e-06,-2.5655083605693024e-10,-0.0009207214261048868,"[ 9.99162036e-03 -2.89993648e-12  0.00000000e+00  0.00000000e+00
  0.00000000e+00  1.36989167e-08 -2.89993648e-12  9.99160705e-03
  0.00000000e+00  0.00000000e+00  0.00000000e+00 -2.98456369e-12
  0.00000000e+00  0.00000000e+00  0.00000000e+00  0.00000000e+00
  0.00000000e+00  0.00000000e+00  0.00000000e+00  0.00000000e+00
  0.00000000e+00  0.00000000e+00  0.00000000e+00  0.00000000e+00
  0.00000000e+00  0.00000000e+00  0.00000000e+00  0.00000000e+00
  0.00000000e+00  0.00000000e+00  1.36989167e-08 -2.98456369e-12
  0.00000000e+00  0.00000000e+00  0.00000000e+00  9.99188528e-03]","[[ 9.99162036e-06 -2.89993648e-15  1.36989167e-11]
 [-2.89993648e-15  9.99160705e-06 -2.98456369e-15]
 [ 1.36989167e-11 -2.98456369e-15  9.99188528e-06]]",[-6.50368813e-06  2.56553397e-10  9.20730626e-04],0.0,0.0
1786957640.1149771,6.503493220430474e-06,-2.5654571508526696e-10,-0.0008760476661824335,"[ 9.99142096e-03 -3.13964486e-12  0.00000000e+00  0.00000000e+00
  0.00000000e+00  1.39657634e-08 -3.13964486e-12  9.99140739e-03
  0.00000000e+00  0.00000000e+00  0.00000000e+00 -3.23126737e-12
  0.00000000e+00  0.00000000e+00  0.00000000e+00  0.00000000e+00
  0.00000000e+00  0.00000000e+00  0.00000000e+00  0.00000000e+00
  0.00000000e+00  0.00000000e+00  0.00000000e+00  0.00000000e+00
  0.00000000e+00  0.00000000e+00  0.00000000e+00  0.00000000e+00
  0.00000000e+00  0.00000000e+00  1.39657634e-08 -3.23126737e-12
  0.00000000e+00  0.00000000e+00  0.00000000e+00  9.99169104e-03]","[[ 9.99142096e-06 -3.13964486e-15  1.39657634e-11]
 [-3.13964486e-15  9.99140739e-06 -3.23126737e-15]
 [ 1.39657634e-11 -3.23126737e-15  9.99169104e-06]]",[-6.50355819e-06  2.56548276e-10  8.76056419e-04],0.0,0.0
1786957640.1663105,6.503298322748253e-06,-2.5653803382309255e-10,-0.0007560772560593066,"[ 9.99112205e-03 -3.60608569e-12  0.00000000e+00  0.00000000e+00
  0.00000000e+00  1.45508533e-08 -3.60608569e-12  9.99110791e-03
  0.00000000e+00  0.00000000e+00  0.00000000e+00 -3.71132009e-12
  0.00000000e+00  0.00000000e+00  0.00000000e+00  0.00000000e+00
  0.00000000e+00  0.00000000e+00  0.00000000e+00  0.00000000e+00
  0.00000000e+00  0.00000000e+00  0.00000000e+00  0.00000000e+00
  0.00000000e+00  0.00000000e+00  0.00000000e+00  0.00000000e+00
  0.00000000e+00  0.00000000e+00  1.45508533e-08 -3.71132009e-12
  0.00000000e+00  0.00000000e+00  0.00000000e+00  9.99140345e-03]","[[ 9.99112205e-06 -3.60608569e-15  1.45508533e-11]
 [-3.60608569e-15  9.99110791e-06 -3.71132009e-15]
 [ 1.45508533e-11 -3.71132009e-15  9.99140345e-06]]",[-6.50336329e-06  2.56540594e-10  7.56084810e-04],0.0,0.0
1786957640.2189593,6.503168396319761e-06,-2.5653291328914916e-10,-0.0007213614847780825,"[ 9.99092263e-03 -3.76816735e-12  0.00000000e+00  0.00000000e+00
  0.00000000e+00  1.47730989e-08 -3.76816735e-12  9.99090827e-03
  0.00000000e+00  0.00000000e+00  0.00000000e+00 -3.87813167e-12
  0.00000000e+00  0.00000000e+00  0.00000000e+00  0.00000000e+00
  0.00000000e+00  0.00000000e+00  0.00000000e+00  0.00000000e+00
  0.00000000e+00  0.00000000e+00  0.00000000e+00  0.00000000e+00
  0.00000000e+00  0.00000000e+00  0.00000000e+00  0.00000000e+00
  0.00000000e+00  0.00000000e+00  1.47730989e-08 -3.87813167e-12
  0.00000000e+00  0.00000000e+00  0.00000000e+00  9.99120832e-03]","[[ 9.99092263e-06 -3.76816735e-15  1.47730989e-11]
 [-3.76816735e-15  9.99090827e-06 -3.87813167e-15]
 [ 1.47730989e-11 -3.87813167e-15  9.99120832e-06]]",[-6.50323336e-06  2.56535474e-10  7.21368692e-04],0.0,0.0
1786957640.2648385,6.502973520754296e-06,-2.565252344714674e-10,-0.0008560387522011937,"[ 9.99062364e-03 -4.11121615e-12  0.00000000e+00  0.00000000e+00
  0.00000000e+00  1.52459222e-08 -4.11121615e-12  9.99060883e-03
  0.00000000e+00  0.00000000e+00  0.00000000e+00 -4.23119146e-12
  0.00000000e+00  0.00000000e+00  0.00000000e+00  0.00000000e+00
  0.00000000e+00  0.00000000e+00  0.00000000e+00  0.00000000e+00
  0.00000000e+00  0.00000000e+00  0.00000000e+00  0.00000000e+00
  0.00000000e+00  0.00000000e+00  0.00000000e+00  0.00000000e+00
  0.00000000e+00  0.00000000e+00  1.52459222e-08 -4.23119146e-12
  0.00000000e+00  0.00000000e+00  0.00000000e+00  9.99091848e-03]","[[ 9.99062364e-06 -4.11121615e-15  1.52459222e-11]
 [-4.11121615e-15  9.99060883e-06 -4.23119146e-15]
 [ 1.52459222e-11 -4.23119146e-15  9.99091848e-06]]",[-6.50303848e-06  2.56527794e-10  8.56047305e-04],0.0,0.0
1786957640.3183901,6.5028436151601216e-06,-2.56520117230978e-10,-0.0009786269974929598,"[ 9.99042431e-03 -4.36980579e-12  0.00000000e+00  0.00000000e+00
  0.00000000e+00  1.55456317e-08 -4.36980579e-12  9.99040921e-03
  0.00000000e+00  0.00000000e+00  0.00000000e+00 -4.49732738e-12
  0.00000000e+00  0.00000000e+00  0.00000000e+00  0.00000000e+00
  0.00000000e+00  0.00000000e+00  0.00000000e+00  0.00000000e+00
  0.00000000e+00  0.00000000e+00  0.00000000e+00  0.00000000e+00
  0.00000000e+00  0.00000000e+00  0.00000000e+00  0.00000000e+00
  0.00000000e+00  0.00000000e+00  1.55456317e-08 -4.49732738e-12
  0.00000000e+00  0.00000000e+00  0.00000000e+00  9.99072495e-03]","[[ 9.99042431e-06 -4.36980579e-15  1.55456317e-11]
 [-4.36980579e-15  9.99040921e-06 -4.49732738e-15]
 [ 1.55456317e-11 -4.49732738e-15  9.99072495e-06]]",[-6.50290857e-06  2.56522676e-10  9.78636775e-04],0.0,0.0
1786957640.375324,6.502648772629657e-06,-2.565124444630448e-10,-0.00108406465893518,"[ 9.99012544e-03 -4.92884038e-12  0.00000000e+00  0.00000000e+00
  0.00000000e+00  1.61090351e-08 -4.92884038e-12  9.99010979e-03
  0.00000000e+00  0.00000000e+00  0.00000000e+00 -5.07267607e-12
  0.00000000e+00  0.00000000e+00  0.00000000e+00  0.00000000e+00
  0.00000000e+00  0.00000000e+00  0.00000000e+00  0.00000000e+00
  0.00000000e+00  0.00000000e+00  0.00000000e+00  0.00000000e+00
  0.00000000e+00  0.00000000e+00  0.00000000e+00  0.00000000e+00
  0.00000000e+00  0.00000000e+00  1.61090351e-08 -5.07267607e-12
  0.00000000e+00  0.00000000e+00  0.00000000e+00  9.99043697e-03]","[[ 9.99012544e-06 -4.92884038e-15  1.61090351e-11]
 [-4.92884038e-15  9.99010979e-06 -5.07267607e-15]
 [ 1.61090351e-11 -5.07267607e-15  9.99043697e-06]]",[-6.50271372e-06  2.56515002e-10  1.08407549e-03],0.0,0.0
1786957640.4156873,6.502518886193023e-06,-2.5650733081523046e-10,-0.0010729367628279363,"[ 9.98992606e-03 -5.16908830e-12  0.00000000e+00  0.00000000e+00
  0.00000000e+00  1.63346823e-08 -5.16908830e-12  9.98991019e-03
  0.00000000e+00  0.00000000e+00  0.00000000e+00 -5.31993508e-12
  0.00000000e+00  0.00000000e+00  0.00000000e+00  0.00000000e+00
  0.00000000e+00  0.00000000e+00  0.00000000e+00  0.00000000e+00
  0.00000000e+00  0.00000000e+00  0.00000000e+00  0.00000000e+00
  0.00000000e+00  0.00000000e+00  0.00000000e+00  0.00000000e+00
  0.00000000e+00  0.00000000e+00  1.63346823e-08 -5.31993508e-12
  0.00000000e+00  0.00000000e+00  0.00000000e+00  9.99024196e-03]","[[ 9.98992606e-06 -5.16908830e-15  1.63346823e-11]
 [-5.16908830e-15  9.98991019e-06 -5.31993508e-15]
 [ 1.63346823e-11 -5.31993508e-15  9.99024196e-06]]",[-6.50258383e-06  2.56509888e-10  1.07294748e-03],0.0,0.0
1786957640.464848,6.502324062335881e-06,-2.5649966025542337e-10,-0.0009613533057519776,"[ 9.98962713e-03 -5.63671032e-12  0.00000000e+00  0.00000000e+00
  0.00000000e+00  1.68010999e-08 -5.63671032e-12  9.98961080e-03
  0.00000000e+00  0.00000000e+00  0.00000000e+00 -5.80120355e-12
  0.00000000e+00  0.00000000e+00  0.00000000e+00  0.00000000e+00
  0.00000000e+00  0.00000000e+00  0.00000000e+00  0.00000000e+00
  0.00000000e+00  0.00000000e+00  0.00000000e+00  0.00000000e+00
  0.00000000e+00  0.00000000e+00  0.00000000e+00  0.00000000e+00
  0.00000000e+00  0.00000000e+00  1.68010999e-08 -5.80120355e-12
  0.00000000e+00  0.00000000e+00  0.00000000e+00  9.98995204e-03]","[[ 9.98962713e-06 -5.63671032e-15  1.68010999e-11]
 [-5.63671032e-15  9.98961080e-06 -5.80120355e-15]
 [ 1.68010999e-11 -5.80120355e-15  9.98995204e-06]]",[-6.50238900e-06  2.56502217e-10  9.61362910e-04],0.0,0.0
1786957640.5158315,6.502194183141515e-06,-2.5649454614624666e-10,-0.0008084550492775123,"[ 9.98942784e-03 -5.91462667e-12  0.00000000e+00  0.00000000e+00
  0.00000000e+00  1.71010893e-08 -5.91462667e-12  9.98941122e-03
  0.00000000e+00  0.00000000e+00  0.00000000e+00 -6.08723020e-12
  0.00000000e+00  0.00000000e+00  0.00000000e+00  0.00000000e+00
  0.00000000e+00  0.00000000e+00  0.00000000e+00  0.00000000e+00
  0.00000000e+00  0.00000000e+00  0.00000000e+00  0.00000000e+00
  0.00000000e+00  0.00000000e+00  0.00000000e+00  0.00000000e+00
  0.00000000e+00  0.00000000e+00  1.71010893e-08 -6.08723020e-12
  0.00000000e+00  0.00000000e+00  0.00000000e+00  9.98975855e-03]","[[ 9.98942784e-06 -5.91462667e-15  1.71010893e-11]
 [-5.91462667e-15  9.98941122e-06 -6.08723020e-15]
 [ 1.71010893e-11 -6.08723020e-15  9.98975855e-06]]",[-6.50225912e-06  2.56497104e-10  8.08463126e-04],0.0,0.0
1786957640.5641353,6.501999356856318e-06,-2.564868695479752e-10,-0.00041312736422938206,"[ 9.98912895e-03 -6.23083053e-12  0.00000000e+00  0.00000000e+00
  0.00000000e+00  1.75761626e-08 -6.23083053e-12  9.98911187e-03
  0.00000000e+00  0.00000000e+00  0.00000000e+00 -6.41266163e-12
  0.00000000e+00  0.00000000e+00  0.00000000e+00  0.00000000e+00
  0.00000000e+00  0.00000000e+00  0.00000000e+00  0.00000000e+00
  0.00000000e+00  0.00000000e+00  0.00000000e+00  0.00000000e+00
  0.00000000e+00  0.00000000e+00  0.00000000e+00  0.00000000e+00
  0.00000000e+00  0.00000000e+00  1.75761626e-08 -6.41266163e-12
  0.00000000e+00  0.00000000e+00  0.00000000e+00  9.98946885e-03]","[[ 9.98912895e-06 -6.23083053e-15  1.75761626e-11]
 [-6.23083053e-15  9.98911187e-06 -6.41266163e-15]
 [ 1.75761626e-11 -6.41266163e-15  9.98946885e-06]]",[-6.50206430e-06  2.56489429e-10  4.13131491e-04],0.0,0.0
1786957640.6145074,6.501869471006237e-06,-2.5648174913098506e-10,-0.00027294780414521824,"[ 9.98892968e-03 -6.33693366e-12  0.00000000e+00  0.00000000e+00
  0.00000000e+00  1.78828400e-08 -6.33693366e-12  9.98891231e-03
  0.00000000e+00  0.00000000e+00  0.00000000e+00 -6.52186107e-12
  0.00000000e+00  0.00000000e+00  0.00000000e+00  0.00000000e+00
  0.00000000e+00  0.00000000e+00  0.00000000e+00  0.00000000e+00
  0.00000000e+00  0.00000000e+00  0.00000000e+00  0.00000000e+00
  0.00000000e+00  0.00000000e+00  0.00000000e+00  0.00000000e+00
  0.00000000e+00  0.00000000e+00  1.78828400e-08 -6.52186107e-12
  0.00000000e+00  0.00000000e+00  0.00000000e+00  9.98927552e-03]","[[ 9.98892968e-06 -6.33693366e-15  1.78828400e-11]
 [-6.33693366e-15  9.98891231e-06 -6.52186107e-15]
 [ 1.78828400e-11 -6.52186107e-15  9.98927552e-06]]",[-6.50193441e-06  2.56484309e-10  2.72950531e-04],0.0,0.0
1786957640.6649215,6.501674650295424e-06,-2.564740682508602e-10,-0.00028231760414865203,"[ 9.98863081e-03 -6.44906507e-12  0.00000000e+00  0.00000000e+00
  0.00000000e+00  1.83481653e-08 -6.44906507e-12  9.98861298e-03
  0.00000000e+00  0.00000000e+00  0.00000000e+00 -6.63726471e-12
  0.00000000e+00  0.00000000e+00  0.00000000e+00  0.00000000e+00
  0.00000000e+00  0.00000000e+00  0.00000000e+00  0.00000000e+00
  0.00000000e+00  0.00000000e+00  0.00000000e+00  0.00000000e+00
  0.00000000e+00  0.00000000e+00  0.00000000e+00  0.00000000e+00
  0.00000000e+00  0.00000000e+00  1.83481653e-08 -6.63726471e-12
  0.00000000e+00  0.00000000e+00  0.00000000e+00  9.98898564e-03]","[[ 9.98863081e-06 -6.44906507e-15  1.83481653e-11]
 [-6.44906507e-15  9.98861298e-06 -6.63726471e-15]
 [ 1.83481653e-11 -6.63726471e-15  9.98898564e-06]]",[-6.50173959e-06  2.56476628e-10  2.82320424e-04],0.0,0.0
1786957640.714044,6.501544780322358e-06,-2.5646894935389483e-10,-0.0003567044624381844,"[ 9.98843157e-03 -6.54553406e-12  0.00000000e+00  0.00000000e+00
  0.00000000e+00  1.86631793e-08 -6.54553406e-12  9.98841344e-03
  0.00000000e+00  0.00000000e+00  0.00000000e+00 -6.73654887e-12
  0.00000000e+00  0.00000000e+00  0.00000000e+00  0.00000000e+00
  0.00000000e+00  0.00000000e+00  0.00000000e+00  0.00000000e+00
  0.00000000e+00  0.00000000e+00  0.00000000e+00  0.00000000e+00
  0.00000000e+00  0.00000000e+00  0.00000000e+00  0.00000000e+00
  0.00000000e+00  0.00000000e+00  1.86631793e-08 -6.73654887e-12
  0.00000000e+00  0.00000000e+00  0.00000000e+00  9.98879250e-03]","[[ 9.98843157e-06 -6.54553406e-15  1.86631793e-11]
 [-6.54553406e-15  9.98841344e-06 -6.73654887e-15]
 [ 1.86631793e-11 -6.73654887e-15  9.98879250e-06]]",[-6.50160971e-06  2.56471509e-10  3.56708026e-04],0.0,0.0
1786957640.76463,6.501349986704767e-06,-2.564612719737689e-10,-0.00038010490063378194,"[ 9.98813273e-03 -6.70978127e-12  0.00000000e+00  0.00000000e+00
  0.00000000e+00  1.91255517e-08 -6.70978127e-12  9.98811414e-03
  0.00000000e+00  0.00000000e+00  0.00000000e+00 -6.90558917e-12
  0.00000000e+00  0.00000000e+00  0.00000000e+00  0.00000000e+00
  0.00000000e+00  0.00000000e+00  0.00000000e+00  0.00000000e+00
  0.00000000e+00  0.00000000e+00  0.00000000e+00  0.00000000e+00
  0.00000000e+00  0.00000000e+00  0.00000000e+00  0.00000000e+00
  0.00000000e+00  0.00000000e+00  1.91255517e-08 -6.90558917e-12
  0.00000000e+00  0.00000000e+00  0.00000000e+00  9.98850259e-03]","[[ 9.98813273e-06 -6.70978127e-15  1.91255517e-11]
 [-6.70978127e-15  9.98811414e-06 -6.90558917e-15]
 [ 1.91255517e-11 -6.90558917e-15  9.98850259e-06]]",[-6.50141492e-06  2.56463831e-10  3.80108697e-04],0.0,0.0
1786957640.8169446,6.501220131062193e-06,-2.564561540831544e-10,-0.0003614289758542278,"[ 9.98793351e-03 -6.82661513e-12  0.00000000e+00  0.00000000e+00
  0.00000000e+00  1.94394929e-08 -6.82661513e-12  9.98791462e-03
  0.00000000e+00  0.00000000e+00  0.00000000e+00 -7.02583249e-12
  0.00000000e+00  0.00000000e+00  0.00000000e+00  0.00000000e+00
  0.00000000e+00  0.00000000e+00  0.00000000e+00  0.00000000e+00
  0.00000000e+00  0.00000000e+00  0.00000000e+00  0.00000000e+00
  0.00000000e+00  0.00000000e+00  0.00000000e+00  0.00000000e+00
  0.00000000e+00  0.00000000e+00  1.94394929e-08 -7.02583249e-12
  0.00000000e+00  0.00000000e+00  0.00000000e+00  9.98830945e-03]","[[ 9.98793351e-06 -6.82661513e-15  1.94394929e-11]
 [-6.82661513e-15  9.98791462e-06 -7.02583249e-15]
 [ 1.94394929e-11 -7.02583249e-15  9.98830945e-06]]",[-6.50128506e-06  2.56458713e-10  3.61432586e-04],0.0,0.0
1786957640.8658597,6.501025353665125e-06,-2.564484763061514e-10,-0.00027223499003259377,"[ 9.98763470e-03 -6.97932977e-12  0.00000000e+00  0.00000000e+00
  0.00000000e+00  1.99054109e-08 -6.97932977e-12  9.98761536e-03
  0.00000000e+00  0.00000000e+00  0.00000000e+00 -7.18300366e-12
  0.00000000e+00  0.00000000e+00  0.00000000e+00  0.00000000e+00
  0.00000000e+00  0.00000000e+00  0.00000000e+00  0.00000000e+00
  0.00000000e+00  0.00000000e+00  0.00000000e+00  0.00000000e+00
  0.00000000e+00  0.00000000e+00  0.00000000e+00  0.00000000e+00
  0.00000000e+00  0.00000000e+00  1.99054109e-08 -7.18300366e-12
  0.00000000e+00  0.00000000e+00  0.00000000e+00  9.98801964e-03]","[[ 9.98763470e-06 -6.97932977e-15  1.99054109e-11]
 [-6.97932977e-15  9.98761536e-06 -7.18300366e-15]
 [ 1.99054109e-11 -7.18300366e-15  9.98801964e-06]]",[-6.50109028e-06  2.56451036e-10  2.72237709e-04],0.0,0.0
1786957640.9154372,6.500895503028629e-06,-2.5644335604046407e-10,-8.707354162806878e-05,"[ 9.98743551e-03 -7.05901301e-12  0.00000000e+00  0.00000000e+00
  0.00000000e+00  2.02270572e-08 -7.05901301e-12  9.98741586e-03
  0.00000000e+00  0.00000000e+00  0.00000000e+00 -7.26501223e-12
  0.00000000e+00  0.00000000e+00  0.00000000e+00  0.00000000e+00
  0.00000000e+00  0.00000000e+00  0.00000000e+00  0.00000000e+00
  0.00000000e+00  0.00000000e+00  0.00000000e+00  0.00000000e+00
  0.00000000e+00  0.00000000e+00  0.00000000e+00  0.00000000e+00
  0.00000000e+00  0.00000000e+00  2.02270572e-08 -7.26501223e-12
  0.00000000e+00  0.00000000e+00  0.00000000e+00  9.98782668e-03]","[[ 9.98743551e-06 -7.05901301e-15  2.02270572e-11]
 [-7.05901301e-15  9.98741586e-06 -7.26501223e-15]
 [ 2.02270572e-11 -7.26501223e-15  9.98782668e-06]]",[-6.50096043e-06  2.56445917e-10  8.70744113e-05],0.0,0.0
1786957640.9652066,6.500700716204583e-06,-2.5643566869907846e-10,0.000259524745034767,"[ 9.98713672e-03 -7.02925595e-12  0.00000000e+00  0.00000000e+00
  0.00000000e+00  2.06876995e-08 -7.02925595e-12  9.98711662e-03
  0.00000000e+00  0.00000000e+00  0.00000000e+00 -7.23438677e-12
  0.00000000e+00  0.00000000e+00  0.00000000e+00  0.00000000e+00
  0.00000000e+00  0.00000000e+00  0.00000000e+00  0.00000000e+00
  0.00000000e+00  0.00000000e+00  0.00000000e+00  0.00000000e+00
  0.00000000e+00  0.00000000e+00  0.00000000e+00  0.00000000e+00
  0.00000000e+00  0.00000000e+00  2.06876995e-08 -7.23438677e-12
  0.00000000e+00  0.00000000e+00  0.00000000e+00  9.98753680e-03]","[[ 9.98713672e-06 -7.02925595e-15  2.06876995e-11]
 [-7.02925595e-15  9.98711662e-06 -7.23438677e-15]
 [ 2.06876995e-11 -7.23438677e-15  9.98753680e-06]]",[-6.50076565e-06  2.56438232e-10 -2.59527337e-04],0.0,0.0
1786957641.0148,6.500570859190698e-06,-2.5643054220165146e-10,0.00030722296038065977,"[ 9.98693752e-03 -6.94868045e-12  0.00000000e+00  0.00000000e+00
  0.00000000e+00  2.09785950e-08 -6.94868045e-12  9.98691714e-03
  0.00000000e+00  0.00000000e+00  0.00000000e+00 -7.15145991e-12
  0.00000000e+00  0.00000000e+00  0.00000000e+00  0.00000000e+00
  0.00000000e+00  0.00000000e+00  0.00000000e+00  0.00000000e+00
  0.00000000e+00  0.00000000e+00  0.00000000e+00  0.00000000e+00
  0.00000000e+00  0.00000000e+00  0.00000000e+00  0.00000000e+00
  0.00000000e+00  0.00000000e+00  2.09785950e-08 -7.15145991e-12
  0.00000000e+00  0.00000000e+00  0.00000000e+00  9.98734322e-03]","[[ 9.98693752e-06 -6.94868045e-15  2.09785950e-11]
 [-6.94868045e-15  9.98691714e-06 -7.15145991e-15]
 [ 2.09785950e-11 -7.15145991e-15  9.98734322e-06]]",[-6.50063579e-06  2.56433105e-10 -3.07226029e-04],0.0,0.0
1786957641.0649772,6.500376083046247e-06,-2.564228529570934e-10,0.0003053026825994288,"[ 9.98663876e-03 -6.81022786e-12  0.00000000e+00  0.00000000e+00
  0.00000000e+00  2.14396989e-08 -6.81022786e-12  9.98661793e-03
  0.00000000e+00  0.00000000e+00  0.00000000e+00 -7.00896697e-12
  0.00000000e+00  0.00000000e+00  0.00000000e+00  0.00000000e+00
  0.00000000e+00  0.00000000e+00  0.00000000e+00  0.00000000e+00
  0.00000000e+00  0.00000000e+00  0.00000000e+00  0.00000000e+00
  0.00000000e+00  0.00000000e+00  0.00000000e+00  0.00000000e+00
  0.00000000e+00  0.00000000e+00  2.14396989e-08 -7.00896697e-12
  0.00000000e+00  0.00000000e+00  0.00000000e+00  9.98705338e-03]","[[ 9.98663876e-06 -6.81022786e-15  2.14396989e-11]
 [-6.81022786e-15  9.98661793e-06 -7.00896697e-15]
 [ 2.14396989e-11 -7.00896697e-15  9.98705338e-06]]",[-6.50044101e-06  2.56425416e-10 -3.05305732e-04],0.0,0.0
1786957641.1164577,6.500246238783487e-06,-2.5641772720433534e-10,0.0002976327411876589,"[ 9.98643961e-03 -6.71710606e-12  0.00000000e+00  0.00000000e+00
  0.00000000e+00  2.17525577e-08 -6.71710606e-12  9.98641847e-03
  0.00000000e+00  0.00000000e+00  0.00000000e+00 -6.91312766e-12
  0.00000000e+00  0.00000000e+00  0.00000000e+00  0.00000000e+00
  0.00000000e+00  0.00000000e+00  0.00000000e+00  0.00000000e+00
  0.00000000e+00  0.00000000e+00  0.00000000e+00  0.00000000e+00
  0.00000000e+00  0.00000000e+00  0.00000000e+00  0.00000000e+00
  0.00000000e+00  0.00000000e+00  2.17525577e-08 -6.91312766e-12
  0.00000000e+00  0.00000000e+00  0.00000000e+00  9.98686027e-03]","[[ 9.98643961e-06 -6.71710606e-15  2.17525577e-11]
 [-6.71710606e-15  9.98641847e-06 -6.91312766e-15]
 [ 2.17525577e-11 -6.91312766e-15  9.98686027e-06]]",[-6.50031116e-06  2.56420290e-10 -2.97635714e-04],0.0,0.0
1786957641.1640112,6.500051482526567e-06,-2.5641003930669787e-10,0.00028703428163678884,"[ 9.98614088e-03 -6.58557956e-12  0.00000000e+00  0.00000000e+00
  0.00000000e+00  2.22120151e-08 -6.58557956e-12  9.98611929e-03
  0.00000000e+00  0.00000000e+00  0.00000000e+00 -6.77776293e-12
  0.00000000e+00  0.00000000e+00  0.00000000e+00  0.00000000e+00
  0.00000000e+00  0.00000000e+00  0.00000000e+00  0.00000000e+00
  0.00000000e+00  0.00000000e+00  0.00000000e+00  0.00000000e+00
  0.00000000e+00  0.00000000e+00  0.00000000e+00  0.00000000e+00
  0.00000000e+00  0.00000000e+00  2.22120151e-08 -6.77776293e-12
  0.00000000e+00  0.00000000e+00  0.00000000e+00  9.98657043e-03]","[[ 9.98614088e-06 -6.58557956e-15  2.22120151e-11]
 [-6.58557956e-15  9.98611929e-06 -6.77776293e-15]
 [ 2.22120151e-11 -6.77776293e-15  9.98657043e-06]]",[-6.50011640e-06  2.56412602e-10 -2.87037148e-04],0.0,0.0
1786957641.2262707,6.49992165197592e-06,-2.5640491457009385e-10,0.0002621906869868518,"[ 9.98594175e-03 -6.49607492e-12  0.00000000e+00  0.00000000e+00
  0.00000000e+00  2.25323266e-08 -6.49607492e-12  9.98591985e-03
  0.00000000e+00  0.00000000e+00  0.00000000e+00 -6.68564634e-12
  0.00000000e+00  0.00000000e+00  0.00000000e+00  0.00000000e+00
  0.00000000e+00  0.00000000e+00  0.00000000e+00  0.00000000e+00
  0.00000000e+00  0.00000000e+00  0.00000000e+00  0.00000000e+00
  0.00000000e+00  0.00000000e+00  0.00000000e+00  0.00000000e+00
  0.00000000e+00  0.00000000e+00  2.25323266e-08 -6.68564634e-12
  0.00000000e+00  0.00000000e+00  0.00000000e+00  9.98637749e-03]","[[ 9.98594175e-06 -6.49607492e-15  2.25323266e-11]
 [-6.49607492e-15  9.98591985e-06 -6.68564634e-15]
 [ 2.25323266e-11 -6.68564634e-15  9.98637749e-06]]",[-6.49998657e-06  2.56407477e-10 -2.62193305e-04],0.0,0.0
1786957641.2646914,6.499726918893841e-06,-2.563972289681089e-10,0.00022302890019254567,"[ 9.98564317e-03 -6.35361452e-12  0.00000000e+00  0.00000000e+00
  0.00000000e+00  2.31171654e-08 -6.35361452e-12  9.98562071e-03
  0.00000000e+00  0.00000000e+00  0.00000000e+00 -6.53902864e-12
  0.00000000e+00  0.00000000e+00  0.00000000e+00  0.00000000e+00
  0.00000000e+00  0.00000000e+00  0.00000000e+00  0.00000000e+00
  0.00000000e+00  0.00000000e+00  0.00000000e+00  0.00000000e+00
  0.00000000e+00  0.00000000e+00  0.00000000e+00  0.00000000e+00
  0.00000000e+00  0.00000000e+00  2.31171654e-08 -6.53902864e-12
  0.00000000e+00  0.00000000e+00  0.00000000e+00  9.98609023e-03]","[[ 9.98564317e-06 -6.35361452e-15  2.31171654e-11]
 [-6.35361452e-15  9.98562071e-06 -6.53902864e-15]
 [ 2.31171654e-11 -6.53902864e-15  9.98609023e-06]]",[-6.49979183e-06  2.56399791e-10 -2.23031127e-04],0.0,0.0
1786957641.3152146,6.499597102254584e-06,-2.563921052712941e-10,0.0002583348662201778,"[ 9.98544404e-03 -6.28785025e-12  0.00000000e+00  0.00000000e+00
  0.00000000e+00  2.34160956e-08 -6.28785025e-12  9.98542128e-03
  0.00000000e+00  0.00000000e+00  0.00000000e+00 -6.47134522e-12
  0.00000000e+00  0.00000000e+00  0.00000000e+00  0.00000000e+00
  0.00000000e+00  0.00000000e+00  0.00000000e+00  0.00000000e+00
  0.00000000e+00  0.00000000e+00  0.00000000e+00  0.00000000e+00
  0.00000000e+00  0.00000000e+00  0.00000000e+00  0.00000000e+00
  0.00000000e+00  0.00000000e+00  2.34160956e-08 -6.47134522e-12
  0.00000000e+00  0.00000000e+00  0.00000000e+00  9.98589688e-03]","[[ 9.98544404e-06 -6.28785025e-15  2.34160956e-11]
 [-6.28785025e-15  9.98542128e-06 -6.47134522e-15]
 [ 2.34160956e-11 -6.47134522e-15  9.98589688e-06]]",[-6.49966201e-06  2.56394667e-10 -2.58337446e-04],0.0,0.0
1786957641.3671818,6.499402379724822e-06,-2.563844183160905e-10,0.00040737481294428335,"[ 9.98514538e-03 -6.15329403e-12  0.00000000e+00  0.00000000e+00
  0.00000000e+00  2.38900895e-08 -6.15329403e-12  9.98512217e-03
  0.00000000e+00  0.00000000e+00  0.00000000e+00 -6.33286236e-12
  0.00000000e+00  0.00000000e+00  0.00000000e+00  0.00000000e+00
  0.00000000e+00  0.00000000e+00  0.00000000e+00  0.00000000e+00
  0.00000000e+00  0.00000000e+00  0.00000000e+00  0.00000000e+00
  0.00000000e+00  0.00000000e+00  0.00000000e+00  0.00000000e+00
  0.00000000e+00  0.00000000e+00  2.38900895e-08 -6.33286236e-12
  0.00000000e+00  0.00000000e+00  0.00000000e+00  9.98560739e-03]","[[ 9.98514538e-06 -6.15329403e-15  2.38900895e-11]
 [-6.15329403e-15  9.98512217e-06 -6.33286236e-15]
 [ 2.38900895e-11 -6.33286236e-15  9.98560739e-06]]",[-6.49946729e-06  2.56386981e-10 -4.07378881e-04],0.0,0.0
1786957641.4143887,6.499272562670525e-06,-2.5637929190835534e-10,0.0005292027330967564,"[ 9.98494628e-03 -6.01847974e-12  0.00000000e+00  0.00000000e+00
  0.00000000e+00  2.41989747e-08 -6.01847974e-12  9.98492277e-03
  0.00000000e+00  0.00000000e+00  0.00000000e+00 -6.19411388e-12
  0.00000000e+00  0.00000000e+00  0.00000000e+00  0.00000000e+00
  0.00000000e+00  0.00000000e+00  0.00000000e+00  0.00000000e+00
  0.00000000e+00  0.00000000e+00  0.00000000e+00  0.00000000e+00
  0.00000000e+00  0.00000000e+00  0.00000000e+00  0.00000000e+00
  0.00000000e+00  0.00000000e+00  2.41989747e-08 -6.19411388e-12
  0.00000000e+00  0.00000000e+00  0.00000000e+00  9.98541426e-03]","[[ 9.98494628e-06 -6.01847974e-15  2.41989747e-11]
 [-6.01847974e-15  9.98492277e-06 -6.19411388e-15]
 [ 2.41989747e-11 -6.19411388e-15  9.98541426e-06]]",[-6.49933747e-06  2.56381855e-10 -5.29208017e-04],0.0,0.0
1786957641.463988,6.499077842995294e-06,-2.563716021832411e-10,0.0005467594800938612,"[ 9.98464763e-03 -5.77608733e-12  0.00000000e+00  0.00000000e+00
  0.00000000e+00  2.46501306e-08 -5.77608733e-12  9.98462368e-03
  0.00000000e+00  0.00000000e+00  0.00000000e+00 -5.94464790e-12
  0.00000000e+00  0.00000000e+00  0.00000000e+00  0.00000000e+00
  0.00000000e+00  0.00000000e+00  0.00000000e+00  0.00000000e+00
  0.00000000e+00  0.00000000e+00  0.00000000e+00  0.00000000e+00
  0.00000000e+00  0.00000000e+00  0.00000000e+00  0.00000000e+00
  0.00000000e+00  0.00000000e+00  2.46501306e-08 -5.94464790e-12
  0.00000000e+00  0.00000000e+00  0.00000000e+00  9.98512433e-03]","[[ 9.98464763e-06 -5.77608733e-15  2.46501306e-11]
 [-5.77608733e-15  9.98462368e-06 -5.94464790e-15]
 [ 2.46501306e-11 -5.94464790e-15  9.98512433e-06]]",[-6.49914275e-06  2.56374165e-10 -5.46764940e-04],0.0,0.0
1786957641.5137742,6.498948037049461e-06,-2.563664764740758e-10,0.0005280724145757532,"[ 9.98444857e-03 -5.60011994e-12  0.00000000e+00  0.00000000e+00
  0.00000000e+00  2.49828070e-08 -5.60011994e-12  9.98442430e-03
  0.00000000e+00  0.00000000e+00  0.00000000e+00 -5.76354538e-12
  0.00000000e+00  0.00000000e+00  0.00000000e+00  0.00000000e+00
  0.00000000e+00  0.00000000e+00  0.00000000e+00  0.00000000e+00
  0.00000000e+00  0.00000000e+00  0.00000000e+00  0.00000000e+00
  0.00000000e+00  0.00000000e+00  0.00000000e+00  0.00000000e+00
  0.00000000e+00  0.00000000e+00  2.49828070e-08 -5.76354538e-12
  0.00000000e+00  0.00000000e+00  0.00000000e+00  9.98493171e-03]","[[ 9.98444857e-06 -5.60011994e-15  2.49828070e-11]
 [-5.60011994e-15  9.98442430e-06 -5.76354538e-15]
 [ 2.49828070e-11 -5.76354538e-15  9.98493171e-06]]",[-6.49901294e-06  2.56369039e-10 -5.28077687e-04],0.0,0.0
1786957641.5639348,6.498753336901581e-06,-2.563587885372916e-10,0.0005342897366955591,"[ 9.98414994e-03 -5.37021509e-12  0.00000000e+00  0.00000000e+00
  0.00000000e+00  2.54223537e-08 -5.37021509e-12  9.98412524e-03
  0.00000000e+00  0.00000000e+00  0.00000000e+00 -5.52693138e-12
  0.00000000e+00  0.00000000e+00  0.00000000e+00  0.00000000e+00
  0.00000000e+00  0.00000000e+00  0.00000000e+00  0.00000000e+00
  0.00000000e+00  0.00000000e+00  0.00000000e+00  0.00000000e+00
  0.00000000e+00  0.00000000e+00  0.00000000e+00  0.00000000e+00
  0.00000000e+00  0.00000000e+00  2.54223537e-08 -5.52693138e-12
  0.00000000e+00  0.00000000e+00  0.00000000e+00  9.98464158e-03]","[[ 9.98414994e-06 -5.37021509e-15  2.54223537e-11]
 [-5.37021509e-15  9.98412524e-06 -5.52693138e-15]
 [ 2.54223537e-11 -5.52693138e-15  9.98464158e-06]]",[-6.49881824e-06  2.56361351e-10 -5.34295071e-04],0.0,0.0
1786957641.6148684,6.498623543667994e-06,-2.563536638960739e-10,0.0005173876832227364,"[ 9.98395088e-03 -5.20857136e-12  0.00000000e+00  0.00000000e+00
  0.00000000e+00  2.57348256e-08 -5.20857136e-12  9.98392588e-03
  0.00000000e+00  0.00000000e+00  0.00000000e+00 -5.36057053e-12
  0.00000000e+00  0.00000000e+00  0.00000000e+00  0.00000000e+00
  0.00000000e+00  0.00000000e+00  0.00000000e+00  0.00000000e+00
  0.00000000e+00  0.00000000e+00  0.00000000e+00  0.00000000e+00
  0.00000000e+00  0.00000000e+00  0.00000000e+00  0.00000000e+00
  0.00000000e+00  0.00000000e+00  2.57348256e-08 -5.36057053e-12
  0.00000000e+00  0.00000000e+00  0.00000000e+00  9.98444856e-03]","[[ 9.98395088e-06 -5.20857136e-15  2.57348256e-11]
 [-5.20857136e-15  9.98392588e-06 -5.36057053e-15]
 [ 2.57348256e-11 -5.36057053e-15  9.98444856e-06]]",[-6.49868844e-06  2.56356226e-10 -5.17392849e-04],0.0,0.0
1786957641.6648746,6.4984288685715656e-06,-2.5634597875017805e-10,0.000391504151088462,"[ 9.98365230e-03 -4.98799645e-12  0.00000000e+00  0.00000000e+00
  0.00000000e+00  2.61945173e-08 -4.98799645e-12  9.98362685e-03
  0.00000000e+00  0.00000000e+00  0.00000000e+00 -5.13355873e-12
  0.00000000e+00  0.00000000e+00  0.00000000e+00  0.00000000e+00
  0.00000000e+00  0.00000000e+00  0.00000000e+00  0.00000000e+00
  0.00000000e+00  0.00000000e+00  0.00000000e+00  0.00000000e+00
  0.00000000e+00  0.00000000e+00  0.00000000e+00  0.00000000e+00
  0.00000000e+00  0.00000000e+00  2.61945173e-08 -5.13355873e-12
  0.00000000e+00  0.00000000e+00  0.00000000e+00  9.98415887e-03]","[[ 9.98365230e-06 -4.98799645e-15  2.61945173e-11]
 [-4.98799645e-15  9.98362685e-06 -5.13355873e-15]
 [ 2.61945173e-11 -5.13355873e-15  9.98415887e-06]]",[-6.49849376e-06  2.56348540e-10 -3.91508060e-04],0.0,0.0
1786957641.7143023,6.49829909818622e-06,-2.5634085704559816e-10,0.00032134788711113416,"[ 9.98345328e-03 -4.87618161e-12  0.00000000e+00  0.00000000e+00
  0.00000000e+00  2.65184147e-08 -4.87618161e-12  9.98342751e-03
  0.00000000e+00  0.00000000e+00  0.00000000e+00 -5.01848089e-12
  0.00000000e+00  0.00000000e+00  0.00000000e+00  0.00000000e+00
  0.00000000e+00  0.00000000e+00  0.00000000e+00  0.00000000e+00
  0.00000000e+00  0.00000000e+00  0.00000000e+00  0.00000000e+00
  0.00000000e+00  0.00000000e+00  0.00000000e+00  0.00000000e+00
  0.00000000e+00  0.00000000e+00  2.65184147e-08 -5.01848089e-12
  0.00000000e+00  0.00000000e+00  0.00000000e+00  9.98396611e-03]","[[ 9.98345328e-06 -4.87618161e-15  2.65184147e-11]
 [-4.87618161e-15  9.98342751e-06 -5.01848089e-15]
 [ 2.65184147e-11 -5.01848089e-15  9.98396611e-06]]",[-6.49836398e-06  2.56343418e-10 -3.21351095e-04],0.0,0.0
1786957641.764218,6.498104448045392e-06,-2.5633317428729737e-10,0.00040860809530363085,"[ 9.98315472e-03 -4.72759122e-12  0.00000000e+00  0.00000000e+00
  0.00000000e+00  2.69687298e-08 -4.72759122e-12  9.98312851e-03
  0.00000000e+00  0.00000000e+00  0.00000000e+00 -4.86555430e-12
  0.00000000e+00  0.00000000e+00  0.00000000e+00  0.00000000e+00
  0.00000000e+00  0.00000000e+00  0.00000000e+00  0.00000000e+00
  0.00000000e+00  0.00000000e+00  0.00000000e+00  0.00000000e+00
  0.00000000e+00  0.00000000e+00  0.00000000e+00  0.00000000e+00
  0.00000000e+00  0.00000000e+00  2.69687298e-08 -4.86555430e-12
  0.00000000e+00  0.00000000e+00  0.00000000e+00  9.98367626e-03]","[[ 9.98315472e-06 -4.72759122e-15  2.69687298e-11]
 [-4.72759122e-15  9.98312851e-06 -4.86555430e-15]
 [ 2.69687298e-11 -4.86555430e-15  9.98367626e-06]]",[-6.49816933e-06  2.56335735e-10 -4.08612175e-04],0.0,0.0
1786957641.8144124,6.4979746825251305e-06,-2.5632805194593974e-10,0.00046405524010184596,"[ 9.98295569e-03 -4.60022708e-12  0.00000000e+00  0.00000000e+00
  0.00000000e+00  2.72730142e-08 -4.60022708e-12  9.98292919e-03
  0.00000000e+00  0.00000000e+00  0.00000000e+00 -4.73447340e-12
  0.00000000e+00  0.00000000e+00  0.00000000e+00  0.00000000e+00
  0.00000000e+00  0.00000000e+00  0.00000000e+00  0.00000000e+00
  0.00000000e+00  0.00000000e+00  0.00000000e+00  0.00000000e+00
  0.00000000e+00  0.00000000e+00  0.00000000e+00  0.00000000e+00
  0.00000000e+00  0.00000000e+00  2.72730142e-08 -4.73447340e-12
  0.00000000e+00  0.00000000e+00  0.00000000e+00  9.98348312e-03]","[[ 9.98295569e-06 -4.60022708e-15  2.72730142e-11]
 [-4.60022708e-15  9.98292919e-06 -4.73447340e-15]
 [ 2.72730142e-11 -4.73447340e-15  9.98348312e-06]]",[-6.49803956e-06  2.56330613e-10 -4.64059873e-04],0.0,0.0
1786957641.8642836,6.497780041874341e-06,-2.5632036880689277e-10,0.0004786541752173079,"[ 9.98265719e-03 -4.38055720e-12  0.00000000e+00  0.00000000e+00
  0.00000000e+00  2.77491753e-08 -4.38055720e-12  9.98263022e-03
  0.00000000e+00  0.00000000e+00  0.00000000e+00 -4.50839306e-12
  0.00000000e+00  0.00000000e+00  0.00000000e+00  0.00000000e+00
  0.00000000e+00  0.00000000e+00  0.00000000e+00  0.00000000e+00
  0.00000000e+00  0.00000000e+00  0.00000000e+00  0.00000000e+00
  0.00000000e+00  0.00000000e+00  0.00000000e+00  0.00000000e+00
  0.00000000e+00  0.00000000e+00  2.77491753e-08 -4.50839306e-12
  0.00000000e+00  0.00000000e+00  0.00000000e+00  9.98319382e-03]","[[ 9.98265719e-06 -4.38055720e-15  2.77491753e-11]
 [-4.38055720e-15  9.98263022e-06 -4.50839306e-15]
 [ 2.77491753e-11 -4.50839306e-15  9.98319382e-06]]",[-6.49784492e-06  2.56322930e-10 -4.78658954e-04],0.0,0.0
1786957641.9142113,6.497650287037509e-06,-2.563152470639268e-10,0.0004929270909581618,"[ 9.98245816e-03 -4.24609679e-12  0.00000000e+00  0.00000000e+00
  0.00000000e+00  2.80363938e-08 -4.24609679e-12  9.98243092e-03
  0.00000000e+00  0.00000000e+00  0.00000000e+00 -4.37000879e-12
  0.00000000e+00  0.00000000e+00  0.00000000e+00  0.00000000e+00
  0.00000000e+00  0.00000000e+00  0.00000000e+00  0.00000000e+00
  0.00000000e+00  0.00000000e+00  0.00000000e+00  0.00000000e+00
  0.00000000e+00  0.00000000e+00  0.00000000e+00  0.00000000e+00
  0.00000000e+00  0.00000000e+00  2.80363938e-08 -4.37000879e-12
  0.00000000e+00  0.00000000e+00  0.00000000e+00  9.98300035e-03]","[[ 9.98245816e-06 -4.24609679e-15  2.80363938e-11]
 [-4.24609679e-15  9.98243092e-06 -4.37000879e-15]
 [ 2.80363938e-11 -4.37000879e-15  9.98300035e-06]]",[-6.49771516e-06  2.56317808e-10 -4.92932012e-04],0.0,0.0
1786957641.9642396,6.497455661387256e-06,-2.563075647582932e-10,0.000520740375359985,"[ 9.98215968e-03 -4.01532022e-12  0.00000000e+00  0.00000000e+00
  0.00000000e+00  2.85042596e-08 -4.01532022e-12  9.98213198e-03
  0.00000000e+00  0.00000000e+00  0.00000000e+00 -4.13249763e-12
  0.00000000e+00  0.00000000e+00  0.00000000e+00  0.00000000e+00
  0.00000000e+00  0.00000000e+00  0.00000000e+00  0.00000000e+00
  0.00000000e+00  0.00000000e+00  0.00000000e+00  0.00000000e+00
  0.00000000e+00  0.00000000e+00  0.00000000e+00  0.00000000e+00
  0.00000000e+00  0.00000000e+00  2.85042596e-08 -4.13249763e-12
  0.00000000e+00  0.00000000e+00  0.00000000e+00  9.98271092e-03]","[[ 9.98215968e-06 -4.01532022e-15  2.85042596e-11]
 [-4.01532022e-15  9.98213198e-06 -4.13249763e-15]
 [ 2.85042596e-11 -4.13249763e-15  9.98271092e-06]]",[-6.49752054e-06  2.56310125e-10 -5.20745574e-04],0.0,0.0
1786957642.0141575,6.4973259175954205e-06,-2.563024437577812e-10,0.0004920861194768201,"[ 9.98196070e-03 -3.85586837e-12  0.00000000e+00  0.00000000e+00
  0.00000000e+00  2.88180326e-08 -3.85586837e-12  9.98193270e-03
  0.00000000e+00  0.00000000e+00  0.00000000e+00 -3.96839261e-12
  0.00000000e+00  0.00000000e+00  0.00000000e+00  0.00000000e+00
  0.00000000e+00  0.00000000e+00  0.00000000e+00  0.00000000e+00
  0.00000000e+00  0.00000000e+00  0.00000000e+00  0.00000000e+00
  0.00000000e+00  0.00000000e+00  0.00000000e+00  0.00000000e+00
  0.00000000e+00  0.00000000e+00  2.88180326e-08 -3.96839261e-12
  0.00000000e+00  0.00000000e+00  0.00000000e+00  9.98251801e-03]","[[ 9.98196070e-06 -3.85586837e-15  2.88180326e-11]
 [-3.85586837e-15  9.98193270e-06 -3.96839261e-15]
 [ 2.88180326e-11 -3.96839261e-15  9.98251801e-06]]",[-6.49739079e-06  2.56305004e-10 -4.92091032e-04],0.0,0.0
1786957642.0645907,6.497131317094146e-06,-2.5629476371918277e-10,0.0004093425884472701,"[ 9.98166225e-03 -3.64488577e-12  0.00000000e+00  0.00000000e+00
  0.00000000e+00  2.92840846e-08 -3.64488577e-12  9.98163379e-03
  0.00000000e+00  0.00000000e+00  0.00000000e+00 -3.75125307e-12
  0.00000000e+00  0.00000000e+00  0.00000000e+00  0.00000000e+00
  0.00000000e+00  0.00000000e+00  0.00000000e+00  0.00000000e+00
  0.00000000e+00  0.00000000e+00  0.00000000e+00  0.00000000e+00
  0.00000000e+00  0.00000000e+00  0.00000000e+00  0.00000000e+00
  0.00000000e+00  0.00000000e+00  2.92840846e-08 -3.75125307e-12
  0.00000000e+00  0.00000000e+00  0.00000000e+00  9.98222857e-03]","[[ 9.98166225e-06 -3.64488577e-15  2.92840846e-11]
 [-3.64488577e-15  9.98163379e-06 -3.75125307e-15]
 [ 2.92840846e-11 -3.75125307e-15  9.98222857e-06]]",[-6.49719618e-06  2.56297324e-10 -4.09346675e-04],0.0,0.0
1786957642.114598,6.497001593105796e-06,-2.5628964453343857e-10,0.0003704761021525726,"[ 9.98146327e-03 -3.53053834e-12  0.00000000e+00  0.00000000e+00
  0.00000000e+00  2.95797719e-08 -3.53053834e-12  9.98143453e-03
  0.00000000e+00  0.00000000e+00  0.00000000e+00 -3.63356872e-12
  0.00000000e+00  0.00000000e+00  0.00000000e+00  0.00000000e+00
  0.00000000e+00  0.00000000e+00  0.00000000e+00  0.00000000e+00
  0.00000000e+00  0.00000000e+00  0.00000000e+00  0.00000000e+00
  0.00000000e+00  0.00000000e+00  0.00000000e+00  0.00000000e+00
  0.00000000e+00  0.00000000e+00  2.95797719e-08 -3.63356872e-12
  0.00000000e+00  0.00000000e+00  0.00000000e+00  9.98203531e-03]","[[ 9.98146327e-06 -3.53053834e-15  2.95797719e-11]
 [-3.53053834e-15  9.98143453e-06 -3.63356872e-15]
 [ 2.95797719e-11 -3.63356872e-15  9.98203531e-06]]",[-6.49706645e-06  2.56292204e-10 -3.70479800e-04],0.0,0.0
1786957642.1641796,6.496807016706258e-06,-2.5628196634964715e-10,0.000388552934283748,"[ 9.98116485e-03 -3.36118924e-12  0.00000000e+00  0.00000000e+00
  0.00000000e+00  3.00525824e-08 -3.36118924e-12  9.98113565e-03
  0.00000000e+00  0.00000000e+00  0.00000000e+00 -3.45927765e-12
  0.00000000e+00  0.00000000e+00  0.00000000e+00  0.00000000e+00
  0.00000000e+00  0.00000000e+00  0.00000000e+00  0.00000000e+00
  0.00000000e+00  0.00000000e+00  0.00000000e+00  0.00000000e+00
  0.00000000e+00  0.00000000e+00  0.00000000e+00  0.00000000e+00
  0.00000000e+00  0.00000000e+00  3.00525824e-08 -3.45927765e-12
  0.00000000e+00  0.00000000e+00  0.00000000e+00  9.98174603e-03]","[[ 9.98116485e-06 -3.36118924e-15  3.00525824e-11]
 [-3.36118924e-15  9.98113565e-06 -3.45927765e-15]
 [ 3.00525824e-11 -3.45927765e-15  9.98174603e-06]]",[-6.49687187e-06  2.56284526e-10 -3.88556813e-04],0.0,0.0
1786957642.2159793,6.4966773029303454e-06,-2.5627684766421136e-10,0.0004201062936579625,"[ 9.98096592e-03 -3.24019981e-12  0.00000000e+00  0.00000000e+00
  0.00000000e+00  3.03650023e-08 -3.24019981e-12  9.98093641e-03
  0.00000000e+00  0.00000000e+00  0.00000000e+00 -3.33475747e-12
  0.00000000e+00  0.00000000e+00  0.00000000e+00  0.00000000e+00
  0.00000000e+00  0.00000000e+00  0.00000000e+00  0.00000000e+00
  0.00000000e+00  0.00000000e+00  0.00000000e+00  0.00000000e+00
  0.00000000e+00  0.00000000e+00  0.00000000e+00  0.00000000e+00
  0.00000000e+00  0.00000000e+00  3.03650023e-08 -3.33475747e-12
  0.00000000e+00  0.00000000e+00  0.00000000e+00  9.98155314e-03]","[[ 9.98096592e-06 -3.24019981e-15  3.03650023e-11]
 [-3.24019981e-15  9.98093641e-06 -3.33475747e-15]
 [ 3.03650023e-11 -3.33475747e-15  9.98155314e-06]]",[-6.49674216e-06  2.56279407e-10 -4.20110487e-04],0.0,0.0
1786957642.2649229,6.496482731936308e-06,-2.562691692465315e-10,0.0005608662842977451,"[ 9.98066750e-03 -3.03639229e-12  0.00000000e+00  0.00000000e+00
  0.00000000e+00  3.08125674e-08 -3.03639229e-12  9.98063756e-03
  0.00000000e+00  0.00000000e+00  0.00000000e+00 -3.12500240e-12
  0.00000000e+00  0.00000000e+00  0.00000000e+00  0.00000000e+00
  0.00000000e+00  0.00000000e+00  0.00000000e+00  0.00000000e+00
  0.00000000e+00  0.00000000e+00  0.00000000e+00  0.00000000e+00
  0.00000000e+00  0.00000000e+00  0.00000000e+00  0.00000000e+00
  0.00000000e+00  0.00000000e+00  3.08125674e-08 -3.12500240e-12
  0.00000000e+00  0.00000000e+00  0.00000000e+00  9.98126338e-03]","[[ 9.98066750e-06 -3.03639229e-15  3.08125674e-11]
 [-3.03639229e-15  9.98063756e-06 -3.12500240e-15]
 [ 3.08125674e-11 -3.12500240e-15  9.98126338e-06]]",[-6.49654759e-06  2.56271729e-10 -5.60871883e-04],0.0,0.0
1786957642.3140411,6.496353017551722e-06,-2.5626405014365056e-10,0.0006327994376755798,"[ 9.98046858e-03 -2.86002647e-12  0.00000000e+00  0.00000000e+00
  0.00000000e+00  3.11218459e-08 -2.86002647e-12  9.98043834e-03
  0.00000000e+00  0.00000000e+00  0.00000000e+00 -2.94348981e-12
  0.00000000e+00  0.00000000e+00  0.00000000e+00  0.00000000e+00
  0.00000000e+00  0.00000000e+00  0.00000000e+00  0.00000000e+00
  0.00000000e+00  0.00000000e+00  0.00000000e+00  0.00000000e+00
  0.00000000e+00  0.00000000e+00  0.00000000e+00  0.00000000e+00
  0.00000000e+00  0.00000000e+00  3.11218459e-08 -2.94348981e-12
  0.00000000e+00  0.00000000e+00  0.00000000e+00  9.98107044e-03]","[[ 9.98046858e-06 -2.86002647e-15  3.11218459e-11]
 [-2.86002647e-15  9.98043834e-06 -2.94348981e-15]
 [ 3.11218459e-11 -2.94348981e-15  9.98107044e-06]]",[-6.49641787e-06  2.56266610e-10 -6.32805754e-04],0.0,0.0
1786957642.364269,6.496158452184272e-06,-2.5625637209533407e-10,0.0006407534463321873,"[ 9.98017022e-03 -2.56450967e-12  0.00000000e+00  0.00000000e+00
  0.00000000e+00  3.15898521e-08 -2.56450967e-12  9.98013952e-03
  0.00000000e+00  0.00000000e+00  0.00000000e+00 -2.63934914e-12
  0.00000000e+00  0.00000000e+00  0.00000000e+00  0.00000000e+00
  0.00000000e+00  0.00000000e+00  0.00000000e+00  0.00000000e+00
  0.00000000e+00  0.00000000e+00  0.00000000e+00  0.00000000e+00
  0.00000000e+00  0.00000000e+00  0.00000000e+00  0.00000000e+00
  0.00000000e+00  0.00000000e+00  3.15898521e-08 -2.63934914e-12
  0.00000000e+00  0.00000000e+00  0.00000000e+00  9.98078113e-03]","[[ 9.98017022e-06 -2.56450967e-15  3.15898521e-11]
 [-2.56450967e-15  9.98013952e-06 -2.63934914e-15]
 [ 3.15898521e-11 -2.63934914e-15  9.98078113e-06]]",[-6.49622331e-06  2.56258931e-10 -6.40759842e-04],0.0,0.0
1786957642.41438,6.4960287492839315e-06,-2.5625125408953634e-10,0.0006231081765135649,"[ 9.97997133e-03 -2.36574229e-12  0.00000000e+00  0.00000000e+00
  0.00000000e+00  3.19100023e-08 -2.36574229e-12  9.97994032e-03
  0.00000000e+00  0.00000000e+00  0.00000000e+00 -2.43478127e-12
  0.00000000e+00  0.00000000e+00  0.00000000e+00  0.00000000e+00
  0.00000000e+00  0.00000000e+00  0.00000000e+00  0.00000000e+00
  0.00000000e+00  0.00000000e+00  0.00000000e+00  0.00000000e+00
  0.00000000e+00  0.00000000e+00  0.00000000e+00  0.00000000e+00
  0.00000000e+00  0.00000000e+00  3.19100023e-08 -2.43478127e-12
  0.00000000e+00  0.00000000e+00  0.00000000e+00  9.98058843e-03]","[[ 9.97997133e-06 -2.36574229e-15  3.19100023e-11]
 [-2.36574229e-15  9.97994032e-06 -2.43478127e-15]
 [ 3.19100023e-11 -2.43478127e-15  9.98058843e-06]]",[-6.49609360e-06  2.56253813e-10 -6.23114396e-04],0.0,0.0
1786957642.4641445,6.495834206119342e-06,-2.562435780647221e-10,0.0005684478267267146,"[ 9.97967297e-03 -2.09309030e-12  0.00000000e+00  0.00000000e+00
  0.00000000e+00  3.23582284e-08 -2.09309030e-12  9.97964153e-03
  0.00000000e+00  0.00000000e+00  0.00000000e+00 -2.15417266e-12
  0.00000000e+00  0.00000000e+00  0.00000000e+00  0.00000000e+00
  0.00000000e+00  0.00000000e+00  0.00000000e+00  0.00000000e+00
  0.00000000e+00  0.00000000e+00  0.00000000e+00  0.00000000e+00
  0.00000000e+00  0.00000000e+00  0.00000000e+00  0.00000000e+00
  0.00000000e+00  0.00000000e+00  3.23582284e-08 -2.15417266e-12
  0.00000000e+00  0.00000000e+00  0.00000000e+00  9.98029874e-03]","[[ 9.97967297e-06 -2.09309030e-15  3.23582284e-11]
 [-2.09309030e-15  9.97964153e-06 -2.15417266e-15]
 [ 3.23582284e-11 -2.15417266e-15  9.98029874e-06]]",[-6.49589905e-06  2.56246137e-10 -5.68453500e-04],0.0,0.0
1786957642.5147564,6.495704522530522e-06,-2.5623846160964183e-10,0.0004975055809643969,"[ 9.97947408e-03 -1.93393965e-12  0.00000000e+00  0.00000000e+00
  0.00000000e+00  3.26542119e-08 -1.93393965e-12  9.97944235e-03
  0.00000000e+00  0.00000000e+00  0.00000000e+00 -1.99037763e-12
  0.00000000e+00  0.00000000e+00  0.00000000e+00  0.00000000e+00
  0.00000000e+00  0.00000000e+00  0.00000000e+00  0.00000000e+00
  0.00000000e+00  0.00000000e+00  0.00000000e+00  0.00000000e+00
  0.00000000e+00  0.00000000e+00  0.00000000e+00  0.00000000e+00
  0.00000000e+00  0.00000000e+00  3.26542119e-08 -1.99037763e-12
  0.00000000e+00  0.00000000e+00  0.00000000e+00  9.98010557e-03]","[[ 9.97947408e-06 -1.93393965e-15  3.26542119e-11]
 [-1.93393965e-15  9.97944235e-06 -1.99037763e-15]
 [ 3.26542119e-11 -1.99037763e-15  9.98010557e-06]]",[-6.49576936e-06  2.56241020e-10 -4.97510546e-04],0.0,0.0
1786957642.5653288,6.495510014141683e-06,-2.5623078805048223e-10,0.000427586168121774,"[ 9.97917577e-03 -1.72379745e-12  0.00000000e+00  0.00000000e+00
  0.00000000e+00  3.31215399e-08 -1.72379745e-12  9.97914359e-03
  0.00000000e+00  0.00000000e+00  0.00000000e+00 -1.77410302e-12
  0.00000000e+00  0.00000000e+00  0.00000000e+00  0.00000000e+00
  0.00000000e+00  0.00000000e+00  0.00000000e+00  0.00000000e+00
  0.00000000e+00  0.00000000e+00  0.00000000e+00  0.00000000e+00
  0.00000000e+00  0.00000000e+00  0.00000000e+00  0.00000000e+00
  0.00000000e+00  0.00000000e+00  3.31215399e-08 -1.77410302e-12
  0.00000000e+00  0.00000000e+00  0.00000000e+00  9.97981630e-03]","[[ 9.97917577e-06 -1.72379745e-15  3.31215399e-11]
 [-1.72379745e-15  9.97914359e-06 -1.77410302e-15]
 [ 3.31215399e-11 -1.77410302e-15  9.97981630e-06]]",[-6.49557485e-06  2.56233346e-10 -4.27590435e-04],0.0,0.0
1786957642.6145265,6.495380348308739e-06,-2.5622567276309695e-10,0.0004268690181077339,"[ 9.97897692e-03 -1.59058875e-12  0.00000000e+00  0.00000000e+00
  0.00000000e+00  3.34379848e-08 -1.59058875e-12  9.97894443e-03
  0.00000000e+00  0.00000000e+00  0.00000000e+00 -1.63700699e-12
  0.00000000e+00  0.00000000e+00  0.00000000e+00  0.00000000e+00
  0.00000000e+00  0.00000000e+00  0.00000000e+00  0.00000000e+00
  0.00000000e+00  0.00000000e+00  0.00000000e+00  0.00000000e+00
  0.00000000e+00  0.00000000e+00  0.00000000e+00  0.00000000e+00
  0.00000000e+00  0.00000000e+00  3.34379848e-08 -1.63700699e-12
  0.00000000e+00  0.00000000e+00  0.00000000e+00  9.97962357e-03]","[[ 9.97897692e-06 -1.59058875e-15  3.34379848e-11]
 [-1.59058875e-15  9.97894443e-06 -1.63700699e-15]
 [ 3.34379848e-11 -1.63700699e-15  9.97962357e-06]]",[-6.49544518e-06  2.56228230e-10 -4.26873278e-04],0.0,0.0
1786957642.6653209,6.4951858580830976e-06,-2.5621800040895045e-10,0.0004561962568594425,"[ 9.97867864e-03 -1.39607261e-12  0.00000000e+00  0.00000000e+00
  0.00000000e+00  3.39036961e-08 -1.39607261e-12  9.97864570e-03
  0.00000000e+00  0.00000000e+00  0.00000000e+00 -1.43681444e-12
  0.00000000e+00  0.00000000e+00  0.00000000e+00  0.00000000e+00
  0.00000000e+00  0.00000000e+00  0.00000000e+00  0.00000000e+00
  0.00000000e+00  0.00000000e+00  0.00000000e+00  0.00000000e+00
  0.00000000e+00  0.00000000e+00  0.00000000e+00  0.00000000e+00
  0.00000000e+00  0.00000000e+00  3.39036961e-08 -1.43681444e-12
  0.00000000e+00  0.00000000e+00  0.00000000e+00  9.97933430e-03]","[[ 9.97867864e-06 -1.39607261e-15  3.39036961e-11]
 [-1.39607261e-15  9.97864570e-06 -1.43681444e-15]
 [ 3.39036961e-11 -1.43681444e-15  9.97933430e-06]]",[-6.49525069e-06  2.56220558e-10 -4.56200809e-04],0.0,0.0
1786957642.7142193,6.494991375313858e-06,-2.5621032865290133e-10,0.00047031583146361916,"[ 9.97838036e-03 -1.19207842e-12  0.00000000e+00  0.00000000e+00
  0.00000000e+00  3.43501546e-08 -1.19207842e-12  9.97834699e-03
  0.00000000e+00  0.00000000e+00  0.00000000e+00 -1.22686725e-12
  0.00000000e+00  0.00000000e+00  0.00000000e+00  0.00000000e+00
  0.00000000e+00  0.00000000e+00  0.00000000e+00  0.00000000e+00
  0.00000000e+00  0.00000000e+00  0.00000000e+00  0.00000000e+00
  0.00000000e+00  0.00000000e+00  0.00000000e+00  0.00000000e+00
  0.00000000e+00  0.00000000e+00  3.43501546e-08 -1.22686725e-12
  0.00000000e+00  0.00000000e+00  0.00000000e+00  9.97904465e-03]","[[ 9.97838036e-06 -1.19207842e-15  3.43501546e-11]
 [-1.19207842e-15  9.97834699e-06 -1.22686725e-15]
 [ 3.43501546e-11 -1.22686725e-15  9.97904465e-06]]",[-6.49505620e-06  2.56212886e-10 -4.70320525e-04],0.0,0.0
1786957642.7639654,6.494861720914836e-06,-2.562052144123767e-10,0.0005748447447966322,"[ 9.97818154e-03 -1.04010084e-12  0.00000000e+00  0.00000000e+00
  0.00000000e+00  3.46640492e-08 -1.04010084e-12  9.97814786e-03
  0.00000000e+00  0.00000000e+00  0.00000000e+00 -1.07045462e-12
  0.00000000e+00  0.00000000e+00  0.00000000e+00  0.00000000e+00
  0.00000000e+00  0.00000000e+00  0.00000000e+00  0.00000000e+00
  0.00000000e+00  0.00000000e+00  0.00000000e+00  0.00000000e+00
  0.00000000e+00  0.00000000e+00  0.00000000e+00  0.00000000e+00
  0.00000000e+00  0.00000000e+00  3.46640492e-08 -1.07045462e-12
  0.00000000e+00  0.00000000e+00  0.00000000e+00  9.97885190e-03]","[[ 9.97818154e-06 -1.04010084e-15  3.46640492e-11]
 [-1.04010084e-15  9.97814786e-06 -1.07045462e-15]
 [ 3.46640492e-11 -1.07045462e-15  9.97885190e-06]]",[-6.49492655e-06  2.56207772e-10 -5.74850481e-04],0.0,0.0
1786957642.8148985,6.49473206408784e-06,-2.5620010038228817e-10,0.0006791472762794905,"[ 9.97798272e-03 -8.56846871e-13  0.00000000e+00  0.00000000e+00
  0.00000000e+00  3.49764856e-08 -8.56846871e-13  9.97794873e-03
  0.00000000e+00  0.00000000e+00  0.00000000e+00 -8.81852880e-13
  0.00000000e+00  0.00000000e+00  0.00000000e+00  0.00000000e+00
  0.00000000e+00  0.00000000e+00  0.00000000e+00  0.00000000e+00
  0.00000000e+00  0.00000000e+00  0.00000000e+00  0.00000000e+00
  0.00000000e+00  0.00000000e+00  0.00000000e+00  0.00000000e+00
  0.00000000e+00  0.00000000e+00  3.49764856e-08 -8.81852880e-13
  0.00000000e+00  0.00000000e+00  0.00000000e+00  9.97865912e-03]","[[ 9.97798272e-06 -8.56846871e-16  3.49764856e-11]
 [-8.56846871e-16  9.97794873e-06 -8.81852880e-16]
 [ 3.49764856e-11 -8.81852880e-16  9.97865912e-06]]",[-6.49479689e-06  2.56202657e-10 -6.79154053e-04],0.0,0.0
1786957642.865519,6.494537580503253e-06,-2.561924301021436e-10,0.0007165033114651108,"[ 9.97768449e-03 -5.43108863e-13  0.00000000e+00  0.00000000e+00
  0.00000000e+00  3.54299973e-08 -5.43108863e-13  9.97765006e-03
  0.00000000e+00  0.00000000e+00  0.00000000e+00 -5.58959255e-13
  0.00000000e+00  0.00000000e+00  0.00000000e+00  0.00000000e+00
  0.00000000e+00  0.00000000e+00  0.00000000e+00  0.00000000e+00
  0.00000000e+00  0.00000000e+00  0.00000000e+00  0.00000000e+00
  0.00000000e+00  0.00000000e+00  0.00000000e+00  0.00000000e+00
  0.00000000e+00  0.00000000e+00  3.54299973e-08 -5.58959255e-13
  0.00000000e+00  0.00000000e+00  0.00000000e+00  9.97836966e-03]","[[ 9.97768449e-06 -5.43108863e-16  3.54299973e-11]
 [-5.43108863e-16  9.97765006e-06 -5.58959255e-16]
 [ 3.54299973e-11 -5.58959255e-16  9.97836966e-06]]",[-6.49460241e-06  2.56194987e-10 -7.16510461e-04],0.0,0.0
1786957642.914939,6.494407934274971e-06,-2.561873172699211e-10,0.0006503172780965016,"[ 9.97748569e-03 -3.27906365e-13  0.00000000e+00  0.00000000e+00
  0.00000000e+00  3.57429444e-08 -3.27906365e-13  9.97745096e-03
  0.00000000e+00  0.00000000e+00  0.00000000e+00 -3.37476639e-13
  0.00000000e+00  0.00000000e+00  0.00000000e+00  0.00000000e+00
  0.00000000e+00  0.00000000e+00  0.00000000e+00  0.00000000e+00
  0.00000000e+00  0.00000000e+00  0.00000000e+00  0.00000000e+00
  0.00000000e+00  0.00000000e+00  0.00000000e+00  0.00000000e+00
  0.00000000e+00  0.00000000e+00  3.57429444e-08 -3.37476639e-13
  0.00000000e+00  0.00000000e+00  0.00000000e+00  9.97817692e-03]","[[ 9.97748569e-06 -3.27906365e-16  3.57429444e-11]
 [-3.27906365e-16  9.97745096e-06 -3.37476639e-16]
 [ 3.57429444e-11 -3.37476639e-16  9.97817692e-06]]",[-6.49447276e-06  2.56189874e-10 -6.50323767e-04],0.0,0.0
1786957642.9641798,6.4942134835813e-06,-2.5617964894394976e-10,0.0005546640370397428,"[ 9.97718749e-03 -5.42614357e-14  0.00000000e+00  0.00000000e+00
  0.00000000e+00  3.62000000e-08 -5.42614357e-14  9.97715232e-03
  0.00000000e+00  0.00000000e+00  0.00000000e+00 -5.58461226e-14
  0.00000000e+00  0.00000000e+00  0.00000000e+00  0.00000000e+00
  0.00000000e+00  0.00000000e+00  0.00000000e+00  0.00000000e+00
  0.00000000e+00  0.00000000e+00  0.00000000e+00  0.00000000e+00
  0.00000000e+00  0.00000000e+00  0.00000000e+00  0.00000000e+00
  0.00000000e+00  0.00000000e+00  3.62000000e-08 -5.58461226e-14
  0.00000000e+00  0.00000000e+00  0.00000000e+00  9.97788756e-03]","[[ 9.97718749e-06 -5.42614357e-17  3.62000000e-11]
 [-5.42614357e-17  9.97715232e-06 -5.58461226e-17]
 [ 3.62000000e-11 -5.58461226e-17  9.97788756e-06]]",[-6.49427830e-06  2.56182205e-10 -5.54669571e-04],0.0,0.0
1786957643.0141706,6.494083859669712e-06,-2.5617453723343376e-10,0.0005300299405393006,"[9.97698871e-03 1.05349989e-13 0.00000000e+00 0.00000000e+00
 0.00000000e+00 3.65019858e-08 1.05349989e-13 9.97695324e-03
 0.00000000e+00 0.00000000e+00 0.00000000e+00 1.08423123e-13
 0.00000000e+00 0.00000000e+00 0.00000000e+00 0.00000000e+00
 0.00000000e+00 0.00000000e+00 0.00000000e+00 0.00000000e+00
 0.00000000e+00 0.00000000e+00 0.00000000e+00 0.00000000e+00
 0.00000000e+00 0.00000000e+00 0.00000000e+00 0.00000000e+00
 0.00000000e+00 0.00000000e+00 3.65019858e-08 1.08423123e-13
 0.00000000e+00 0.00000000e+00 0.00000000e+00 9.97769461e-03]","[[9.97698871e-06 1.05349989e-16 3.65019858e-11]
 [1.05349989e-16 9.97695324e-06 1.08423123e-16]
 [3.65019858e-11 1.08423123e-16 9.97769461e-06]]",[-6.49414867e-06  2.56177093e-10 -5.30035229e-04],0.0,0.0
1786957643.0662112,6.4938894330347486e-06,-2.5616687038983267e-10,0.0005216937870624605,"[9.97669055e-03 3.45845899e-13 0.00000000e+00 0.00000000e+00
 0.00000000e+00 3.69666972e-08 3.45845899e-13 9.97665463e-03
 0.00000000e+00 0.00000000e+00 0.00000000e+00 3.55937243e-13
 0.00000000e+00 0.00000000e+00 0.00000000e+00 0.00000000e+00
 0.00000000e+00 0.00000000e+00 0.00000000e+00 0.00000000e+00
 0.00000000e+00 0.00000000e+00 0.00000000e+00 0.00000000e+00
 0.00000000e+00 0.00000000e+00 0.00000000e+00 0.00000000e+00
 0.00000000e+00 0.00000000e+00 3.69666972e-08 3.55937243e-13
 0.00000000e+00 0.00000000e+00 0.00000000e+00 9.97740544e-03]","[[9.97669055e-06 3.45845899e-16 3.69666972e-11]
 [3.45845899e-16 9.97665463e-06 3.55937243e-16]
 [3.69666972e-11 3.55937243e-16 9.97740544e-06]]",[-6.49395424e-06  2.56169426e-10 -5.21698992e-04],0.0,0.0
1786957643.1136897,6.493759822401191e-06,-2.561617596151592e-10,0.0005102773048677456,"[9.97649178e-03 4.99327607e-13 0.00000000e+00 0.00000000e+00
 0.00000000e+00 3.72695204e-08 4.99327607e-13 9.97645556e-03
 0.00000000e+00 0.00000000e+00 0.00000000e+00 5.13897891e-13
 0.00000000e+00 0.00000000e+00 0.00000000e+00 0.00000000e+00
 0.00000000e+00 0.00000000e+00 0.00000000e+00 0.00000000e+00
 0.00000000e+00 0.00000000e+00 0.00000000e+00 0.00000000e+00
 0.00000000e+00 0.00000000e+00 0.00000000e+00 0.00000000e+00
 0.00000000e+00 0.00000000e+00 3.72695204e-08 5.13897891e-13
 0.00000000e+00 0.00000000e+00 0.00000000e+00 9.97721253e-03]","[[9.97649178e-06 4.99327607e-16 3.72695204e-11]
 [4.99327607e-16 9.97645556e-06 5.13897891e-16]
 [3.72695204e-11 5.13897891e-16 9.97721253e-06]]",[-6.49382463e-06  2.56164315e-10 -5.10282396e-04],0.0,0.0
1786957643.1640873,6.493565415646715e-06,-2.561540941384371e-10,0.0005331184153680725,"[9.97619366e-03 7.34095197e-13 0.00000000e+00 0.00000000e+00
 0.00000000e+00 3.77463630e-08 7.34095197e-13 9.97615698e-03
 0.00000000e+00 0.00000000e+00 0.00000000e+00 7.55516522e-13
 0.00000000e+00 0.00000000e+00 0.00000000e+00 0.00000000e+00
 0.00000000e+00 0.00000000e+00 0.00000000e+00 0.00000000e+00
 0.00000000e+00 0.00000000e+00 0.00000000e+00 0.00000000e+00
 0.00000000e+00 0.00000000e+00 0.00000000e+00 0.00000000e+00
 0.00000000e+00 0.00000000e+00 3.77463630e-08 7.55516522e-13
 0.00000000e+00 0.00000000e+00 0.00000000e+00 9.97692363e-03]","[[9.97619366e-06 7.34095197e-16 3.77463630e-11]
 [7.34095197e-16 9.97615698e-06 7.55516522e-16]
 [3.77463630e-11 7.55516522e-16 9.97692363e-06]]",[-6.49363022e-06  2.56156649e-10 -5.33123734e-04],0.0,0.0
1786957643.215257,6.493435813854321e-06,-2.561489843590755e-10,0.0005468783931905641,"[9.97599491e-03 8.95045843e-13 0.00000000e+00 0.00000000e+00
 0.00000000e+00 3.80459900e-08 8.95045843e-13 9.97595794e-03
 0.00000000e+00 0.00000000e+00 0.00000000e+00 9.21164070e-13
 0.00000000e+00 0.00000000e+00 0.00000000e+00 0.00000000e+00
 0.00000000e+00 0.00000000e+00 0.00000000e+00 0.00000000e+00
 0.00000000e+00 0.00000000e+00 0.00000000e+00 0.00000000e+00
 0.00000000e+00 0.00000000e+00 0.00000000e+00 0.00000000e+00
 0.00000000e+00 0.00000000e+00 3.80459900e-08 9.21164070e-13
 0.00000000e+00 0.00000000e+00 0.00000000e+00 9.97673067e-03]","[[9.97599491e-06 8.95045843e-16 3.80459900e-11]
 [8.95045843e-16 9.97595794e-06 9.21164070e-16]
 [3.80459900e-11 9.21164070e-16 9.97673067e-06]]",[-6.49350061e-06  2.56151539e-10 -5.46883849e-04],0.0,0.0
1786957643.2637727,6.493241420127063e-06,-2.561413204454676e-10,0.0005859597048503139,"[9.97569682e-03 1.14636212e-12 0.00000000e+00 0.00000000e+00
 0.00000000e+00 3.85192890e-08 1.14636212e-12 9.97565939e-03
 0.00000000e+00 0.00000000e+00 0.00000000e+00 1.17981432e-12
 0.00000000e+00 0.00000000e+00 0.00000000e+00 0.00000000e+00
 0.00000000e+00 0.00000000e+00 0.00000000e+00 0.00000000e+00
 0.00000000e+00 0.00000000e+00 0.00000000e+00 0.00000000e+00
 0.00000000e+00 0.00000000e+00 0.00000000e+00 0.00000000e+00
 0.00000000e+00 0.00000000e+00 3.85192890e-08 1.17981432e-12
 0.00000000e+00 0.00000000e+00 0.00000000e+00 9.97644173e-03]","[[9.97569682e-06 1.14636212e-15 3.85192890e-11]
 [1.14636212e-15 9.97565939e-06 1.17981432e-15]
 [3.85192890e-11 1.17981432e-15 9.97644173e-06]]",[-6.49330622e-06  2.56143875e-10 -5.85965551e-04],0.0,0.0
1786957643.3160632,6.493111825741676e-06,-2.5613621184078295e-10,0.0006173997257512553,"[9.97549812e-03 1.34435873e-12 0.00000000e+00 0.00000000e+00
 0.00000000e+00 3.88564946e-08 1.34435873e-12 9.97546037e-03
 0.00000000e+00 0.00000000e+00 0.00000000e+00 1.38358892e-12
 0.00000000e+00 0.00000000e+00 0.00000000e+00 0.00000000e+00
 0.00000000e+00 0.00000000e+00 0.00000000e+00 0.00000000e+00
 0.00000000e+00 0.00000000e+00 0.00000000e+00 0.00000000e+00
 0.00000000e+00 0.00000000e+00 0.00000000e+00 0.00000000e+00
 0.00000000e+00 0.00000000e+00 3.88564946e-08 1.38358892e-12
 0.00000000e+00 0.00000000e+00 0.00000000e+00 9.97624956e-03]","[[9.97549812e-06 1.34435873e-15 3.88564946e-11]
 [1.34435873e-15 9.97546037e-06 1.38358892e-15]
 [3.88564946e-11 1.38358892e-15 9.97624956e-06]]",[-6.49317662e-06  2.56138766e-10 -6.17405885e-04],0.0,0.0
1786957643.3642144,6.492917449517219e-06,-2.5612854947514157e-10,0.0005055885345748302,"[9.97520001e-03 1.58884219e-12 0.00000000e+00 0.00000000e+00
 0.00000000e+00 3.92738502e-08 1.58884219e-12 9.97516185e-03
 0.00000000e+00 0.00000000e+00 0.00000000e+00 1.63520697e-12
 0.00000000e+00 0.00000000e+00 0.00000000e+00 0.00000000e+00
 0.00000000e+00 0.00000000e+00 0.00000000e+00 0.00000000e+00
 0.00000000e+00 0.00000000e+00 0.00000000e+00 0.00000000e+00
 0.00000000e+00 0.00000000e+00 0.00000000e+00 0.00000000e+00
 0.00000000e+00 0.00000000e+00 3.92738502e-08 1.63520697e-12
 0.00000000e+00 0.00000000e+00 0.00000000e+00 9.97595952e-03]","[[9.97520001e-06 1.58884219e-15 3.92738502e-11]
 [1.58884219e-15 9.97516185e-06 1.63520697e-15]
 [3.92738502e-11 1.63520697e-15 9.97595952e-06]]",[-6.49298224e-06  2.56131104e-10 -5.05593578e-04],0.0,0.0
1786957643.4143028,6.492723097882721e-06,-2.561208873714941e-10,0.00045565132362090926,"[9.97490196e-03 1.80456810e-12 0.00000000e+00 0.00000000e+00
 0.00000000e+00 3.97433562e-08 1.80456810e-12 9.97486334e-03
 0.00000000e+00 0.00000000e+00 0.00000000e+00 1.85722823e-12
 0.00000000e+00 0.00000000e+00 0.00000000e+00 0.00000000e+00
 0.00000000e+00 0.00000000e+00 0.00000000e+00 0.00000000e+00
 0.00000000e+00 0.00000000e+00 0.00000000e+00 0.00000000e+00
 0.00000000e+00 0.00000000e+00 0.00000000e+00 0.00000000e+00
 0.00000000e+00 0.00000000e+00 3.97433562e-08 1.85722823e-12
 0.00000000e+00 0.00000000e+00 0.00000000e+00 9.97567055e-03]","[[9.97500131e-06 1.73754215e-15 3.95891695e-11]
 [1.73754215e-15 9.97496284e-06 1.78824632e-15]
 [3.95891695e-11 1.78824632e-15 9.97576692e-06]]",[-6.49285266e-06  2.56125995e-10 -4.45346374e-04],0.0,0.0
1786957643.464299,6.4925935349338605e-06,-2.5611577977480195e-10,0.0004587985787787298,"[9.97470327e-03 1.94565416e-12 0.00000000e+00 0.00000000e+00
 0.00000000e+00 4.00570305e-08 1.94565416e-12 9.97466435e-03
 0.00000000e+00 0.00000000e+00 0.00000000e+00 2.00243149e-12
 0.00000000e+00 0.00000000e+00 0.00000000e+00 0.00000000e+00
 0.00000000e+00 0.00000000e+00 0.00000000e+00 0.00000000e+00
 0.00000000e+00 0.00000000e+00 0.00000000e+00 0.00000000e+00
 0.00000000e+00 0.00000000e+00 0.00000000e+00 0.00000000e+00
 0.00000000e+00 0.00000000e+00 4.00570305e-08 2.00243149e-12
 0.00000000e+00 0.00000000e+00 0.00000000e+00 9.97547793e-03]","[[9.97470327e-06 1.94565416e-15 4.00570305e-11]
 [1.94565416e-15 9.97466435e-06 2.00243149e-15]
 [4.00570305e-11 2.00243149e-15 9.97547793e-06]]",[-6.49265832e-06  2.56118334e-10 -4.58803156e-04],0.0,0.0
1786957643.5150876,6.4924639782148606e-06,-2.5611067244324916e-10,0.0004398497034632243,"[9.97450459e-03 2.08181525e-12 0.00000000e+00 0.00000000e+00
 0.00000000e+00 4.03635180e-08 2.08181525e-12 9.97446537e-03
 0.00000000e+00 0.00000000e+00 0.00000000e+00 2.14256606e-12
 0.00000000e+00 0.00000000e+00 0.00000000e+00 0.00000000e+00
 0.00000000e+00 0.00000000e+00 0.00000000e+00 0.00000000e+00
 0.00000000e+00 0.00000000e+00 0.00000000e+00 0.00000000e+00
 0.00000000e+00 0.00000000e+00 0.00000000e+00 0.00000000e+00
 0.00000000e+00 0.00000000e+00 4.03635180e-08 2.14256606e-12
 0.00000000e+00 0.00000000e+00 0.00000000e+00 9.97528517e-03]","[[9.97450459e-06 2.08181525e-15 4.03635180e-11]
 [2.08181525e-15 9.97446537e-06 2.14256606e-15]
 [4.03635180e-11 2.14256606e-15 9.97528517e-06]]",[-6.49252876e-06  2.56113226e-10 -4.39854091e-04],0.0,0.0
1786957643.5663128,6.492269653879606e-06,-2.5610301198163207e-10,0.000454987923176553,"[9.97420658e-03 2.27675127e-12 0.00000000e+00 0.00000000e+00
 0.00000000e+00 4.08290303e-08 2.27675127e-12 9.97416691e-03
 0.00000000e+00 0.00000000e+00 0.00000000e+00 2.34319073e-12
 0.00000000e+00 0.00000000e+00 0.00000000e+00 0.00000000e+00
 0.00000000e+00 0.00000000e+00 0.00000000e+00 0.00000000e+00
 0.00000000e+00 0.00000000e+00 0.00000000e+00 0.00000000e+00
 0.00000000e+00 0.00000000e+00 0.00000000e+00 0.00000000e+00
 0.00000000e+00 0.00000000e+00 4.08290303e-08 2.34319073e-12
 0.00000000e+00 0.00000000e+00 0.00000000e+00 9.97499616e-03]","[[9.97420658e-06 2.27675127e-15 4.08290303e-11]
 [2.27675127e-15 9.97416691e-06 2.34319073e-15]
 [4.08290303e-11 2.34319073e-15 9.97499616e-06]]",[-6.49233443e-06  2.56105565e-10 -4.54992462e-04],0.0,0.0
1786957643.6178148,6.49214010232114e-06,-2.560979058953153e-10,0.0005599504449249615,"[9.97400791e-03 2.41873147e-12 0.00000000e+00 0.00000000e+00
 0.00000000e+00 4.11329717e-08 2.41873147e-12 9.97396794e-03
 0.00000000e+00 0.00000000e+00 0.00000000e+00 2.48931424e-12
 0.00000000e+00 0.00000000e+00 0.00000000e+00 0.00000000e+00
 0.00000000e+00 0.00000000e+00 0.00000000e+00 0.00000000e+00
 0.00000000e+00 0.00000000e+00 0.00000000e+00 0.00000000e+00
 0.00000000e+00 0.00000000e+00 0.00000000e+00 0.00000000e+00
 0.00000000e+00 0.00000000e+00 4.11329717e-08 2.48931424e-12
 0.00000000e+00 0.00000000e+00 0.00000000e+00 9.97480337e-03]","[[9.97400791e-06 2.41873147e-15 4.11329717e-11]
 [2.41873147e-15 9.97396794e-06 2.48931424e-15]
 [4.11329717e-11 2.48931424e-15 9.97480337e-06]]",[-6.49220488e-06  2.56100459e-10 -5.59956030e-04],0.0,0.0
1786957643.665161,6.4919457647254965e-06,-2.5609024879393305e-10,0.000752839929492044,"[9.97370994e-03 2.70282783e-12 0.00000000e+00 0.00000000e+00
 0.00000000e+00 4.16086051e-08 2.70282783e-12 9.97366951e-03
 0.00000000e+00 0.00000000e+00 0.00000000e+00 2.78170117e-12
 0.00000000e+00 0.00000000e+00 0.00000000e+00 0.00000000e+00
 0.00000000e+00 0.00000000e+00 0.00000000e+00 0.00000000e+00
 0.00000000e+00 0.00000000e+00 0.00000000e+00 0.00000000e+00
 0.00000000e+00 0.00000000e+00 0.00000000e+00 0.00000000e+00
 0.00000000e+00 0.00000000e+00 4.16086051e-08 2.78170117e-12
 0.00000000e+00 0.00000000e+00 0.00000000e+00 9.97451460e-03]","[[9.97370994e-06 2.70282783e-15 4.16086051e-11]
 [2.70282783e-15 9.97366951e-06 2.78170117e-15]
 [4.16086051e-11 2.78170117e-15 9.97451460e-06]]",[-6.49201055e-06  2.56092801e-10 -7.52847439e-04],0.0,0.0
1786957643.716002,6.491816198627437e-06,-2.560851456580618e-10,0.0008696158004211085,"[9.97351131e-03 2.94974420e-12 0.00000000e+00 0.00000000e+00
 0.00000000e+00 4.19275847e-08 2.94974420e-12 9.97347057e-03
 0.00000000e+00 0.00000000e+00 0.00000000e+00 3.03582316e-12
 0.00000000e+00 0.00000000e+00 0.00000000e+00 0.00000000e+00
 0.00000000e+00 0.00000000e+00 0.00000000e+00 0.00000000e+00
 0.00000000e+00 0.00000000e+00 0.00000000e+00 0.00000000e+00
 0.00000000e+00 0.00000000e+00 0.00000000e+00 0.00000000e+00
 0.00000000e+00 0.00000000e+00 4.19275847e-08 3.03582316e-12
 0.00000000e+00 0.00000000e+00 0.00000000e+00 9.97432214e-03]","[[9.97351131e-06 2.94974420e-15 4.19275847e-11]
 [2.94974420e-15 9.97347057e-06 3.03582316e-15]
 [4.19275847e-11 3.03582316e-15 9.97432214e-06]]",[-6.49188098e-06  2.56087697e-10 -8.69624474e-04],0.0,0.0
1786957643.765348,6.491621847207707e-06,-2.56077493101052e-10,0.0009508864045795208,"[9.97321335e-03 3.35368742e-12 0.00000000e+00 0.00000000e+00
 0.00000000e+00 4.23844645e-08 3.35368742e-12 9.97317217e-03
 0.00000000e+00 0.00000000e+00 0.00000000e+00 3.45155445e-12
 0.00000000e+00 0.00000000e+00 0.00000000e+00 0.00000000e+00
 0.00000000e+00 0.00000000e+00 0.00000000e+00 0.00000000e+00
 0.00000000e+00 0.00000000e+00 0.00000000e+00 0.00000000e+00
 0.00000000e+00 0.00000000e+00 0.00000000e+00 0.00000000e+00
 0.00000000e+00 0.00000000e+00 4.23844645e-08 3.45155445e-12
 0.00000000e+00 0.00000000e+00 0.00000000e+00 9.97403301e-03]","[[9.97321335e-06 3.35368742e-15 4.23844645e-11]
 [3.35368742e-15 9.97317217e-06 3.45155445e-15]
 [4.23844645e-11 3.45155445e-15 9.97403301e-06]]",[-6.49168663e-06  2.56080044e-10 -9.50895889e-04],0.0,0.0
1786957643.8141325,6.491492283809325e-06,-2.560723924457554e-10,0.0009506739796671937,"[9.97301472e-03 3.63763259e-12 0.00000000e+00 0.00000000e+00
 0.00000000e+00 4.26891866e-08 3.63763259e-12 9.97297324e-03
 0.00000000e+00 0.00000000e+00 0.00000000e+00 3.74378586e-12
 0.00000000e+00 0.00000000e+00 0.00000000e+00 0.00000000e+00
 0.00000000e+00 0.00000000e+00 0.00000000e+00 0.00000000e+00
 0.00000000e+00 0.00000000e+00 0.00000000e+00 0.00000000e+00
 0.00000000e+00 0.00000000e+00 0.00000000e+00 0.00000000e+00
 0.00000000e+00 0.00000000e+00 4.26891866e-08 3.74378586e-12
 0.00000000e+00 0.00000000e+00 0.00000000e+00 9.97384028e-03]","[[9.97301472e-06 3.63763259e-15 4.26891866e-11]
 [3.63763259e-15 9.97297324e-06 3.74378586e-15]
 [4.26891866e-11 3.74378586e-15 9.97384028e-06]]",[-6.49155706e-06  2.56074943e-10 -9.50683462e-04],0.0,0.0
1786957643.8640444,6.4912979502228175e-06,-2.5606474262703636e-10,0.0009138830648973696,"[9.97271681e-03 4.07075280e-12 0.00000000e+00 0.00000000e+00
 0.00000000e+00 4.31592774e-08 4.07075280e-12 9.97267487e-03
 0.00000000e+00 0.00000000e+00 0.00000000e+00 4.18954562e-12
 0.00000000e+00 0.00000000e+00 0.00000000e+00 0.00000000e+00
 0.00000000e+00 0.00000000e+00 0.00000000e+00 0.00000000e+00
 0.00000000e+00 0.00000000e+00 0.00000000e+00 0.00000000e+00
 0.00000000e+00 0.00000000e+00 0.00000000e+00 0.00000000e+00
 0.00000000e+00 0.00000000e+00 4.31592774e-08 4.18954562e-12
 0.00000000e+00 0.00000000e+00 0.00000000e+00 9.97355145e-03]","[[9.97271681e-06 4.07075280e-15 4.31592774e-11]
 [4.07075280e-15 9.97267487e-06 4.18954562e-15]
 [4.31592774e-11 4.18954562e-15 9.97355145e-06]]",[-6.49136273e-06  2.56067292e-10 -9.13892180e-04],0.0,0.0
1786957643.9145362,6.491168406672054e-06,-2.560596430183604e-10,0.0008216547086830062,"[9.97251821e-03 4.34918917e-12 0.00000000e+00 0.00000000e+00
 0.00000000e+00 4.34753441e-08 4.34918917e-12 9.97247597e-03
 0.00000000e+00 0.00000000e+00 0.00000000e+00 4.47610746e-12
 0.00000000e+00 0.00000000e+00 0.00000000e+00 0.00000000e+00
 0.00000000e+00 0.00000000e+00 0.00000000e+00 0.00000000e+00
 0.00000000e+00 0.00000000e+00 0.00000000e+00 0.00000000e+00
 0.00000000e+00 0.00000000e+00 0.00000000e+00 0.00000000e+00
 0.00000000e+00 0.00000000e+00 4.34753441e-08 4.47610746e-12
 0.00000000e+00 0.00000000e+00 0.00000000e+00 9.97335897e-03]","[[9.97251821e-06 4.34918917e-15 4.34753441e-11]
 [4.34918917e-15 9.97247597e-06 4.47610746e-15]
 [4.34753441e-11 4.47610746e-15 9.97335897e-06]]",[-6.49123318e-06  2.56062193e-10 -8.21662903e-04],0.0,0.0
1786957643.964181,6.490974122111228e-06,-2.560519924022684e-10,0.0006186093618270051,"[9.97222030e-03 4.67609811e-12 0.00000000e+00 0.00000000e+00
 0.00000000e+00 4.39186019e-08 4.67609811e-12 9.97217762e-03
 0.00000000e+00 0.00000000e+00 0.00000000e+00 4.81255637e-12
 0.00000000e+00 0.00000000e+00 0.00000000e+00 0.00000000e+00
 0.00000000e+00 0.00000000e+00 0.00000000e+00 0.00000000e+00
 0.00000000e+00 0.00000000e+00 0.00000000e+00 0.00000000e+00
 0.00000000e+00 0.00000000e+00 0.00000000e+00 0.00000000e+00
 0.00000000e+00 0.00000000e+00 4.39186019e-08 4.81255637e-12
 0.00000000e+00 0.00000000e+00 0.00000000e+00 9.97306963e-03]","[[9.97222030e-06 4.67609811e-15 4.39186019e-11]
 [4.67609811e-15 9.97217762e-06 4.81255637e-15]
 [4.39186019e-11 4.81255637e-15 9.97306963e-06]]",[-6.49103888e-06  2.56054543e-10 -6.18615531e-04],0.0,0.0
1786957644.0146682,6.49084462029765e-06,-2.560468908976545e-10,0.00048678650732059126,"[9.97202179e-03 4.89154644e-12 0.00000000e+00 0.00000000e+00
 0.00000000e+00 4.43027413e-08 4.89154644e-12 9.97197874e-03
 0.00000000e+00 0.00000000e+00 0.00000000e+00 5.03429197e-12
 0.00000000e+00 0.00000000e+00 0.00000000e+00 0.00000000e+00
 0.00000000e+00 0.00000000e+00 0.00000000e+00 0.00000000e+00
 0.00000000e+00 0.00000000e+00 0.00000000e+00 0.00000000e+00
 0.00000000e+00 0.00000000e+00 0.00000000e+00 0.00000000e+00
 0.00000000e+00 0.00000000e+00 4.43027413e-08 5.03429197e-12
 0.00000000e+00 0.00000000e+00 0.00000000e+00 9.97287855e-03]","[[9.97202179e-06 4.89154644e-15 4.43027413e-11]
 [4.89154644e-15 9.97197874e-06 5.03429197e-15]
 [4.43027413e-11 5.03429197e-15 9.97287855e-06]]",[-6.49090937e-06  2.56049442e-10 -4.86791362e-04],0.0,0.0
1786957644.0640924,6.490650389296635e-06,-2.5603923784124327e-10,0.00039183670613951454,"[9.97172387e-03 5.06843878e-12 0.00000000e+00 0.00000000e+00
 0.00000000e+00 4.47080960e-08 5.06843878e-12 9.97168043e-03
 0.00000000e+00 0.00000000e+00 0.00000000e+00 5.21634640e-12
 0.00000000e+00 0.00000000e+00 0.00000000e+00 0.00000000e+00
 0.00000000e+00 0.00000000e+00 0.00000000e+00 0.00000000e+00
 0.00000000e+00 0.00000000e+00 0.00000000e+00 0.00000000e+00
 0.00000000e+00 0.00000000e+00 0.00000000e+00 0.00000000e+00
 0.00000000e+00 0.00000000e+00 4.47080960e-08 5.21634640e-12
 0.00000000e+00 0.00000000e+00 0.00000000e+00 9.97258847e-03]","[[9.97172387e-06 5.06843878e-15 4.47080960e-11]
 [5.06843878e-15 9.97168043e-06 5.21634640e-15]
 [4.47080960e-11 5.21634640e-15 9.97258847e-06]]",[-6.49071513e-06  2.56041789e-10 -3.91840614e-04],0.0,0.0
1786957644.1162658,6.490520912266724e-06,-2.5603413570117454e-10,0.0003858920964971979,"[9.97152530e-03 5.18219863e-12 0.00000000e+00 0.00000000e+00
 0.00000000e+00 4.50171779e-08 5.18219863e-12 9.97148156e-03
 0.00000000e+00 0.00000000e+00 0.00000000e+00 5.33342601e-12
 0.00000000e+00 0.00000000e+00 0.00000000e+00 0.00000000e+00
 0.00000000e+00 0.00000000e+00 0.00000000e+00 0.00000000e+00
 0.00000000e+00 0.00000000e+00 0.00000000e+00 0.00000000e+00
 0.00000000e+00 0.00000000e+00 0.00000000e+00 0.00000000e+00
 0.00000000e+00 0.00000000e+00 4.50171779e-08 5.33342601e-12
 0.00000000e+00 0.00000000e+00 0.00000000e+00 9.97239588e-03]","[[9.97152530e-06 5.18219863e-15 4.50171779e-11]
 [5.18219863e-15 9.97148156e-06 5.33342601e-15]
 [4.50171779e-11 5.33342601e-15 9.97239588e-06]]",[-6.49058565e-06  2.56036687e-10 -3.85895945e-04],0.0,0.0
1786957644.1653152,6.490326698962083e-06,-2.5602648388774415e-10,0.00044012325534126273,"[9.97122747e-03 5.36459028e-12 0.00000000e+00 0.00000000e+00
 0.00000000e+00 4.54745112e-08 5.36459028e-12 9.97118328e-03
 0.00000000e+00 0.00000000e+00 0.00000000e+00 5.52114022e-12
 0.00000000e+00 0.00000000e+00 0.00000000e+00 0.00000000e+00
 0.00000000e+00 0.00000000e+00 0.00000000e+00 0.00000000e+00
 0.00000000e+00 0.00000000e+00 0.00000000e+00 0.00000000e+00
 0.00000000e+00 0.00000000e+00 0.00000000e+00 0.00000000e+00
 0.00000000e+00 0.00000000e+00 4.54745112e-08 5.52114022e-12
 0.00000000e+00 0.00000000e+00 0.00000000e+00 9.97210689e-03]","[[9.97122747e-06 5.36459028e-15 4.54745112e-11]
 [5.36459028e-15 9.97118328e-06 5.52114022e-15]
 [4.54745112e-11 5.52114022e-15 9.97210689e-06]]",[-6.49039144e-06  2.56029034e-10 -4.40127644e-04],0.0,0.0
1786957644.214412,6.490197225113036e-06,-2.560213836270832e-10,0.0004993129954846687,"[9.97102893e-03 5.50516269e-12 0.00000000e+00 0.00000000e+00
 0.00000000e+00 4.57980786e-08 5.50516269e-12 9.97098444e-03
 0.00000000e+00 0.00000000e+00 0.00000000e+00 5.66581484e-12
 0.00000000e+00 0.00000000e+00 0.00000000e+00 0.00000000e+00
 0.00000000e+00 0.00000000e+00 0.00000000e+00 0.00000000e+00
 0.00000000e+00 0.00000000e+00 0.00000000e+00 0.00000000e+00
 0.00000000e+00 0.00000000e+00 0.00000000e+00 0.00000000e+00
 0.00000000e+00 0.00000000e+00 4.57980786e-08 5.66581484e-12
 0.00000000e+00 0.00000000e+00 0.00000000e+00 9.97191461e-03]","[[9.97102893e-06 5.50516269e-15 4.57980786e-11]
 [5.50516269e-15 9.97098444e-06 5.66581484e-15]
 [4.57980786e-11 5.66581484e-15 9.97191461e-06]]",[-6.49026196e-06  2.56023934e-10 -4.99317975e-04],0.0,0.0
1786957644.2676337,6.490003000982725e-06,-2.5601373677529267e-10,0.0007172158617057001,"[9.97073113e-03 5.75197961e-12 0.00000000e+00 0.00000000e+00
 0.00000000e+00 4.62567296e-08 5.75197961e-12 9.97068618e-03
 0.00000000e+00 0.00000000e+00 0.00000000e+00 5.91983442e-12
 0.00000000e+00 0.00000000e+00 0.00000000e+00 0.00000000e+00
 0.00000000e+00 0.00000000e+00 0.00000000e+00 0.00000000e+00
 0.00000000e+00 0.00000000e+00 0.00000000e+00 0.00000000e+00
 0.00000000e+00 0.00000000e+00 0.00000000e+00 0.00000000e+00
 0.00000000e+00 0.00000000e+00 4.62567296e-08 5.91983442e-12
 0.00000000e+00 0.00000000e+00 0.00000000e+00 9.97162568e-03]","[[9.97073113e-06 5.75197961e-15 4.62567296e-11]
 [5.75197961e-15 9.97068618e-06 5.91983442e-15]
 [4.62567296e-11 5.91983442e-15 9.97162568e-06]]",[-6.49006774e-06  2.56016285e-10 -7.17223014e-04],0.0,0.0
1786957644.3161662,6.489873508437495e-06,-2.560086415150368e-10,0.0008078144310630365,"[9.97053260e-03 5.97902031e-12 0.00000000e+00 0.00000000e+00
 0.00000000e+00 4.65625429e-08 5.97902031e-12 9.97048736e-03
 0.00000000e+00 0.00000000e+00 0.00000000e+00 6.15350070e-12
 0.00000000e+00 0.00000000e+00 0.00000000e+00 0.00000000e+00
 0.00000000e+00 0.00000000e+00 0.00000000e+00 0.00000000e+00
 0.00000000e+00 0.00000000e+00 0.00000000e+00 0.00000000e+00
 0.00000000e+00 0.00000000e+00 0.00000000e+00 0.00000000e+00
 0.00000000e+00 0.00000000e+00 4.65625429e-08 6.15350070e-12
 0.00000000e+00 0.00000000e+00 0.00000000e+00 9.97143306e-03]","[[9.97053260e-06 5.97902031e-15 4.65625429e-11]
 [5.97902031e-15 9.97048736e-06 6.15350070e-15]
 [4.65625429e-11 6.15350070e-15 9.97143306e-06]]",[-6.48993825e-06  2.56011189e-10 -8.07822486e-04],0.0,0.0
1786957644.3642747,6.489679275818433e-06,-2.5600100013060944e-10,0.0008371599281415956,"[9.97023482e-03 6.34139124e-12 0.00000000e+00 0.00000000e+00
 0.00000000e+00 4.70185819e-08 6.34139124e-12 9.97018913e-03
 0.00000000e+00 0.00000000e+00 0.00000000e+00 6.52644648e-12
 0.00000000e+00 0.00000000e+00 0.00000000e+00 0.00000000e+00
 0.00000000e+00 0.00000000e+00 0.00000000e+00 0.00000000e+00
 0.00000000e+00 0.00000000e+00 0.00000000e+00 0.00000000e+00
 0.00000000e+00 0.00000000e+00 0.00000000e+00 0.00000000e+00
 0.00000000e+00 0.00000000e+00 4.70185819e-08 6.52644648e-12
 0.00000000e+00 0.00000000e+00 0.00000000e+00 9.97114410e-03]","[[9.97023482e-06 6.34139124e-15 4.70185819e-11]
 [6.34139124e-15 9.97018913e-06 6.52644648e-15]
 [4.70185819e-11 6.52644648e-15 9.97114410e-06]]",[-6.48974402e-06  2.56003547e-10 -8.37168276e-04],0.0,0.0
1786957644.4140995,6.48954979255227e-06,-2.559959067417428e-10,0.0008121488631371854,"[9.97003631e-03 6.59024790e-12 0.00000000e+00 0.00000000e+00
 0.00000000e+00 4.73206483e-08 6.59024790e-12 9.96999033e-03
 0.00000000e+00 0.00000000e+00 0.00000000e+00 6.78256539e-12
 0.00000000e+00 0.00000000e+00 0.00000000e+00 0.00000000e+00
 0.00000000e+00 0.00000000e+00 0.00000000e+00 0.00000000e+00
 0.00000000e+00 0.00000000e+00 0.00000000e+00 0.00000000e+00
 0.00000000e+00 0.00000000e+00 0.00000000e+00 0.00000000e+00
 0.00000000e+00 0.00000000e+00 4.73206483e-08 6.78256539e-12
 0.00000000e+00 0.00000000e+00 0.00000000e+00 9.97095143e-03]","[[9.97003631e-06 6.59024790e-15 4.73206483e-11]
 [6.59024790e-15 9.96999033e-06 6.78256539e-15]
 [4.73206483e-11 6.78256539e-15 9.97095143e-06]]",[-6.48961453e-06  2.55998453e-10 -8.12156961e-04],0.0,0.0
1786957644.4651272,6.48935559034105e-06,-2.55988265753538e-10,0.0006982122606524754,"[9.96973858e-03 6.94881461e-12 0.00000000e+00 0.00000000e+00
 0.00000000e+00 4.77959612e-08 6.94881461e-12 9.96969214e-03
 0.00000000e+00 0.00000000e+00 0.00000000e+00 7.15159591e-12
 0.00000000e+00 0.00000000e+00 0.00000000e+00 0.00000000e+00
 0.00000000e+00 0.00000000e+00 0.00000000e+00 0.00000000e+00
 0.00000000e+00 0.00000000e+00 0.00000000e+00 0.00000000e+00
 0.00000000e+00 0.00000000e+00 0.00000000e+00 0.00000000e+00
 0.00000000e+00 0.00000000e+00 4.77959612e-08 7.15159591e-12
 0.00000000e+00 0.00000000e+00 0.00000000e+00 9.97066289e-03]","[[9.96973858e-06 6.94881461e-15 4.77959612e-11]
 [6.94881461e-15 9.96969214e-06 7.15159591e-15]
 [4.77959612e-11 7.15159591e-15 9.97066289e-06]]",[-6.48942032e-06  2.55990813e-10 -6.98219222e-04],0.0,0.0
1786957644.5145478,6.489226138223873e-06,-2.5598317087438547e-10,0.0005926451938185195,"[9.96954008e-03 7.14822432e-12 0.00000000e+00 0.00000000e+00
 0.00000000e+00 4.80961605e-08 7.14822432e-12 9.96949335e-03
 0.00000000e+00 0.00000000e+00 0.00000000e+00 7.35682485e-12
 0.00000000e+00 0.00000000e+00 0.00000000e+00 0.00000000e+00
 0.00000000e+00 0.00000000e+00 0.00000000e+00 0.00000000e+00
 0.00000000e+00 0.00000000e+00 0.00000000e+00 0.00000000e+00
 0.00000000e+00 0.00000000e+00 0.00000000e+00 0.00000000e+00
 0.00000000e+00 0.00000000e+00 4.80961605e-08 7.35682485e-12
 0.00000000e+00 0.00000000e+00 0.00000000e+00 9.97047020e-03]","[[9.96954008e-06 7.14822432e-15 4.80961605e-11]
 [7.14822432e-15 9.96949335e-06 7.35682485e-15]
 [4.80961605e-11 7.35682485e-15 9.97047020e-06]]",[-6.48929086e-06  2.55985719e-10 -5.92651103e-04],0.0,0.0
1786957644.5661325,6.48903199125664e-06,-2.559755259015804e-10,0.00045194471158715993,"[9.96924239e-03 7.39503653e-12 0.00000000e+00 0.00000000e+00
 0.00000000e+00 4.85838276e-08 7.39503653e-12 9.96919519e-03
 0.00000000e+00 0.00000000e+00 0.00000000e+00 7.61083958e-12
 0.00000000e+00 0.00000000e+00 0.00000000e+00 0.00000000e+00
 0.00000000e+00 0.00000000e+00 0.00000000e+00 0.00000000e+00
 0.00000000e+00 0.00000000e+00 0.00000000e+00 0.00000000e+00
 0.00000000e+00 0.00000000e+00 0.00000000e+00 0.00000000e+00
 0.00000000e+00 0.00000000e+00 4.85838276e-08 7.61083958e-12
 0.00000000e+00 0.00000000e+00 0.00000000e+00 9.97018195e-03]","[[9.96924239e-06 7.39503653e-15 4.85838276e-11]
 [7.39503653e-15 9.96919519e-06 7.61083958e-15]
 [4.85838276e-11 7.61083958e-15 9.97018195e-06]]",[-6.48909670e-06  2.55978074e-10 -4.51949218e-04],0.0,0.0
1786957644.614347,6.4889025667648335e-06,-2.5597042956431906e-10,0.0004826524689893752,"[9.96904391e-03 7.52275176e-12 0.00000000e+00 0.00000000e+00
 0.00000000e+00 4.88734324e-08 7.52275176e-12 9.96899642e-03
 0.00000000e+00 0.00000000e+00 0.00000000e+00 7.74228181e-12
 0.00000000e+00 0.00000000e+00 0.00000000e+00 0.00000000e+00
 0.00000000e+00 0.00000000e+00 0.00000000e+00 0.00000000e+00
 0.00000000e+00 0.00000000e+00 0.00000000e+00 0.00000000e+00
 0.00000000e+00 0.00000000e+00 0.00000000e+00 0.00000000e+00
 0.00000000e+00 0.00000000e+00 4.88734324e-08 7.74228181e-12
 0.00000000e+00 0.00000000e+00 0.00000000e+00 9.96998906e-03]","[[9.96904391e-06 7.52275176e-15 4.88734324e-11]
 [7.52275176e-15 9.96899642e-06 7.74228181e-15]
 [4.88734324e-11 7.74228181e-15 9.96998906e-06]]",[-6.48896728e-06  2.55972978e-10 -4.82657281e-04],0.0,0.0
1786957644.6647365,6.488708427650039e-06,-2.559627875643174e-10,0.0005779364519478136,"[9.96874624e-03 7.76433479e-12 0.00000000e+00 0.00000000e+00
 0.00000000e+00 4.93543350e-08 7.76433479e-12 9.96869829e-03
 0.00000000e+00 0.00000000e+00 0.00000000e+00 7.99091474e-12
 0.00000000e+00 0.00000000e+00 0.00000000e+00 0.00000000e+00
 0.00000000e+00 0.00000000e+00 0.00000000e+00 0.00000000e+00
 0.00000000e+00 0.00000000e+00 0.00000000e+00 0.00000000e+00
 0.00000000e+00 0.00000000e+00 0.00000000e+00 0.00000000e+00
 0.00000000e+00 0.00000000e+00 4.93543350e-08 7.99091474e-12
 0.00000000e+00 0.00000000e+00 0.00000000e+00 9.96970070e-03]","[[9.96874624e-06 7.76433479e-15 4.93543350e-11]
 [7.76433479e-15 9.96869829e-06 7.99091474e-15]
 [4.93543350e-11 7.99091474e-15 9.96970070e-06]]",[-6.48877314e-06  2.55965335e-10 -5.77942214e-04],0.0,0.0
1786957644.7143114,6.488578999223921e-06,-2.559576947559917e-10,0.0006520985487670218,"[9.96854776e-03 7.92309709e-12 0.00000000e+00 0.00000000e+00
 0.00000000e+00 4.96284207e-08 7.92309709e-12 9.96849954e-03
 0.00000000e+00 0.00000000e+00 0.00000000e+00 8.15431008e-12
 0.00000000e+00 0.00000000e+00 0.00000000e+00 0.00000000e+00
 0.00000000e+00 0.00000000e+00 0.00000000e+00 0.00000000e+00
 0.00000000e+00 0.00000000e+00 0.00000000e+00 0.00000000e+00
 0.00000000e+00 0.00000000e+00 0.00000000e+00 0.00000000e+00
 0.00000000e+00 0.00000000e+00 4.96284207e-08 8.15431008e-12
 0.00000000e+00 0.00000000e+00 0.00000000e+00 9.96950752e-03]","[[9.96854776e-06 7.92309709e-15 4.96284207e-11]
 [7.92309709e-15 9.96849954e-06 8.15431008e-15]
 [4.96284207e-11 8.15431008e-15 9.96950752e-06]]",[-6.48864371e-06  2.55960241e-10 -6.52105050e-04],0.0,0.0
1786957644.7640548,6.488384850564108e-06,-2.5595005892268554e-10,0.0007604164924894798,"[9.96825011e-03 8.23992521e-12 0.00000000e+00 0.00000000e+00
 0.00000000e+00 5.00961623e-08 8.23992521e-12 9.96820144e-03
 0.00000000e+00 0.00000000e+00 0.00000000e+00 8.48038397e-12
 0.00000000e+00 0.00000000e+00 0.00000000e+00 0.00000000e+00
 0.00000000e+00 0.00000000e+00 0.00000000e+00 0.00000000e+00
 0.00000000e+00 0.00000000e+00 0.00000000e+00 0.00000000e+00
 0.00000000e+00 0.00000000e+00 0.00000000e+00 0.00000000e+00
 0.00000000e+00 0.00000000e+00 5.00961623e-08 8.48038397e-12
 0.00000000e+00 0.00000000e+00 0.00000000e+00 9.96921891e-03]","[[9.96825011e-06 8.23992521e-15 5.00961623e-11]
 [8.23992521e-15 9.96820144e-06 8.48038397e-15]
 [5.00961623e-11 8.48038397e-15 9.96921891e-06]]",[-6.48844957e-06  2.55952604e-10 -7.60424073e-04],0.0,0.0
1786957644.814774,6.488255416354632e-06,-2.5594497036230853e-10,0.0008210747210197768,"[9.96805168e-03 8.47151288e-12 0.00000000e+00 0.00000000e+00
 0.00000000e+00 5.04018504e-08 8.47151288e-12 9.96800271e-03
 0.00000000e+00 0.00000000e+00 0.00000000e+00 8.71872991e-12
 0.00000000e+00 0.00000000e+00 0.00000000e+00 0.00000000e+00
 0.00000000e+00 0.00000000e+00 0.00000000e+00 0.00000000e+00
 0.00000000e+00 0.00000000e+00 0.00000000e+00 0.00000000e+00
 0.00000000e+00 0.00000000e+00 0.00000000e+00 0.00000000e+00
 0.00000000e+00 0.00000000e+00 5.04018504e-08 8.71872991e-12
 0.00000000e+00 0.00000000e+00 0.00000000e+00 9.96902639e-03]","[[9.96805168e-06 8.47151288e-15 5.04018504e-11]
 [8.47151288e-15 9.96800271e-06 8.71872991e-15]
 [5.04018504e-11 8.71872991e-15 9.96902639e-06]]",[-6.48832013e-06  2.55947514e-10 -8.21082906e-04],0.0,0.0
1786957644.8639805,6.488061274936737e-06,-2.559373384611742e-10,0.0007820093054711208,"[9.96775406e-03 8.83502952e-12 0.00000000e+00 0.00000000e+00
 0.00000000e+00 5.08606631e-08 8.83502952e-12 9.96770464e-03
 0.00000000e+00 0.00000000e+00 0.00000000e+00 9.09285482e-12
 0.00000000e+00 0.00000000e+00 0.00000000e+00 0.00000000e+00
 0.00000000e+00 0.00000000e+00 0.00000000e+00 0.00000000e+00
 0.00000000e+00 0.00000000e+00 0.00000000e+00 0.00000000e+00
 0.00000000e+00 0.00000000e+00 0.00000000e+00 0.00000000e+00
 0.00000000e+00 0.00000000e+00 5.08606631e-08 9.09285482e-12
 0.00000000e+00 0.00000000e+00 0.00000000e+00 9.96873764e-03]","[[9.96775406e-06 8.83502952e-15 5.08606631e-11]
 [8.83502952e-15 9.96770464e-06 9.09285482e-15]
 [5.08606631e-11 9.09285482e-15 9.96873764e-06]]",[-6.48812599e-06  2.55939882e-10 -7.82017101e-04],0.0,0.0
1786957644.913968,6.487931857376406e-06,-2.559322505123429e-10,0.0007479643393013549,"[9.96755567e-03 9.08488481e-12 0.00000000e+00 0.00000000e+00
 0.00000000e+00 5.11916263e-08 9.08488481e-12 9.96750593e-03
 0.00000000e+00 0.00000000e+00 0.00000000e+00 9.35000147e-12
 0.00000000e+00 0.00000000e+00 0.00000000e+00 0.00000000e+00
 0.00000000e+00 0.00000000e+00 0.00000000e+00 0.00000000e+00
 0.00000000e+00 0.00000000e+00 0.00000000e+00 0.00000000e+00
 0.00000000e+00 0.00000000e+00 0.00000000e+00 0.00000000e+00
 0.00000000e+00 0.00000000e+00 5.11916263e-08 9.35000147e-12
 0.00000000e+00 0.00000000e+00 0.00000000e+00 9.96854565e-03]","[[9.96755567e-06 9.08488481e-15 5.11916263e-11]
 [9.08488481e-15 9.96750593e-06 9.35000147e-15]
 [5.11916263e-11 9.35000147e-15 9.96854565e-06]]",[-6.48799657e-06  2.55934794e-10 -7.47971795e-04],0.0,0.0
1786957644.9656126,6.48773774175012e-06,-2.559246192866334e-10,0.0007466174111612212,"[9.96725805e-03 9.40465024e-12 0.00000000e+00 0.00000000e+00
 0.00000000e+00 5.16311373e-08 9.40465024e-12 9.96720789e-03
 0.00000000e+00 0.00000000e+00 0.00000000e+00 9.67909839e-12
 0.00000000e+00 0.00000000e+00 0.00000000e+00 0.00000000e+00
 0.00000000e+00 0.00000000e+00 0.00000000e+00 0.00000000e+00
 0.00000000e+00 0.00000000e+00 0.00000000e+00 0.00000000e+00
 0.00000000e+00 0.00000000e+00 0.00000000e+00 0.00000000e+00
 0.00000000e+00 0.00000000e+00 5.16311373e-08 9.67909839e-12
 0.00000000e+00 0.00000000e+00 0.00000000e+00 9.96825654e-03]","[[9.96725805e-06 9.40465024e-15 5.16311373e-11]
 [9.40465024e-15 9.96720789e-06 9.67909839e-15]
 [5.16311373e-11 9.67909839e-15 9.96825654e-06]]",[-6.48780245e-06  2.55927163e-10 -7.46624854e-04],0.0,0.0
1786957645.016257,6.487608339563947e-06,-2.5591953202826233e-10,0.0006893511772227966,"[9.96705967e-03 9.63237704e-12 0.00000000e+00 0.00000000e+00
 0.00000000e+00 5.19421140e-08 9.63237704e-12 9.96700920e-03
 0.00000000e+00 0.00000000e+00 0.00000000e+00 9.91347079e-12
 0.00000000e+00 0.00000000e+00 0.00000000e+00 0.00000000e+00
 0.00000000e+00 0.00000000e+00 0.00000000e+00 0.00000000e+00
 0.00000000e+00 0.00000000e+00 0.00000000e+00 0.00000000e+00
 0.00000000e+00 0.00000000e+00 0.00000000e+00 0.00000000e+00
 0.00000000e+00 0.00000000e+00 5.19421140e-08 9.91347079e-12
 0.00000000e+00 0.00000000e+00 0.00000000e+00 9.96806417e-03]","[[9.96705967e-06 9.63237704e-15 5.19421140e-11]
 [9.63237704e-15 9.96700920e-06 9.91347079e-15]
 [5.19421140e-11 9.91347079e-15 9.96806417e-06]]",[-6.48767304e-06  2.55922076e-10 -6.89358049e-04],0.0,0.0
1786957645.0641422,6.487414265981942e-06,-2.5591189804260336e-10,0.0005541977678333865,"[9.96676210e-03 9.91812586e-12 0.00000000e+00 0.00000000e+00
 0.00000000e+00 5.24040607e-08 9.91812586e-12 9.96671118e-03
 0.00000000e+00 0.00000000e+00 0.00000000e+00 1.02075584e-11
 0.00000000e+00 0.00000000e+00 0.00000000e+00 0.00000000e+00
 0.00000000e+00 0.00000000e+00 0.00000000e+00 0.00000000e+00
 0.00000000e+00 0.00000000e+00 0.00000000e+00 0.00000000e+00
 0.00000000e+00 0.00000000e+00 0.00000000e+00 0.00000000e+00
 0.00000000e+00 0.00000000e+00 5.24040607e-08 1.02075584e-11
 0.00000000e+00 0.00000000e+00 0.00000000e+00 9.96777553e-03]","[[9.96676210e-06 9.91812586e-15 5.24040607e-11]
 [9.91812586e-15 9.96671118e-06 1.02075584e-14]
 [5.24040607e-11 1.02075584e-14 9.96777553e-06]]",[-6.48747895e-06  2.55914443e-10 -5.54203292e-04],0.0,0.0
1786957645.1139078,6.487284896445383e-06,-2.5590680789181544e-10,0.0005266088181152817,"[9.96656375e-03 1.00875631e-11 0.00000000e+00 0.00000000e+00
 0.00000000e+00 5.27278655e-08 1.00875631e-11 9.96651252e-03
 0.00000000e+00 0.00000000e+00 0.00000000e+00 1.03819401e-11
 0.00000000e+00 0.00000000e+00 0.00000000e+00 0.00000000e+00
 0.00000000e+00 0.00000000e+00 0.00000000e+00 0.00000000e+00
 0.00000000e+00 0.00000000e+00 0.00000000e+00 0.00000000e+00
 0.00000000e+00 0.00000000e+00 0.00000000e+00 0.00000000e+00
 0.00000000e+00 0.00000000e+00 5.27278655e-08 1.03819401e-11
 0.00000000e+00 0.00000000e+00 0.00000000e+00 9.96758344e-03]","[[9.96656375e-06 1.00875631e-14 5.27278655e-11]
 [1.00875631e-14 9.96651252e-06 1.03819401e-14]
 [5.27278655e-11 1.03819401e-14 9.96758344e-06]]",[-6.48734958e-06  2.55909353e-10 -5.26614067e-04],0.0,0.0
1786957645.1649754,6.487090847887394e-06,-2.5589917403686906e-10,0.0005536618665415994,"[9.96626621e-03 1.03257619e-11 0.00000000e+00 0.00000000e+00
 0.00000000e+00 5.31850266e-08 1.03257619e-11 9.96621453e-03
 0.00000000e+00 0.00000000e+00 0.00000000e+00 1.06270901e-11
 0.00000000e+00 0.00000000e+00 0.00000000e+00 0.00000000e+00
 0.00000000e+00 0.00000000e+00 0.00000000e+00 0.00000000e+00
 0.00000000e+00 0.00000000e+00 0.00000000e+00 0.00000000e+00
 0.00000000e+00 0.00000000e+00 0.00000000e+00 0.00000000e+00
 0.00000000e+00 0.00000000e+00 5.31850266e-08 1.06270901e-11
 0.00000000e+00 0.00000000e+00 0.00000000e+00 9.96729474e-03]","[[9.96626621e-06 1.03257619e-14 5.31850266e-11]
 [1.03257619e-14 9.96621453e-06 1.06270901e-14]
 [5.31850266e-11 1.06270901e-14 9.96729474e-06]]",[-6.48715553e-06  2.55901718e-10 -5.53667385e-04],0.0,0.0
1786957645.214166,6.486961484276173e-06,-2.5589408607710913e-10,0.0005965856797267578,"[9.96606785e-03 1.04880662e-11 0.00000000e+00 0.00000000e+00
 0.00000000e+00 5.34829077e-08 1.04880662e-11 9.96601589e-03
 0.00000000e+00 0.00000000e+00 0.00000000e+00 1.07941308e-11
 0.00000000e+00 0.00000000e+00 0.00000000e+00 0.00000000e+00
 0.00000000e+00 0.00000000e+00 0.00000000e+00 0.00000000e+00
 0.00000000e+00 0.00000000e+00 0.00000000e+00 0.00000000e+00
 0.00000000e+00 0.00000000e+00 0.00000000e+00 0.00000000e+00
 0.00000000e+00 0.00000000e+00 5.34829077e-08 1.07941308e-11
 0.00000000e+00 0.00000000e+00 0.00000000e+00 9.96710215e-03]","[[9.96606785e-06 1.04880662e-14 5.34829077e-11]
 [1.04880662e-14 9.96601589e-06 1.07941308e-14]
 [5.34829077e-11 1.07941308e-14 9.96710215e-06]]",[-6.48702617e-06  2.55896630e-10 -5.96591626e-04],0.0,0.0
1786957645.2641625,6.48676743389412e-06,-2.558864577791128e-10,0.000700181165719016,"[9.96577034e-03 1.07720981e-11 0.00000000e+00 0.00000000e+00
 0.00000000e+00 5.39434498e-08 1.07720981e-11 9.96571793e-03
 0.00000000e+00 0.00000000e+00 0.00000000e+00 1.10864513e-11
 0.00000000e+00 0.00000000e+00 0.00000000e+00 0.00000000e+00
 0.00000000e+00 0.00000000e+00 0.00000000e+00 0.00000000e+00
 0.00000000e+00 0.00000000e+00 0.00000000e+00 0.00000000e+00
 0.00000000e+00 0.00000000e+00 0.00000000e+00 0.00000000e+00
 0.00000000e+00 0.00000000e+00 5.39434498e-08 1.10864513e-11
 0.00000000e+00 0.00000000e+00 0.00000000e+00 9.96681355e-03]","[[9.96577034e-06 1.07720981e-14 5.39434498e-11]
 [1.07720981e-14 9.96571793e-06 1.10864513e-14]
 [5.39434498e-11 1.10864513e-14 9.96681355e-06]]",[-6.48683212e-06  2.55889000e-10 -7.00188144e-04],0.0,0.0
1786957645.3137813,6.486638065722493e-06,-2.55881374348093e-10,0.0007334720486920077,"[9.96557202e-03 1.09879926e-11 0.00000000e+00 0.00000000e+00
