time,x,y,yaw,cov_prop,K_gain,innovation,v_ekf,omega_ekf
1787564686.11298,2.0179984116490535,1.8674851363835323,2.4336385656663495,"[ 6.63133841e-05  2.66309240e-06  0.00000000e+00  0.00000000e+00
  0.00000000e+00 -8.28303684e-06  2.66309240e-06  5.39531469e-05
  0.00000000e+00  0.00000000e+00  0.00000000e+00 -2.36639916e-06
  0.00000000e+00  0.00000000e+00  0.00000000e+00  0.00000000e+00
  0.00000000e+00  0.00000000e+00  0.00000000e+00  0.00000000e+00
  0.00000000e+00  0.00000000e+00  0.00000000e+00  0.00000000e+00
  0.00000000e+00  0.00000000e+00  0.00000000e+00  0.00000000e+00
  0.00000000e+00  0.00000000e+00 -8.28303684e-06 -2.36639916e-06
  0.00000000e+00  0.00000000e+00  0.00000000e+00  5.52262203e-06]","[[-0.00110439  0.03614505]
 [-0.00108411 -0.01068334]]",[],0.0,0.0
1787564686.1651669,2.0179984116490535,1.8674851363835323,2.4336385656663495,"[ 6.63133841e-05  2.66309240e-06  0.00000000e+00  0.00000000e+00
  0.00000000e+00 -8.28303684e-06  2.66309240e-06  5.39531469e-05
  0.00000000e+00  0.00000000e+00  0.00000000e+00 -2.36639916e-06
  0.00000000e+00  0.00000000e+00  0.00000000e+00  0.00000000e+00
  0.00000000e+00  0.00000000e+00  0.00000000e+00  0.00000000e+00
  0.00000000e+00  0.00000000e+00  0.00000000e+00  0.00000000e+00
  0.00000000e+00  0.00000000e+00  0.00000000e+00  0.00000000e+00
  0.00000000e+00  0.00000000e+00 -8.28303684e-06 -2.36639916e-06
  0.00000000e+00  0.00000000e+00  0.00000000e+00  5.52262203e-06]","[[-0.00110439  0.03614505]
 [-0.00108411 -0.01068334]]",[],0.0,0.0
1787564686.6654909,2.0179984116490535,1.8674851363835323,2.4336385656663495,"[ 6.63133841e-05  2.66309240e-06  0.00000000e+00  0.00000000e+00
  0.00000000e+00 -8.28303684e-06  2.66309240e-06  5.39531469e-05
  0.00000000e+00  0.00000000e+00  0.00000000e+00 -2.36639916e-06
  0.00000000e+00  0.00000000e+00  0.00000000e+00  0.00000000e+00
  0.00000000e+00  0.00000000e+00  0.00000000e+00  0.00000000e+00
  0.00000000e+00  0.00000000e+00  0.00000000e+00  0.00000000e+00
  0.00000000e+00  0.00000000e+00  0.00000000e+00  0.00000000e+00
  0.00000000e+00  0.00000000e+00 -8.28303684e-06 -2.36639916e-06
  0.00000000e+00  0.00000000e+00  0.00000000e+00  5.52262203e-06]","[[-0.00110439  0.03614505]
 [-0.00108411 -0.01068334]]",[],0.0,0.0
1787564686.720523,2.0179984116490535,1.8674851363835323,2.4336385656663495,"[ 6.63133841e-05  2.66309240e-06  0.00000000e+00  0.00000000e+00
  0.00000000e+00 -8.28303684e-06  2.66309240e-06  5.39531469e-05
  0.00000000e+00  0.00000000e+00  0.00000000e+00 -2.36639916e-06
  0.00000000e+00  0.00000000e+00  0.00000000e+00  0.00000000e+00
  0.00000000e+00  0.00000000e+00  0.00000000e+00  0.00000000e+00
  0.00000000e+00  0.00000000e+00  0.00000000e+00  0.00000000e+00
  0.00000000e+00  0.00000000e+00  0.00000000e+00  0.00000000e+00
  0.00000000e+00  0.00000000e+00 -8.28303684e-06 -2.36639916e-06
  0.00000000e+00  0.00000000e+00  0.00000000e+00  5.52262203e-06]","[[-0.00110439  0.03614505]
 [-0.00108411 -0.01068334]]",[],0.0,0.0
1787564686.7689319,2.071219754359719,1.8219859107683591,2.4616220446390615,"[ 3.68125927e-05  1.23481427e-07  0.00000000e+00  0.00000000e+00
  0.00000000e+00 -4.32026480e-06  1.23481427e-07  2.74125482e-05
  0.00000000e+00  0.00000000e+00  0.00000000e+00 -1.59506924e-06
  0.00000000e+00  0.00000000e+00  0.00000000e+00  0.00000000e+00
  0.00000000e+00  0.00000000e+00  0.00000000e+00  0.00000000e+00
  0.00000000e+00  0.00000000e+00  0.00000000e+00  0.00000000e+00
  0.00000000e+00  0.00000000e+00  0.00000000e+00  0.00000000e+00
  0.00000000e+00  0.00000000e+00 -4.32026480e-06 -1.59506924e-06
  0.00000000e+00  0.00000000e+00  0.00000000e+00  4.09759787e-06]","[[ 9.31233482e-05  1.84380181e-02]
 [-6.81237261e-04  3.55953167e-03]]",[],0.0,0.0
1787564686.8108063,2.071219754359719,1.8219859107683591,2.4616220446390615,"[ 3.68125927e-05  1.23481427e-07  0.00000000e+00  0.00000000e+00
  0.00000000e+00 -4.32026480e-06  1.23481427e-07  2.74125482e-05
  0.00000000e+00  0.00000000e+00  0.00000000e+00 -1.59506924e-06
  0.00000000e+00  0.00000000e+00  0.00000000e+00  0.00000000e+00
  0.00000000e+00  0.00000000e+00  0.00000000e+00  0.00000000e+00
  0.00000000e+00  0.00000000e+00  0.00000000e+00  0.00000000e+00
  0.00000000e+00  0.00000000e+00  0.00000000e+00  0.00000000e+00
  0.00000000e+00  0.00000000e+00 -4.32026480e-06 -1.59506924e-06
  0.00000000e+00  0.00000000e+00  0.00000000e+00  4.09759787e-06]","[[ 9.31233482e-05  1.84380181e-02]
 [-6.81237261e-04  3.55953167e-03]]",[],0.0,0.0
1787564687.185046,2.071219754359719,1.8219859107683591,2.4616220446390615,"[ 3.68125927e-05  1.23481427e-07  0.00000000e+00  0.00000000e+00
  0.00000000e+00 -4.32026480e-06  1.23481427e-07  2.74125482e-05
  0.00000000e+00  0.00000000e+00  0.00000000e+00 -1.59506924e-06
  0.00000000e+00  0.00000000e+00  0.00000000e+00  0.00000000e+00
  0.00000000e+00  0.00000000e+00  0.00000000e+00  0.00000000e+00
  0.00000000e+00  0.00000000e+00  0.00000000e+00  0.00000000e+00
  0.00000000e+00  0.00000000e+00  0.00000000e+00  0.00000000e+00
  0.00000000e+00  0.00000000e+00 -4.32026480e-06 -1.59506924e-06
  0.00000000e+00  0.00000000e+00  0.00000000e+00  4.09759787e-06]","[[ 9.31233482e-05  1.84380181e-02]
 [-6.81237261e-04  3.55953167e-03]]",[],0.0,0.0
1787564687.2138884,2.071219754359719,1.8219859107683591,2.4616220446390615,"[ 3.68125927e-05  1.23481427e-07  0.00000000e+00  0.00000000e+00
  0.00000000e+00 -4.32026480e-06  1.23481427e-07  2.74125482e-05
  0.00000000e+00  0.00000000e+00  0.00000000e+00 -1.59506924e-06
  0.00000000e+00  0.00000000e+00  0.00000000e+00  0.00000000e+00
  0.00000000e+00  0.00000000e+00  0.00000000e+00  0.00000000e+00
  0.00000000e+00  0.00000000e+00  0.00000000e+00  0.00000000e+00
  0.00000000e+00  0.00000000e+00  0.00000000e+00  0.00000000e+00
  0.00000000e+00  0.00000000e+00 -4.32026480e-06 -1.59506924e-06
  0.00000000e+00  0.00000000e+00  0.00000000e+00  4.09759787e-06]","[[ 9.31233482e-05  1.84380181e-02]
 [-6.81237261e-04  3.55953167e-03]]",[],0.0,0.0
1787564687.3592072,2.071219754359719,1.8219859107683591,2.4616220446390615,"[ 3.68125927e-05  1.23481427e-07  0.00000000e+00  0.00000000e+00
  0.00000000e+00 -4.32026480e-06  1.23481427e-07  2.74125482e-05
  0.00000000e+00  0.00000000e+00  0.00000000e+00 -1.59506924e-06
  0.00000000e+00  0.00000000e+00  0.00000000e+00  0.00000000e+00
  0.00000000e+00  0.00000000e+00  0.00000000e+00  0.00000000e+00
  0.00000000e+00  0.00000000e+00  0.00000000e+00  0.00000000e+00
  0.00000000e+00  0.00000000e+00  0.00000000e+00  0.00000000e+00
  0.00000000e+00  0.00000000e+00 -4.32026480e-06 -1.59506924e-06
  0.00000000e+00  0.00000000e+00  0.00000000e+00  4.09759787e-06]","[[ 9.31233482e-05  1.84380181e-02]
 [-6.81237261e-04  3.55953167e-03]]",[],0.0,0.0
1787564687.9541976,2.1048709678531057,1.7895643163885235,2.4835035366510034,"[ 2.46840590e-05  2.88426420e-07  0.00000000e+00  0.00000000e+00
  0.00000000e+00 -2.76787977e-06  2.88426420e-07  1.77503263e-05
  0.00000000e+00  0.00000000e+00  0.00000000e+00 -1.16209365e-06
  0.00000000e+00  0.00000000e+00  0.00000000e+00  0.00000000e+00
  0.00000000e+00  0.00000000e+00  0.00000000e+00  0.00000000e+00
  0.00000000e+00  0.00000000e+00  0.00000000e+00  0.00000000e+00
  0.00000000e+00  0.00000000e+00  0.00000000e+00  0.00000000e+00
  0.00000000e+00  0.00000000e+00 -2.76787977e-06 -1.16209365e-06
  0.00000000e+00  0.00000000e+00  0.00000000e+00  3.87286401e-06]","[[ 6.27937912e-05  1.20786236e-02]
 [-4.40079969e-04  2.62421710e-03]]",[],0.0,0.0
1787564687.9615245,2.1048709678531057,1.7895643163885235,2.4835035366510034,"[ 2.46840590e-05  2.88426420e-07  0.00000000e+00  0.00000000e+00
  0.00000000e+00 -2.76787977e-06  2.88426420e-07  1.77503263e-05
  0.00000000e+00  0.00000000e+00  0.00000000e+00 -1.16209365e-06
  0.00000000e+00  0.00000000e+00  0.00000000e+00  0.00000000e+00
  0.00000000e+00  0.00000000e+00  0.00000000e+00  0.00000000e+00
  0.00000000e+00  0.00000000e+00  0.00000000e+00  0.00000000e+00
  0.00000000e+00  0.00000000e+00  0.00000000e+00  0.00000000e+00
  0.00000000e+00  0.00000000e+00 -2.76787977e-06 -1.16209365e-06
  0.00000000e+00  0.00000000e+00  0.00000000e+00  3.87286401e-06]","[[ 6.27937912e-05  1.20786236e-02]
 [-4.40079969e-04  2.62421710e-03]]",[],0.0,0.0
1787564688.0877702,2.1327258933807394,1.7659067615028814,2.5061728240998047,"[ 1.83550403e-05  1.62795326e-07  0.00000000e+00  0.00000000e+00
  0.00000000e+00 -2.09368716e-06  1.62795326e-07  1.31561338e-05
  0.00000000e+00  0.00000000e+00  0.00000000e+00 -9.02277963e-07
  0.00000000e+00  0.00000000e+00  0.00000000e+00  0.00000000e+00
  0.00000000e+00  0.00000000e+00  0.00000000e+00  0.00000000e+00
  0.00000000e+00  0.00000000e+00  0.00000000e+00  0.00000000e+00
  0.00000000e+00  0.00000000e+00  0.00000000e+00  0.00000000e+00
  0.00000000e+00  0.00000000e+00 -2.09368716e-06 -9.02277963e-07
  0.00000000e+00  0.00000000e+00  0.00000000e+00  3.52009026e-06]","[[ 5.04676437e-05  8.99837755e-03]
 [-3.26091162e-04  2.01555478e-03]]",[],0.0,0.0
1787564688.1080217,2.1327258933807394,1.7659067615028814,2.5061728240998047,"[ 1.83550403e-05  1.62795326e-07  0.00000000e+00  0.00000000e+00
  0.00000000e+00 -2.09368716e-06  1.62795326e-07  1.31561338e-05
  0.00000000e+00  0.00000000e+00  0.00000000e+00 -9.02277963e-07
  0.00000000e+00  0.00000000e+00  0.00000000e+00  0.00000000e+00
  0.00000000e+00  0.00000000e+00  0.00000000e+00  0.00000000e+00
  0.00000000e+00  0.00000000e+00  0.00000000e+00  0.00000000e+00
  0.00000000e+00  0.00000000e+00  0.00000000e+00  0.00000000e+00
  0.00000000e+00  0.00000000e+00 -2.09368716e-06 -9.02277963e-07
  0.00000000e+00  0.00000000e+00  0.00000000e+00  3.52009026e-06]","[[ 5.04676437e-05  8.99837755e-03]
 [-3.26091162e-04  2.01555478e-03]]",[],0.0,0.0
1787564688.5534556,2.1327258933807394,1.7659067615028814,2.5061728240998047,"[ 1.83550403e-05  1.62795326e-07  0.00000000e+00  0.00000000e+00
  0.00000000e+00 -2.09368716e-06  1.62795326e-07  1.31561338e-05
  0.00000000e+00  0.00000000e+00  0.00000000e+00 -9.02277963e-07
  0.00000000e+00  0.00000000e+00  0.00000000e+00  0.00000000e+00
  0.00000000e+00  0.00000000e+00  0.00000000e+00  0.00000000e+00
  0.00000000e+00  0.00000000e+00  0.00000000e+00  0.00000000e+00
  0.00000000e+00  0.00000000e+00  0.00000000e+00  0.00000000e+00
  0.00000000e+00  0.00000000e+00 -2.09368716e-06 -9.02277963e-07
  0.00000000e+00  0.00000000e+00  0.00000000e+00  3.52009026e-06]","[[ 5.04676437e-05  8.99837755e-03]
 [-3.26091162e-04  2.01555478e-03]]",[],0.0,0.0
1787564688.5657732,2.1327258933807394,1.7659067615028814,2.5061728240998047,"[ 1.83550403e-05  1.62795326e-07  0.00000000e+00  0.00000000e+00
  0.00000000e+00 -2.09368716e-06  1.62795326e-07  1.31561338e-05
  0.00000000e+00  0.00000000e+00  0.00000000e+00 -9.02277963e-07
  0.00000000e+00  0.00000000e+00  0.00000000e+00  0.00000000e+00
  0.00000000e+00  0.00000000e+00  0.00000000e+00  0.00000000e+00
  0.00000000e+00  0.00000000e+00  0.00000000e+00  0.00000000e+00
  0.00000000e+00  0.00000000e+00  0.00000000e+00  0.00000000e+00
  0.00000000e+00  0.00000000e+00 -2.09368716e-06 -9.02277963e-07
  0.00000000e+00  0.00000000e+00  0.00000000e+00  3.52009026e-06]","[[ 5.04676437e-05  8.99837755e-03]
 [-3.26091162e-04  2.01555478e-03]]",[],0.0,0.0
1787564688.6087723,2.1494671589059093,1.7538674378847432,2.530952393722732,"[ 1.51364380e-05  8.61896847e-08  0.00000000e+00  0.00000000e+00
  0.00000000e+00 -1.62646167e-06  8.61896847e-08  1.06335744e-05
  0.00000000e+00  0.00000000e+00  0.00000000e+00 -7.66491020e-07
  0.00000000e+00  0.00000000e+00  0.00000000e+00  0.00000000e+00
  0.00000000e+00  0.00000000e+00  0.00000000e+00  0.00000000e+00
  0.00000000e+00  0.00000000e+00  0.00000000e+00  0.00000000e+00
  0.00000000e+00  0.00000000e+00  0.00000000e+00  0.00000000e+00
  0.00000000e+00  0.00000000e+00 -1.62646167e-06 -7.66491020e-07
  0.00000000e+00  0.00000000e+00  0.00000000e+00  3.66293079e-06]","[[ 4.45158922e-05  7.22844584e-03]
 [-2.63545538e-04  1.68940649e-03]]",[],0.0,0.0
1787564689.1761456,2.1494671589059093,1.7538674378847432,2.530952393722732,"[ 1.51364380e-05  8.61896847e-08  0.00000000e+00  0.00000000e+00
  0.00000000e+00 -1.62646167e-06  8.61896847e-08  1.06335744e-05
  0.00000000e+00  0.00000000e+00  0.00000000e+00 -7.66491020e-07
  0.00000000e+00  0.00000000e+00  0.00000000e+00  0.00000000e+00
  0.00000000e+00  0.00000000e+00  0.00000000e+00  0.00000000e+00
  0.00000000e+00  0.00000000e+00  0.00000000e+00  0.00000000e+00
  0.00000000e+00  0.00000000e+00  0.00000000e+00  0.00000000e+00
  0.00000000e+00  0.00000000e+00 -1.62646167e-06 -7.66491020e-07
  0.00000000e+00  0.00000000e+00  0.00000000e+00  3.66293079e-06]","[[ 4.45158922e-05  7.22844584e-03]
 [-2.63545538e-04  1.68940649e-03]]",[],0.0,0.0
1787564689.209855,2.1494671589059093,1.7538674378847432,2.530952393722732,"[ 1.51364380e-05  8.61896847e-08  0.00000000e+00  0.00000000e+00
  0.00000000e+00 -1.62646167e-06  8.61896847e-08  1.06335744e-05
  0.00000000e+00  0.00000000e+00  0.00000000e+00 -7.66491020e-07
  0.00000000e+00  0.00000000e+00  0.00000000e+00  0.00000000e+00
  0.00000000e+00  0.00000000e+00  0.00000000e+00  0.00000000e+00
  0.00000000e+00  0.00000000e+00  0.00000000e+00  0.00000000e+00
  0.00000000e+00  0.00000000e+00  0.00000000e+00  0.00000000e+00
  0.00000000e+00  0.00000000e+00 -1.62646167e-06 -7.66491020e-07
  0.00000000e+00  0.00000000e+00  0.00000000e+00  3.66293079e-06]","[[ 4.45158922e-05  7.22844584e-03]
 [-2.63545538e-04  1.68940649e-03]]",[],0.0,0.0
1787564689.2957416,2.160765073313157,1.7441629916505204,2.5640187780847876,"[ 1.26574990e-05 -2.80488580e-08  0.00000000e+00  0.00000000e+00
  0.00000000e+00 -1.48266166e-06 -2.80488580e-08  9.02662353e-06
  0.00000000e+00  0.00000000e+00  0.00000000e+00 -4.58540553e-07
  0.00000000e+00  0.00000000e+00  0.00000000e+00  0.00000000e+00
  0.00000000e+00  0.00000000e+00  0.00000000e+00  0.00000000e+00
  0.00000000e+00  0.00000000e+00  0.00000000e+00  0.00000000e+00
  0.00000000e+00  0.00000000e+00  0.00000000e+00  0.00000000e+00
  0.00000000e+00  0.00000000e+00 -1.48266166e-06 -4.58540553e-07
  0.00000000e+00  0.00000000e+00  0.00000000e+00  3.60145867e-06]","[[ 4.05739988e-05  6.23260636e-03]
 [-2.23954802e-04  1.09261260e-03]]",[],0.0,0.0
1787564689.72909,2.160765073313157,1.7441629916505204,2.5640187780847876,"[ 1.26574990e-05 -2.80488580e-08  0.00000000e+00  0.00000000e+00
  0.00000000e+00 -1.48266166e-06 -2.80488580e-08  9.02662353e-06
  0.00000000e+00  0.00000000e+00  0.00000000e+00 -4.58540553e-07
  0.00000000e+00  0.00000000e+00  0.00000000e+00  0.00000000e+00
  0.00000000e+00  0.00000000e+00  0.00000000e+00  0.00000000e+00
  0.00000000e+00  0.00000000e+00  0.00000000e+00  0.00000000e+00
  0.00000000e+00  0.00000000e+00  0.00000000e+00  0.00000000e+00
  0.00000000e+00  0.00000000e+00 -1.48266166e-06 -4.58540553e-07
  0.00000000e+00  0.00000000e+00  0.00000000e+00  3.60145867e-06]","[[ 4.05739988e-05  6.23260636e-03]
 [-2.23954802e-04  1.09261260e-03]]",[],0.0,0.0
1787564689.758923,2.160765073313157,1.7441629916505204,2.5640187780847876,"[ 1.26574990e-05 -2.80488580e-08  0.00000000e+00  0.00000000e+00
  0.00000000e+00 -1.48266166e-06 -2.80488580e-08  9.02662353e-06
  0.00000000e+00  0.00000000e+00  0.00000000e+00 -4.58540553e-07
  0.00000000e+00  0.00000000e+00  0.00000000e+00  0.00000000e+00
  0.00000000e+00  0.00000000e+00  0.00000000e+00  0.00000000e+00
  0.00000000e+00  0.00000000e+00  0.00000000e+00  0.00000000e+00
  0.00000000e+00  0.00000000e+00  0.00000000e+00  0.00000000e+00
  0.00000000e+00  0.00000000e+00 -1.48266166e-06 -4.58540553e-07
  0.00000000e+00  0.00000000e+00  0.00000000e+00  3.60145867e-06]","[[ 4.05739988e-05  6.23260636e-03]
 [-2.23954802e-04  1.09261260e-03]]",[],0.0,0.0
1787564690.308894,2.1690884979690392,1.7359172462404924,2.5721805949846335,"[ 1.09912154e-05 -4.54192175e-08  0.00000000e+00  0.00000000e+00
  0.00000000e+00 -1.15983831e-06 -4.54192175e-08  7.75223092e-06
  0.00000000e+00  0.00000000e+00  0.00000000e+00 -3.99486717e-07
  0.00000000e+00  0.00000000e+00  0.00000000e+00  0.00000000e+00
  0.00000000e+00  0.00000000e+00  0.00000000e+00  0.00000000e+00
  0.00000000e+00  0.00000000e+00  0.00000000e+00  0.00000000e+00
  0.00000000e+00  0.00000000e+00  0.00000000e+00  0.00000000e+00
  0.00000000e+00  0.00000000e+00 -1.15983831e-06 -3.99486717e-07
  0.00000000e+00  0.00000000e+00  0.00000000e+00  3.48334327e-06]","[[ 2.60463108e-04  3.68762843e-03]
 [-6.35809531e-05  4.36073457e-03]]",[],0.0,0.0
1787564690.3598833,2.175767664702646,1.7267150574218415,2.591219045615304,"[ 9.71211817e-06 -7.08489919e-08  0.00000000e+00  0.00000000e+00
  0.00000000e+00 -1.08688248e-06 -7.08489919e-08  6.74833993e-06
  0.00000000e+00  0.00000000e+00  0.00000000e+00 -3.54353262e-07
  0.00000000e+00  0.00000000e+00  0.00000000e+00  0.00000000e+00
  0.00000000e+00  0.00000000e+00  0.00000000e+00  0.00000000e+00
  0.00000000e+00  0.00000000e+00  0.00000000e+00  0.00000000e+00
  0.00000000e+00  0.00000000e+00  0.00000000e+00  0.00000000e+00
  0.00000000e+00  0.00000000e+00 -1.08688248e-06 -3.54353262e-07
  0.00000000e+00  0.00000000e+00  0.00000000e+00  3.42009654e-06]","[[ 2.30279739e-04  3.34863664e-03]
 [-5.63363908e-05  3.78975697e-03]]",[],0.0,0.0
1787564690.409689,2.175767664702646,1.7267150574218415,2.591219045615304,"[ 9.71211817e-06 -7.08489919e-08  0.00000000e+00  0.00000000e+00
  0.00000000e+00 -1.08688248e-06 -7.08489919e-08  6.74833993e-06
  0.00000000e+00  0.00000000e+00  0.00000000e+00 -3.54353262e-07
  0.00000000e+00  0.00000000e+00  0.00000000e+00  0.00000000e+00
  0.00000000e+00  0.00000000e+00  0.00000000e+00  0.00000000e+00
  0.00000000e+00  0.00000000e+00  0.00000000e+00  0.00000000e+00
  0.00000000e+00  0.00000000e+00  0.00000000e+00  0.00000000e+00
  0.00000000e+00  0.00000000e+00 -1.08688248e-06 -3.54353262e-07
  0.00000000e+00  0.00000000e+00  0.00000000e+00  3.42009654e-06]","[[ 2.30279739e-04  3.34863664e-03]
 [-5.63363908e-05  3.78975697e-03]]",[],0.0,0.0
1787564690.4589634,2.175767664702646,1.7267150574218415,2.591219045615304,"[ 9.71211817e-06 -7.08489919e-08  0.00000000e+00  0.00000000e+00
  0.00000000e+00 -1.08688248e-06 -7.08489919e-08  6.74833993e-06
  0.00000000e+00  0.00000000e+00  0.00000000e+00 -3.54353262e-07
  0.00000000e+00  0.00000000e+00  0.00000000e+00  0.00000000e+00
  0.00000000e+00  0.00000000e+00  0.00000000e+00  0.00000000e+00
  0.00000000e+00  0.00000000e+00  0.00000000e+00  0.00000000e+00
  0.00000000e+00  0.00000000e+00  0.00000000e+00  0.00000000e+00
  0.00000000e+00  0.00000000e+00 -1.08688248e-06 -3.54353262e-07
  0.00000000e+00  0.00000000e+00  0.00000000e+00  3.42009654e-06]","[[ 2.30279739e-04  3.34863664e-03]
 [-5.63363908e-05  3.78975697e-03]]",[],0.0,0.0
1787564690.9623482,2.175767664702646,1.7267150574218415,2.591219045615304,"[ 9.71211817e-06 -7.08489919e-08  0.00000000e+00  0.00000000e+00
  0.00000000e+00 -1.08688248e-06 -7.08489919e-08  6.74833993e-06
  0.00000000e+00  0.00000000e+00  0.00000000e+00 -3.54353262e-07
  0.00000000e+00  0.00000000e+00  0.00000000e+00  0.00000000e+00
  0.00000000e+00  0.00000000e+00  0.00000000e+00  0.00000000e+00
  0.00000000e+00  0.00000000e+00  0.00000000e+00  0.00000000e+00
  0.00000000e+00  0.00000000e+00  0.00000000e+00  0.00000000e+00
  0.00000000e+00  0.00000000e+00 -1.08688248e-06 -3.54353262e-07
  0.00000000e+00  0.00000000e+00  0.00000000e+00  3.42009654e-06]","[[ 2.30279739e-04  3.34863664e-03]
 [-5.63363908e-05  3.78975697e-03]]",[],0.0,0.0
1787564691.5730174,2.181286884161159,1.7201586412363077,2.6003653690666866,"[ 8.55691231e-06 -4.10218230e-08  0.00000000e+00  0.00000000e+00
  0.00000000e+00 -8.64774847e-07 -4.10218230e-08  5.97213064e-06
  0.00000000e+00  0.00000000e+00  0.00000000e+00 -3.14473484e-07
  0.00000000e+00  0.00000000e+00  0.00000000e+00  0.00000000e+00
  0.00000000e+00  0.00000000e+00  0.00000000e+00  0.00000000e+00
  0.00000000e+00  0.00000000e+00  0.00000000e+00  0.00000000e+00
  0.00000000e+00  0.00000000e+00  0.00000000e+00  0.00000000e+00
  0.00000000e+00  0.00000000e+00 -8.64774847e-07 -3.14473484e-07
  0.00000000e+00  0.00000000e+00  0.00000000e+00  3.37186291e-06]","[[ 2.02579687e-04  2.81118773e-03]
 [-4.96235351e-05  3.34884525e-03]]",[],0.0,0.0
1787564691.6089547,2.181286884161159,1.7201586412363077,2.6003653690666866,"[ 8.55691231e-06 -4.10218230e-08  0.00000000e+00  0.00000000e+00
  0.00000000e+00 -8.64774847e-07 -4.10218230e-08  5.97213064e-06
  0.00000000e+00  0.00000000e+00  0.00000000e+00 -3.14473484e-07
  0.00000000e+00  0.00000000e+00  0.00000000e+00  0.00000000e+00
  0.00000000e+00  0.00000000e+00  0.00000000e+00  0.00000000e+00
  0.00000000e+00  0.00000000e+00  0.00000000e+00  0.00000000e+00
  0.00000000e+00  0.00000000e+00  0.00000000e+00  0.00000000e+00
  0.00000000e+00  0.00000000e+00 -8.64774847e-07 -3.14473484e-07
  0.00000000e+00  0.00000000e+00  0.00000000e+00  3.37186291e-06]","[[ 2.02579687e-04  2.81118773e-03]
 [-4.96235351e-05  3.34884525e-03]]",[],0.0,0.0
1787564691.6606762,2.1873460469438144,1.7167789618642237,2.6047912483455287,"[ 7.71416289e-06 -7.14928622e-08  0.00000000e+00  0.00000000e+00
  0.00000000e+00 -8.39336159e-07 -7.14928622e-08  5.38735964e-06
  0.00000000e+00  0.00000000e+00  0.00000000e+00 -3.28413551e-07
  0.00000000e+00  0.00000000e+00  0.00000000e+00  0.00000000e+00
  0.00000000e+00  0.00000000e+00  0.00000000e+00  0.00000000e+00
  0.00000000e+00  0.00000000e+00  0.00000000e+00  0.00000000e+00
  0.00000000e+00  0.00000000e+00  0.00000000e+00  0.00000000e+00
  0.00000000e+00  0.00000000e+00 -8.39336159e-07 -3.28413551e-07
  0.00000000e+00  0.00000000e+00  0.00000000e+00  3.43218342e-06]","[[ 2.70207964e-05  3.67292114e-03]
 [-1.33758720e-04  7.32956515e-04]]",[],0.0,0.0
1787564691.7127628,2.1873460469438144,1.7167789618642237,2.6047912483455287,"[ 7.71416289e-06 -7.14928622e-08  0.00000000e+00  0.00000000e+00
  0.00000000e+00 -8.39336159e-07 -7.14928622e-08  5.38735964e-06
  0.00000000e+00  0.00000000e+00  0.00000000e+00 -3.28413551e-07
  0.00000000e+00  0.00000000e+00  0.00000000e+00  0.00000000e+00
  0.00000000e+00  0.00000000e+00  0.00000000e+00  0.00000000e+00
  0.00000000e+00  0.00000000e+00  0.00000000e+00  0.00000000e+00
  0.00000000e+00  0.00000000e+00  0.00000000e+00  0.00000000e+00
  0.00000000e+00  0.00000000e+00 -8.39336159e-07 -3.28413551e-07
  0.00000000e+00  0.00000000e+00  0.00000000e+00  3.43218342e-06]","[[ 2.70207964e-05  3.67292114e-03]
 [-1.33758720e-04  7.32956515e-04]]",[],0.0,0.0
1787564691.7606046,2.1873460469438144,1.7167789618642237,2.6047912483455287,"[ 7.71416289e-06 -7.14928622e-08  0.00000000e+00  0.00000000e+00
  0.00000000e+00 -8.39336159e-07 -7.14928622e-08  5.38735964e-06
  0.00000000e+00  0.00000000e+00  0.00000000e+00 -3.28413551e-07
  0.00000000e+00  0.00000000e+00  0.00000000e+00  0.00000000e+00
  0.00000000e+00  0.00000000e+00  0.00000000e+00  0.00000000e+00
  0.00000000e+00  0.00000000e+00  0.00000000e+00  0.00000000e+00
  0.00000000e+00  0.00000000e+00  0.00000000e+00  0.00000000e+00
  0.00000000e+00  0.00000000e+00 -8.39336159e-07 -3.28413551e-07
  0.00000000e+00  0.00000000e+00  0.00000000e+00  3.43218342e-06]","[[ 2.70207964e-05  3.67292114e-03]
 [-1.33758720e-04  7.32956515e-04]]",[],0.0,0.0
1787564691.8149612,2.1873460469438144,1.7167789618642237,2.6047912483455287,"[ 7.71416289e-06 -7.14928622e-08  0.00000000e+00  0.00000000e+00
  0.00000000e+00 -8.39336159e-07 -7.14928622e-08  5.38735964e-06
  0.00000000e+00  0.00000000e+00  0.00000000e+00 -3.28413551e-07
  0.00000000e+00  0.00000000e+00  0.00000000e+00  0.00000000e+00
  0.00000000e+00  0.00000000e+00  0.00000000e+00  0.00000000e+00
  0.00000000e+00  0.00000000e+00  0.00000000e+00  0.00000000e+00
  0.00000000e+00  0.00000000e+00  0.00000000e+00  0.00000000e+00
  0.00000000e+00  0.00000000e+00 -8.39336159e-07 -3.28413551e-07
  0.00000000e+00  0.00000000e+00  0.00000000e+00  3.43218342e-06]","[[ 2.70207964e-05  3.67292114e-03]
 [-1.33758720e-04  7.32956515e-04]]",[],0.0,0.0
1787564691.899031,2.1873460469438144,1.7167789618642237,2.6047912483455287,"[ 7.71416289e-06 -7.14928622e-08  0.00000000e+00  0.00000000e+00
  0.00000000e+00 -8.39336159e-07 -7.14928622e-08  5.38735964e-06
  0.00000000e+00  0.00000000e+00  0.00000000e+00 -3.28413551e-07
  0.00000000e+00  0.00000000e+00  0.00000000e+00  0.00000000e+00
  0.00000000e+00  0.00000000e+00  0.00000000e+00  0.00000000e+00
  0.00000000e+00  0.00000000e+00  0.00000000e+00  0.00000000e+00
  0.00000000e+00  0.00000000e+00  0.00000000e+00  0.00000000e+00
  0.00000000e+00  0.00000000e+00 -8.39336159e-07 -3.28413551e-07
  0.00000000e+00  0.00000000e+00  0.00000000e+00  3.43218342e-06]","[[ 2.70207964e-05  3.67292114e-03]
 [-1.33758720e-04  7.32956515e-04]]",[],0.0,0.0
1787564691.934181,2.1873460469438144,1.7167789618642237,2.6047912483455287,"[ 7.71416289e-06 -7.14928622e-08  0.00000000e+00  0.00000000e+00
  0.00000000e+00 -8.39336159e-07 -7.14928622e-08  5.38735964e-06
  0.00000000e+00  0.00000000e+00  0.00000000e+00 -3.28413551e-07
  0.00000000e+00  0.00000000e+00  0.00000000e+00  0.00000000e+00
  0.00000000e+00  0.00000000e+00  0.00000000e+00  0.00000000e+00
  0.00000000e+00  0.00000000e+00  0.00000000e+00  0.00000000e+00
  0.00000000e+00  0.00000000e+00  0.00000000e+00  0.00000000e+00
  0.00000000e+00  0.00000000e+00 -8.39336159e-07 -3.28413551e-07
  0.00000000e+00  0.00000000e+00  0.00000000e+00  3.43218342e-06]","[[ 2.70207964e-05  3.67292114e-03]
 [-1.33758720e-04  7.32956515e-04]]",[],0.0,0.0
1787564692.0110478,2.1873460469438144,1.7167789618642237,2.6047912483455287,"[ 7.71416289e-06 -7.14928622e-08  0.00000000e+00  0.00000000e+00
  0.00000000e+00 -8.39336159e-07 -7.14928622e-08  5.38735964e-06
  0.00000000e+00  0.00000000e+00  0.00000000e+00 -3.28413551e-07
  0.00000000e+00  0.00000000e+00  0.00000000e+00  0.00000000e+00
  0.00000000e+00  0.00000000e+00  0.00000000e+00  0.00000000e+00
  0.00000000e+00  0.00000000e+00  0.00000000e+00  0.00000000e+00
  0.00000000e+00  0.00000000e+00  0.00000000e+00  0.00000000e+00
  0.00000000e+00  0.00000000e+00 -8.39336159e-07 -3.28413551e-07
  0.00000000e+00  0.00000000e+00  0.00000000e+00  3.43218342e-06]","[[ 2.70207964e-05  3.67292114e-03]
 [-1.33758720e-04  7.32956515e-04]]",[],0.0,0.0
1787564692.0595589,2.1873460469438144,1.7167789618642237,2.6047912483455287,"[ 7.71416289e-06 -7.14928622e-08  0.00000000e+00  0.00000000e+00
  0.00000000e+00 -8.39336159e-07 -7.14928622e-08  5.38735964e-06
  0.00000000e+00  0.00000000e+00  0.00000000e+00 -3.28413551e-07
  0.00000000e+00  0.00000000e+00  0.00000000e+00  0.00000000e+00
  0.00000000e+00  0.00000000e+00  0.00000000e+00  0.00000000e+00
  0.00000000e+00  0.00000000e+00  0.00000000e+00  0.00000000e+00
  0.00000000e+00  0.00000000e+00  0.00000000e+00  0.00000000e+00
  0.00000000e+00  0.00000000e+00 -8.39336159e-07 -3.28413551e-07
  0.00000000e+00  0.00000000e+00  0.00000000e+00  3.43218342e-06]","[[ 2.70207964e-05  3.67292114e-03]
 [-1.33758720e-04  7.32956515e-04]]",[],0.0,0.0
1787564692.131634,2.1873460469438144,1.7167789618642237,2.6047912483455287,"[ 7.71416289e-06 -7.14928622e-08  0.00000000e+00  0.00000000e+00
  0.00000000e+00 -8.39336159e-07 -7.14928622e-08  5.38735964e-06
  0.00000000e+00  0.00000000e+00  0.00000000e+00 -3.28413551e-07
  0.00000000e+00  0.00000000e+00  0.00000000e+00  0.00000000e+00
  0.00000000e+00  0.00000000e+00  0.00000000e+00  0.00000000e+00
  0.00000000e+00  0.00000000e+00  0.00000000e+00  0.00000000e+00
  0.00000000e+00  0.00000000e+00  0.00000000e+00  0.00000000e+00
  0.00000000e+00  0.00000000e+00 -8.39336159e-07 -3.28413551e-07
  0.00000000e+00  0.00000000e+00  0.00000000e+00  3.43218342e-06]","[[ 2.70207964e-05  3.67292114e-03]
 [-1.33758720e-04  7.32956515e-04]]",[],0.0,0.0
1787564692.1759737,2.1873460469438144,1.7167789618642237,2.6047912483455287,"[ 7.71416289e-06 -7.14928622e-08  0.00000000e+00  0.00000000e+00
  0.00000000e+00 -8.39336159e-07 -7.14928622e-08  5.38735964e-06
  0.00000000e+00  0.00000000e+00  0.00000000e+00 -3.28413551e-07
  0.00000000e+00  0.00000000e+00  0.00000000e+00  0.00000000e+00
  0.00000000e+00  0.00000000e+00  0.00000000e+00  0.00000000e+00
  0.00000000e+00  0.00000000e+00  0.00000000e+00  0.00000000e+00
  0.00000000e+00  0.00000000e+00  0.00000000e+00  0.00000000e+00
  0.00000000e+00  0.00000000e+00 -8.39336159e-07 -3.28413551e-07
  0.00000000e+00  0.00000000e+00  0.00000000e+00  3.43218342e-06]","[[ 2.70207964e-05  3.67292114e-03]
 [-1.33758720e-04  7.32956515e-04]]",[],0.0,0.0
1787564692.2417734,2.1873460469438144,1.7167789618642237,2.6047912483455287,"[ 7.71416289e-06 -7.14928622e-08  0.00000000e+00  0.00000000e+00
  0.00000000e+00 -8.39336159e-07 -7.14928622e-08  5.38735964e-06
  0.00000000e+00  0.00000000e+00  0.00000000e+00 -3.28413551e-07
  0.00000000e+00  0.00000000e+00  0.00000000e+00  0.00000000e+00
  0.00000000e+00  0.00000000e+00  0.00000000e+00  0.00000000e+00
  0.00000000e+00  0.00000000e+00  0.00000000e+00  0.00000000e+00
  0.00000000e+00  0.00000000e+00  0.00000000e+00  0.00000000e+00
  0.00000000e+00  0.00000000e+00 -8.39336159e-07 -3.28413551e-07
  0.00000000e+00  0.00000000e+00  0.00000000e+00  3.43218342e-06]","[[ 2.70207964e-05  3.67292114e-03]
 [-1.33758720e-04  7.32956515e-04]]",[],0.0,0.0
1787564692.2612495,2.1873460469438144,1.7167789618642237,2.6047912483455287,"[ 7.71416289e-06 -7.14928622e-08  0.00000000e+00  0.00000000e+00
  0.00000000e+00 -8.39336159e-07 -7.14928622e-08  5.38735964e-06
  0.00000000e+00  0.00000000e+00  0.00000000e+00 -3.28413551e-07
  0.00000000e+00  0.00000000e+00  0.00000000e+00  0.00000000e+00
  0.00000000e+00  0.00000000e+00  0.00000000e+00  0.00000000e+00
  0.00000000e+00  0.00000000e+00  0.00000000e+00  0.00000000e+00
  0.00000000e+00  0.00000000e+00  0.00000000e+00  0.00000000e+00
  0.00000000e+00  0.00000000e+00 -8.39336159e-07 -3.28413551e-07
  0.00000000e+00  0.00000000e+00  0.00000000e+00  3.43218342e-06]","[[ 2.70207964e-05  3.67292114e-03]
 [-1.33758720e-04  7.32956515e-04]]",[],0.0,0.0
1787564692.3434727,2.1873460469438144,1.7167789618642237,2.6047912483455287,"[ 7.71416289e-06 -7.14928622e-08  0.00000000e+00  0.00000000e+00
  0.00000000e+00 -8.39336159e-07 -7.14928622e-08  5.38735964e-06
  0.00000000e+00  0.00000000e+00  0.00000000e+00 -3.28413551e-07
  0.00000000e+00  0.00000000e+00  0.00000000e+00  0.00000000e+00
  0.00000000e+00  0.00000000e+00  0.00000000e+00  0.00000000e+00
  0.00000000e+00  0.00000000e+00  0.00000000e+00  0.00000000e+00
  0.00000000e+00  0.00000000e+00  0.00000000e+00  0.00000000e+00
  0.00000000e+00  0.00000000e+00 -8.39336159e-07 -3.28413551e-07
  0.00000000e+00  0.00000000e+00  0.00000000e+00  3.43218342e-06]","[[ 2.70207964e-05  3.67292114e-03]
 [-1.33758720e-04  7.32956515e-04]]",[],0.0,0.0
1787564692.3765657,2.1873460469438144,1.7167789618642237,2.6047912483455287,"[ 7.71416289e-06 -7.14928622e-08  0.00000000e+00  0.00000000e+00
  0.00000000e+00 -8.39336159e-07 -7.14928622e-08  5.38735964e-06
  0.00000000e+00  0.00000000e+00  0.00000000e+00 -3.28413551e-07
  0.00000000e+00  0.00000000e+00  0.00000000e+00  0.00000000e+00
  0.00000000e+00  0.00000000e+00  0.00000000e+00  0.00000000e+00
  0.00000000e+00  0.00000000e+00  0.00000000e+00  0.00000000e+00
  0.00000000e+00  0.00000000e+00  0.00000000e+00  0.00000000e+00
  0.00000000e+00  0.00000000e+00 -8.39336159e-07 -3.28413551e-07
  0.00000000e+00  0.00000000e+00  0.00000000e+00  3.43218342e-06]","[[ 2.70207964e-05  3.67292114e-03]
 [-1.33758720e-04  7.32956515e-04]]",[],0.0,0.0
1787564692.4477084,2.1873460469438144,1.7167789618642237,2.6047912483455287,"[ 7.71416289e-06 -7.14928622e-08  0.00000000e+00  0.00000000e+00
  0.00000000e+00 -8.39336159e-07 -7.14928622e-08  5.38735964e-06
  0.00000000e+00  0.00000000e+00  0.00000000e+00 -3.28413551e-07
  0.00000000e+00  0.00000000e+00  0.00000000e+00  0.00000000e+00
  0.00000000e+00  0.00000000e+00  0.00000000e+00  0.00000000e+00
  0.00000000e+00  0.00000000e+00  0.00000000e+00  0.00000000e+00
  0.00000000e+00  0.00000000e+00  0.00000000e+00  0.00000000e+00
  0.00000000e+00  0.00000000e+00 -8.39336159e-07 -3.28413551e-07
  0.00000000e+00  0.00000000e+00  0.00000000e+00  3.43218342e-06]","[[ 2.70207964e-05  3.67292114e-03]
 [-1.33758720e-04  7.32956515e-04]]",[],0.0,0.0
1787564692.462758,2.1873460469438144,1.7167789618642237,2.6047912483455287,"[ 7.71416289e-06 -7.14928622e-08  0.00000000e+00  0.00000000e+00
  0.00000000e+00 -8.39336159e-07 -7.14928622e-08  5.38735964e-06
  0.00000000e+00  0.00000000e+00  0.00000000e+00 -3.28413551e-07
  0.00000000e+00  0.00000000e+00  0.00000000e+00  0.00000000e+00
  0.00000000e+00  0.00000000e+00  0.00000000e+00  0.00000000e+00
  0.00000000e+00  0.00000000e+00  0.00000000e+00  0.00000000e+00
  0.00000000e+00  0.00000000e+00  0.00000000e+00  0.00000000e+00
  0.00000000e+00  0.00000000e+00 -8.39336159e-07 -3.28413551e-07
  0.00000000e+00  0.00000000e+00  0.00000000e+00  3.43218342e-06]","[[ 2.70207964e-05  3.67292114e-03]
 [-1.33758720e-04  7.32956515e-04]]",[],0.0,0.0
1787564692.5400698,2.1873460469438144,1.7167789618642237,2.6047912483455287,"[ 7.71416289e-06 -7.14928622e-08  0.00000000e+00  0.00000000e+00
  0.00000000e+00 -8.39336159e-07 -7.14928622e-08  5.38735964e-06
  0.00000000e+00  0.00000000e+00  0.00000000e+00 -3.28413551e-07
  0.00000000e+00  0.00000000e+00  0.00000000e+00  0.00000000e+00
  0.00000000e+00  0.00000000e+00  0.00000000e+00  0.00000000e+00
  0.00000000e+00  0.00000000e+00  0.00000000e+00  0.00000000e+00
  0.00000000e+00  0.00000000e+00  0.00000000e+00  0.00000000e+00
  0.00000000e+00  0.00000000e+00 -8.39336159e-07 -3.28413551e-07
  0.00000000e+00  0.00000000e+00  0.00000000e+00  3.43218342e-06]","[[ 2.70207964e-05  3.67292114e-03]
 [-1.33758720e-04  7.32956515e-04]]",[],0.0,0.0
1787564692.5777075,2.1873460469438144,1.7167789618642237,2.6047912483455287,"[ 7.71416289e-06 -7.14928622e-08  0.00000000e+00  0.00000000e+00
  0.00000000e+00 -8.39336159e-07 -7.14928622e-08  5.38735964e-06
  0.00000000e+00  0.00000000e+00  0.00000000e+00 -3.28413551e-07
  0.00000000e+00  0.00000000e+00  0.00000000e+00  0.00000000e+00
  0.00000000e+00  0.00000000e+00  0.00000000e+00  0.00000000e+00
  0.00000000e+00  0.00000000e+00  0.00000000e+00  0.00000000e+00
  0.00000000e+00  0.00000000e+00  0.00000000e+00  0.00000000e+00
  0.00000000e+00  0.00000000e+00 -8.39336159e-07 -3.28413551e-07
  0.00000000e+00  0.00000000e+00  0.00000000e+00  3.43218342e-06]","[[ 2.70207964e-05  3.67292114e-03]
 [-1.33758720e-04  7.32956515e-04]]",[],0.0,0.0
1787564692.608958,2.1873460469438144,1.7167789618642237,2.6047912483455287,"[ 7.71416289e-06 -7.14928622e-08  0.00000000e+00  0.00000000e+00
  0.00000000e+00 -8.39336159e-07 -7.14928622e-08  5.38735964e-06
  0.00000000e+00  0.00000000e+00  0.00000000e+00 -3.28413551e-07
  0.00000000e+00  0.00000000e+00  0.00000000e+00  0.00000000e+00
  0.00000000e+00  0.00000000e+00  0.00000000e+00  0.00000000e+00
  0.00000000e+00  0.00000000e+00  0.00000000e+00  0.00000000e+00
  0.00000000e+00  0.00000000e+00  0.00000000e+00  0.00000000e+00
  0.00000000e+00  0.00000000e+00 -8.39336159e-07 -3.28413551e-07
  0.00000000e+00  0.00000000e+00  0.00000000e+00  3.43218342e-06]","[[ 2.70207964e-05  3.67292114e-03]
 [-1.33758720e-04  7.32956515e-04]]",[],0.0,0.0
1787564692.6671414,2.1873460469438144,1.7167789618642237,2.6047912483455287,"[ 7.71416289e-06 -7.14928622e-08  0.00000000e+00  0.00000000e+00
  0.00000000e+00 -8.39336159e-07 -7.14928622e-08  5.38735964e-06
  0.00000000e+00  0.00000000e+00  0.00000000e+00 -3.28413551e-07
  0.00000000e+00  0.00000000e+00  0.00000000e+00  0.00000000e+00
  0.00000000e+00  0.00000000e+00  0.00000000e+00  0.00000000e+00
  0.00000000e+00  0.00000000e+00  0.00000000e+00  0.00000000e+00
  0.00000000e+00  0.00000000e+00  0.00000000e+00  0.00000000e+00
  0.00000000e+00  0.00000000e+00 -8.39336159e-07 -3.28413551e-07
  0.00000000e+00  0.00000000e+00  0.00000000e+00  3.43218342e-06]","[[ 2.70207964e-05  3.67292114e-03]
 [-1.33758720e-04  7.32956515e-04]]",[],0.0,0.0
1787564692.7555504,2.1873460469438144,1.7167789618642237,2.6047912483455287,"[ 7.71416289e-06 -7.14928622e-08  0.00000000e+00  0.00000000e+00
  0.00000000e+00 -8.39336159e-07 -7.14928622e-08  5.38735964e-06
  0.00000000e+00  0.00000000e+00  0.00000000e+00 -3.28413551e-07
  0.00000000e+00  0.00000000e+00  0.00000000e+00  0.00000000e+00
  0.00000000e+00  0.00000000e+00  0.00000000e+00  0.00000000e+00
  0.00000000e+00  0.00000000e+00  0.00000000e+00  0.00000000e+00
  0.00000000e+00  0.00000000e+00  0.00000000e+00  0.00000000e+00
  0.00000000e+00  0.00000000e+00 -8.39336159e-07 -3.28413551e-07
  0.00000000e+00  0.00000000e+00  0.00000000e+00  3.43218342e-06]","[[ 2.70207964e-05  3.67292114e-03]
 [-1.33758720e-04  7.32956515e-04]]",[],0.0,0.0
1787564692.7663012,2.1873460469438144,1.7167789618642237,2.6047912483455287,"[ 7.71416289e-06 -7.14928622e-08  0.00000000e+00  0.00000000e+00
  0.00000000e+00 -8.39336159e-07 -7.14928622e-08  5.38735964e-06
  0.00000000e+00  0.00000000e+00  0.00000000e+00 -3.28413551e-07
  0.00000000e+00  0.00000000e+00  0.00000000e+00  0.00000000e+00
  0.00000000e+00  0.00000000e+00  0.00000000e+00  0.00000000e+00
  0.00000000e+00  0.00000000e+00  0.00000000e+00  0.00000000e+00
  0.00000000e+00  0.00000000e+00  0.00000000e+00  0.00000000e+00
  0.00000000e+00  0.00000000e+00 -8.39336159e-07 -3.28413551e-07
  0.00000000e+00  0.00000000e+00  0.00000000e+00  3.43218342e-06]","[[ 2.70207964e-05  3.67292114e-03]
 [-1.33758720e-04  7.32956515e-04]]",[],0.0,0.0
1787564692.8090546,2.1873460469438144,1.7167789618642237,2.6047912483455287,"[ 7.71416289e-06 -7.14928622e-08  0.00000000e+00  0.00000000e+00
  0.00000000e+00 -8.39336159e-07 -7.14928622e-08  5.38735964e-06
  0.00000000e+00  0.00000000e+00  0.00000000e+00 -3.28413551e-07
  0.00000000e+00  0.00000000e+00  0.00000000e+00  0.00000000e+00
  0.00000000e+00  0.00000000e+00  0.00000000e+00  0.00000000e+00
  0.00000000e+00  0.00000000e+00  0.00000000e+00  0.00000000e+00
  0.00000000e+00  0.00000000e+00  0.00000000e+00  0.00000000e+00
  0.00000000e+00  0.00000000e+00 -8.39336159e-07 -3.28413551e-07
  0.00000000e+00  0.00000000e+00  0.00000000e+00  3.43218342e-06]","[[ 2.70207964e-05  3.67292114e-03]
 [-1.33758720e-04  7.32956515e-04]]",[],0.0,0.0
1787564692.8617046,2.1932621563863,1.7114311168814638,2.6270715680458796,"[ 7.38544988e-06 -2.75638359e-07  0.00000000e+00  0.00000000e+00
  0.00000000e+00 -9.08085038e-07 -2.75638359e-07  5.01642976e-06
  0.00000000e+00  0.00000000e+00  0.00000000e+00 -2.04880597e-07
  0.00000000e+00  0.00000000e+00  0.00000000e+00  0.00000000e+00
  0.00000000e+00  0.00000000e+00  0.00000000e+00  0.00000000e+00
  0.00000000e+00  0.00000000e+00  0.00000000e+00  0.00000000e+00
  0.00000000e+00  0.00000000e+00  0.00000000e+00  0.00000000e+00
  0.00000000e+00  0.00000000e+00 -9.08085038e-07 -2.04880597e-07
  0.00000000e+00  0.00000000e+00  0.00000000e+00  4.24314097e-06]","[[ 1.76711738e-04  2.58110638e-03]
 [-4.75804224e-05  2.66380459e-03]]",[],0.0,0.0
1787564692.9087582,2.1932621563863,1.7114311168814638,2.6270715680458796,"[ 7.38544988e-06 -2.75638359e-07  0.00000000e+00  0.00000000e+00
  0.00000000e+00 -9.08085038e-07 -2.75638359e-07  5.01642976e-06
  0.00000000e+00  0.00000000e+00  0.00000000e+00 -2.04880597e-07
  0.00000000e+00  0.00000000e+00  0.00000000e+00  0.00000000e+00
  0.00000000e+00  0.00000000e+00  0.00000000e+00  0.00000000e+00
  0.00000000e+00  0.00000000e+00  0.00000000e+00  0.00000000e+00
  0.00000000e+00  0.00000000e+00  0.00000000e+00  0.00000000e+00
  0.00000000e+00  0.00000000e+00 -9.08085038e-07 -2.04880597e-07
  0.00000000e+00  0.00000000e+00  0.00000000e+00  4.24314097e-06]","[[ 1.76711738e-04  2.58110638e-03]
 [-4.75804224e-05  2.66380459e-03]]",[],0.0,0.0
1787564692.9704463,2.1932621563863,1.7114311168814638,2.6270715680458796,"[ 7.38544988e-06 -2.75638359e-07  0.00000000e+00  0.00000000e+00
  0.00000000e+00 -9.08085038e-07 -2.75638359e-07  5.01642976e-06
  0.00000000e+00  0.00000000e+00  0.00000000e+00 -2.04880597e-07
  0.00000000e+00  0.00000000e+00  0.00000000e+00  0.00000000e+00
  0.00000000e+00  0.00000000e+00  0.00000000e+00  0.00000000e+00
  0.00000000e+00  0.00000000e+00  0.00000000e+00  0.00000000e+00
  0.00000000e+00  0.00000000e+00  0.00000000e+00  0.00000000e+00
  0.00000000e+00  0.00000000e+00 -9.08085038e-07 -2.04880597e-07
  0.00000000e+00  0.00000000e+00  0.00000000e+00  4.24314097e-06]","[[ 1.76711738e-04  2.58110638e-03]
 [-4.75804224e-05  2.66380459e-03]]",[],0.0,0.0
1787564693.0138,2.1932621563863,1.7114311168814638,2.6270715680458796,"[ 7.38544988e-06 -2.75638359e-07  0.00000000e+00  0.00000000e+00
  0.00000000e+00 -9.08085038e-07 -2.75638359e-07  5.01642976e-06
  0.00000000e+00  0.00000000e+00  0.00000000e+00 -2.04880597e-07
  0.00000000e+00  0.00000000e+00  0.00000000e+00  0.00000000e+00
  0.00000000e+00  0.00000000e+00  0.00000000e+00  0.00000000e+00
  0.00000000e+00  0.00000000e+00  0.00000000e+00  0.00000000e+00
  0.00000000e+00  0.00000000e+00  0.00000000e+00  0.00000000e+00
  0.00000000e+00  0.00000000e+00 -9.08085038e-07 -2.04880597e-07
  0.00000000e+00  0.00000000e+00  0.00000000e+00  4.24314097e-06]","[[ 1.76711738e-04  2.58110638e-03]
 [-4.75804224e-05  2.66380459e-03]]",[],0.0,0.0
1787564693.0589294,2.1932621563863,1.7114311168814638,2.6270715680458796,"[ 7.38544988e-06 -2.75638359e-07  0.00000000e+00  0.00000000e+00
  0.00000000e+00 -9.08085038e-07 -2.75638359e-07  5.01642976e-06
  0.00000000e+00  0.00000000e+00  0.00000000e+00 -2.04880597e-07
  0.00000000e+00  0.00000000e+00  0.00000000e+00  0.00000000e+00
  0.00000000e+00  0.00000000e+00  0.00000000e+00  0.00000000e+00
  0.00000000e+00  0.00000000e+00  0.00000000e+00  0.00000000e+00
  0.00000000e+00  0.00000000e+00  0.00000000e+00  0.00000000e+00
  0.00000000e+00  0.00000000e+00 -9.08085038e-07 -2.04880597e-07
  0.00000000e+00  0.00000000e+00  0.00000000e+00  4.24314097e-06]","[[ 1.76711738e-04  2.58110638e-03]
 [-4.75804224e-05  2.66380459e-03]]",[],0.0,0.0
1787564693.1520197,2.1932621563863,1.7114311168814638,2.6270715680458796,"[ 7.38544988e-06 -2.75638359e-07  0.00000000e+00  0.00000000e+00
  0.00000000e+00 -9.08085038e-07 -2.75638359e-07  5.01642976e-06
  0.00000000e+00  0.00000000e+00  0.00000000e+00 -2.04880597e-07
  0.00000000e+00  0.00000000e+00  0.00000000e+00  0.00000000e+00
  0.00000000e+00  0.00000000e+00  0.00000000e+00  0.00000000e+00
  0.00000000e+00  0.00000000e+00  0.00000000e+00  0.00000000e+00
  0.00000000e+00  0.00000000e+00  0.00000000e+00  0.00000000e+00
  0.00000000e+00  0.00000000e+00 -9.08085038e-07 -2.04880597e-07
  0.00000000e+00  0.00000000e+00  0.00000000e+00  4.24314097e-06]","[[ 1.76711738e-04  2.58110638e-03]
 [-4.75804224e-05  2.66380459e-03]]",[],0.0,0.0
1787564693.159158,2.1932621563863,1.7114311168814638,2.6270715680458796,"[ 7.38544988e-06 -2.75638359e-07  0.00000000e+00  0.00000000e+00
  0.00000000e+00 -9.08085038e-07 -2.75638359e-07  5.01642976e-06
  0.00000000e+00  0.00000000e+00  0.00000000e+00 -2.04880597e-07
  0.00000000e+00  0.00000000e+00  0.00000000e+00  0.00000000e+00
  0.00000000e+00  0.00000000e+00  0.00000000e+00  0.00000000e+00
  0.00000000e+00  0.00000000e+00  0.00000000e+00  0.00000000e+00
  0.00000000e+00  0.00000000e+00  0.00000000e+00  0.00000000e+00
  0.00000000e+00  0.00000000e+00 -9.08085038e-07 -2.04880597e-07
  0.00000000e+00  0.00000000e+00  0.00000000e+00  4.24314097e-06]","[[ 1.76711738e-04  2.58110638e-03]
 [-4.75804224e-05  2.66380459e-03]]",[],0.0,0.0
1787564693.2619743,2.1932621563863,1.7114311168814638,2.6270715680458796,"[ 7.38544988e-06 -2.75638359e-07  0.00000000e+00  0.00000000e+00
  0.00000000e+00 -9.08085038e-07 -2.75638359e-07  5.01642976e-06
  0.00000000e+00  0.00000000e+00  0.00000000e+00 -2.04880597e-07
  0.00000000e+00  0.00000000e+00  0.00000000e+00  0.00000000e+00
  0.00000000e+00  0.00000000e+00  0.00000000e+00  0.00000000e+00
  0.00000000e+00  0.00000000e+00  0.00000000e+00  0.00000000e+00
  0.00000000e+00  0.00000000e+00  0.00000000e+00  0.00000000e+00
  0.00000000e+00  0.00000000e+00 -9.08085038e-07 -2.04880597e-07
  0.00000000e+00  0.00000000e+00  0.00000000e+00  4.24314097e-06]","[[ 1.76711738e-04  2.58110638e-03]
 [-4.75804224e-05  2.66380459e-03]]",[],0.0,0.0
1787564693.3215463,2.1932621563863,1.7114311168814638,2.6270715680458796,"[ 7.38544988e-06 -2.75638359e-07  0.00000000e+00  0.00000000e+00
  0.00000000e+00 -9.08085038e-07 -2.75638359e-07  5.01642976e-06
  0.00000000e+00  0.00000000e+00  0.00000000e+00 -2.04880597e-07
  0.00000000e+00  0.00000000e+00  0.00000000e+00  0.00000000e+00
  0.00000000e+00  0.00000000e+00  0.00000000e+00  0.00000000e+00
  0.00000000e+00  0.00000000e+00  0.00000000e+00  0.00000000e+00
  0.00000000e+00  0.00000000e+00  0.00000000e+00  0.00000000e+00
  0.00000000e+00  0.00000000e+00 -9.08085038e-07 -2.04880597e-07
  0.00000000e+00  0.00000000e+00  0.00000000e+00  4.24314097e-06]","[[ 1.76711738e-04  2.58110638e-03]
 [-4.75804224e-05  2.66380459e-03]]",[],0.0,0.0
1787564693.365443,2.1932621563863,1.7114311168814638,2.6270715680458796,"[ 7.38544988e-06 -2.75638359e-07  0.00000000e+00  0.00000000e+00
  0.00000000e+00 -9.08085038e-07 -2.75638359e-07  5.01642976e-06
  0.00000000e+00  0.00000000e+00  0.00000000e+00 -2.04880597e-07
  0.00000000e+00  0.00000000e+00  0.00000000e+00  0.00000000e+00
  0.00000000e+00  0.00000000e+00  0.00000000e+00  0.00000000e+00
  0.00000000e+00  0.00000000e+00  0.00000000e+00  0.00000000e+00
  0.00000000e+00  0.00000000e+00  0.00000000e+00  0.00000000e+00
  0.00000000e+00  0.00000000e+00 -9.08085038e-07 -2.04880597e-07
  0.00000000e+00  0.00000000e+00  0.00000000e+00  4.24314097e-06]","[[ 1.76711738e-04  2.58110638e-03]
 [-4.75804224e-05  2.66380459e-03]]",[],0.0,0.0
1787564693.445645,2.1932621563863,1.7114311168814638,2.6270715680458796,"[ 7.38544988e-06 -2.75638359e-07  0.00000000e+00  0.00000000e+00
  0.00000000e+00 -9.08085038e-07 -2.75638359e-07  5.01642976e-06
  0.00000000e+00  0.00000000e+00  0.00000000e+00 -2.04880597e-07
  0.00000000e+00  0.00000000e+00  0.00000000e+00  0.00000000e+00
  0.00000000e+00  0.00000000e+00  0.00000000e+00  0.00000000e+00
  0.00000000e+00  0.00000000e+00  0.00000000e+00  0.00000000e+00
  0.00000000e+00  0.00000000e+00  0.00000000e+00  0.00000000e+00
  0.00000000e+00  0.00000000e+00 -9.08085038e-07 -2.04880597e-07
  0.00000000e+00  0.00000000e+00  0.00000000e+00  4.24314097e-06]","[[ 1.76711738e-04  2.58110638e-03]
 [-4.75804224e-05  2.66380459e-03]]",[],0.0,0.0
1787564693.4580388,2.1932621563863,1.7114311168814638,2.6270715680458796,"[ 7.38544988e-06 -2.75638359e-07  0.00000000e+00  0.00000000e+00
  0.00000000e+00 -9.08085038e-07 -2.75638359e-07  5.01642976e-06
  0.00000000e+00  0.00000000e+00  0.00000000e+00 -2.04880597e-07
  0.00000000e+00  0.00000000e+00  0.00000000e+00  0.00000000e+00
  0.00000000e+00  0.00000000e+00  0.00000000e+00  0.00000000e+00
  0.00000000e+00  0.00000000e+00  0.00000000e+00  0.00000000e+00
  0.00000000e+00  0.00000000e+00  0.00000000e+00  0.00000000e+00
  0.00000000e+00  0.00000000e+00 -9.08085038e-07 -2.04880597e-07
  0.00000000e+00  0.00000000e+00  0.00000000e+00  4.24314097e-06]","[[ 1.76711738e-04  2.58110638e-03]
 [-4.75804224e-05  2.66380459e-03]]",[],0.0,0.0
1787564693.5087075,2.1932621563863,1.7114311168814638,2.6270715680458796,"[ 7.38544988e-06 -2.75638359e-07  0.00000000e+00  0.00000000e+00
  0.00000000e+00 -9.08085038e-07 -2.75638359e-07  5.01642976e-06
  0.00000000e+00  0.00000000e+00  0.00000000e+00 -2.04880597e-07
  0.00000000e+00  0.00000000e+00  0.00000000e+00  0.00000000e+00
  0.00000000e+00  0.00000000e+00  0.00000000e+00  0.00000000e+00
  0.00000000e+00  0.00000000e+00  0.00000000e+00  0.00000000e+00
  0.00000000e+00  0.00000000e+00  0.00000000e+00  0.00000000e+00
  0.00000000e+00  0.00000000e+00 -9.08085038e-07 -2.04880597e-07
  0.00000000e+00  0.00000000e+00  0.00000000e+00  4.24314097e-06]","[[ 1.76711738e-04  2.58110638e-03]
 [-4.75804224e-05  2.66380459e-03]]",[],0.0,0.0
1787564693.5587008,2.1932621563863,1.7114311168814638,2.6270715680458796,"[ 7.38544988e-06 -2.75638359e-07  0.00000000e+00  0.00000000e+00
  0.00000000e+00 -9.08085038e-07 -2.75638359e-07  5.01642976e-06
  0.00000000e+00  0.00000000e+00  0.00000000e+00 -2.04880597e-07
  0.00000000e+00  0.00000000e+00  0.00000000e+00  0.00000000e+00
  0.00000000e+00  0.00000000e+00  0.00000000e+00  0.00000000e+00
  0.00000000e+00  0.00000000e+00  0.00000000e+00  0.00000000e+00
  0.00000000e+00  0.00000000e+00  0.00000000e+00  0.00000000e+00
  0.00000000e+00  0.00000000e+00 -9.08085038e-07 -2.04880597e-07
  0.00000000e+00  0.00000000e+00  0.00000000e+00  4.24314097e-06]","[[ 1.76711738e-04  2.58110638e-03]
 [-4.75804224e-05  2.66380459e-03]]",[],0.0,0.0
1787564693.610686,2.1932621563863,1.7114311168814638,2.6270715680458796,"[ 7.38544988e-06 -2.75638359e-07  0.00000000e+00  0.00000000e+00
  0.00000000e+00 -9.08085038e-07 -2.75638359e-07  5.01642976e-06
  0.00000000e+00  0.00000000e+00  0.00000000e+00 -2.04880597e-07
  0.00000000e+00  0.00000000e+00  0.00000000e+00  0.00000000e+00
  0.00000000e+00  0.00000000e+00  0.00000000e+00  0.00000000e+00
  0.00000000e+00  0.00000000e+00  0.00000000e+00  0.00000000e+00
  0.00000000e+00  0.00000000e+00  0.00000000e+00  0.00000000e+00
  0.00000000e+00  0.00000000e+00 -9.08085038e-07 -2.04880597e-07
  0.00000000e+00  0.00000000e+00  0.00000000e+00  4.24314097e-06]","[[ 1.76711738e-04  2.58110638e-03]
 [-4.75804224e-05  2.66380459e-03]]",[],0.0,0.0
1787564693.6657178,2.1932621563863,1.7114311168814638,2.6270715680458796,"[ 7.38544988e-06 -2.75638359e-07  0.00000000e+00  0.00000000e+00
  0.00000000e+00 -9.08085038e-07 -2.75638359e-07  5.01642976e-06
  0.00000000e+00  0.00000000e+00  0.00000000e+00 -2.04880597e-07
  0.00000000e+00  0.00000000e+00  0.00000000e+00  0.00000000e+00
  0.00000000e+00  0.00000000e+00  0.00000000e+00  0.00000000e+00
  0.00000000e+00  0.00000000e+00  0.00000000e+00  0.00000000e+00
  0.00000000e+00  0.00000000e+00  0.00000000e+00  0.00000000e+00
  0.00000000e+00  0.00000000e+00 -9.08085038e-07 -2.04880597e-07
  0.00000000e+00  0.00000000e+00  0.00000000e+00  4.24314097e-06]","[[ 1.76711738e-04  2.58110638e-03]
 [-4.75804224e-05  2.66380459e-03]]",[],0.0,0.0
1787564693.7388928,2.1932621563863,1.7114311168814638,2.6270715680458796,"[ 7.38544988e-06 -2.75638359e-07  0.00000000e+00  0.00000000e+00
  0.00000000e+00 -9.08085038e-07 -2.75638359e-07  5.01642976e-06
  0.00000000e+00  0.00000000e+00  0.00000000e+00 -2.04880597e-07
  0.00000000e+00  0.00000000e+00  0.00000000e+00  0.00000000e+00
  0.00000000e+00  0.00000000e+00  0.00000000e+00  0.00000000e+00
  0.00000000e+00  0.00000000e+00  0.00000000e+00  0.00000000e+00
  0.00000000e+00  0.00000000e+00  0.00000000e+00  0.00000000e+00
  0.00000000e+00  0.00000000e+00 -9.08085038e-07 -2.04880597e-07
  0.00000000e+00  0.00000000e+00  0.00000000e+00  4.24314097e-06]","[[ 1.76711738e-04  2.58110638e-03]
 [-4.75804224e-05  2.66380459e-03]]",[],0.0,0.0
1787564693.8419394,2.1932621563863,1.7114311168814638,2.6270715680458796,"[ 7.38544988e-06 -2.75638359e-07  0.00000000e+00  0.00000000e+00
  0.00000000e+00 -9.08085038e-07 -2.75638359e-07  5.01642976e-06
  0.00000000e+00  0.00000000e+00  0.00000000e+00 -2.04880597e-07
  0.00000000e+00  0.00000000e+00  0.00000000e+00  0.00000000e+00
  0.00000000e+00  0.00000000e+00  0.00000000e+00  0.00000000e+00
  0.00000000e+00  0.00000000e+00  0.00000000e+00  0.00000000e+00
  0.00000000e+00  0.00000000e+00  0.00000000e+00  0.00000000e+00
  0.00000000e+00  0.00000000e+00 -9.08085038e-07 -2.04880597e-07
  0.00000000e+00  0.00000000e+00  0.00000000e+00  4.24314097e-06]","[[ 1.76711738e-04  2.58110638e-03]
 [-4.75804224e-05  2.66380459e-03]]",[],0.0,0.0
1787564693.8604348,2.1932621563863,1.7114311168814638,2.6270715680458796,"[ 7.38544988e-06 -2.75638359e-07  0.00000000e+00  0.00000000e+00
  0.00000000e+00 -9.08085038e-07 -2.75638359e-07  5.01642976e-06
  0.00000000e+00  0.00000000e+00  0.00000000e+00 -2.04880597e-07
  0.00000000e+00  0.00000000e+00  0.00000000e+00  0.00000000e+00
  0.00000000e+00  0.00000000e+00  0.00000000e+00  0.00000000e+00
  0.00000000e+00  0.00000000e+00  0.00000000e+00  0.00000000e+00
  0.00000000e+00  0.00000000e+00  0.00000000e+00  0.00000000e+00
  0.00000000e+00  0.00000000e+00 -9.08085038e-07 -2.04880597e-07
  0.00000000e+00  0.00000000e+00  0.00000000e+00  4.24314097e-06]","[[ 1.76711738e-04  2.58110638e-03]
 [-4.75804224e-05  2.66380459e-03]]",[],0.0,0.0
1787564693.9081743,2.1932621563863,1.7114311168814638,2.6270715680458796,"[ 7.38544988e-06 -2.75638359e-07  0.00000000e+00  0.00000000e+00
  0.00000000e+00 -9.08085038e-07 -2.75638359e-07  5.01642976e-06
  0.00000000e+00  0.00000000e+00  0.00000000e+00 -2.04880597e-07
  0.00000000e+00  0.00000000e+00  0.00000000e+00  0.00000000e+00
  0.00000000e+00  0.00000000e+00  0.00000000e+00  0.00000000e+00
  0.00000000e+00  0.00000000e+00  0.00000000e+00  0.00000000e+00
  0.00000000e+00  0.00000000e+00  0.00000000e+00  0.00000000e+00
  0.00000000e+00  0.00000000e+00 -9.08085038e-07 -2.04880597e-07
  0.00000000e+00  0.00000000e+00  0.00000000e+00  4.24314097e-06]","[[ 1.76711738e-04  2.58110638e-03]
 [-4.75804224e-05  2.66380459e-03]]",[],0.0,0.0
1787564693.963892,2.2006734734888416,1.7066032846210601,2.654669606922254,"[ 7.06332304e-06 -4.08049578e-07  0.00000000e+00  0.00000000e+00
  0.00000000e+00 -8.55018152e-07 -4.08049578e-07  4.69855023e-06
  0.00000000e+00  0.00000000e+00  0.00000000e+00 -1.33506355e-07
  0.00000000e+00  0.00000000e+00  0.00000000e+00  0.00000000e+00
  0.00000000e+00  0.00000000e+00  0.00000000e+00  0.00000000e+00
  0.00000000e+00  0.00000000e+00  0.00000000e+00  0.00000000e+00
  0.00000000e+00  0.00000000e+00  0.00000000e+00  0.00000000e+00
  0.00000000e+00  0.00000000e+00 -8.55018152e-07 -1.33506355e-07
  0.00000000e+00  0.00000000e+00  0.00000000e+00  4.22381774e-06]","[[ 1.70141318e-04  2.37908340e-03]
 [-4.82068383e-05  2.36821211e-03]]",[],0.0,0.0
1787564694.036013,2.2006734734888416,1.7066032846210601,2.654669606922254,"[ 7.06332304e-06 -4.08049578e-07  0.00000000e+00  0.00000000e+00
  0.00000000e+00 -8.55018152e-07 -4.08049578e-07  4.69855023e-06
  0.00000000e+00  0.00000000e+00  0.00000000e+00 -1.33506355e-07
  0.00000000e+00  0.00000000e+00  0.00000000e+00  0.00000000e+00
  0.00000000e+00  0.00000000e+00  0.00000000e+00  0.00000000e+00
  0.00000000e+00  0.00000000e+00  0.00000000e+00  0.00000000e+00
  0.00000000e+00  0.00000000e+00  0.00000000e+00  0.00000000e+00
  0.00000000e+00  0.00000000e+00 -8.55018152e-07 -1.33506355e-07
  0.00000000e+00  0.00000000e+00  0.00000000e+00  4.22381774e-06]","[[ 1.70141318e-04  2.37908340e-03]
 [-4.82068383e-05  2.36821211e-03]]",[],0.0,0.0
1787564694.057847,2.2006734734888416,1.7066032846210601,2.654669606922254,"[ 7.06332304e-06 -4.08049578e-07  0.00000000e+00  0.00000000e+00
  0.00000000e+00 -8.55018152e-07 -4.08049578e-07  4.69855023e-06
  0.00000000e+00  0.00000000e+00  0.00000000e+00 -1.33506355e-07
  0.00000000e+00  0.00000000e+00  0.00000000e+00  0.00000000e+00
  0.00000000e+00  0.00000000e+00  0.00000000e+00  0.00000000e+00
  0.00000000e+00  0.00000000e+00  0.00000000e+00  0.00000000e+00
  0.00000000e+00  0.00000000e+00  0.00000000e+00  0.00000000e+00
  0.00000000e+00  0.00000000e+00 -8.55018152e-07 -1.33506355e-07
  0.00000000e+00  0.00000000e+00  0.00000000e+00  4.22381774e-06]","[[ 1.70141318e-04  2.37908340e-03]
 [-4.82068383e-05  2.36821211e-03]]",[],0.0,0.0
1787564694.108414,2.2006734734888416,1.7066032846210601,2.654669606922254,"[ 7.06332304e-06 -4.08049578e-07  0.00000000e+00  0.00000000e+00
  0.00000000e+00 -8.55018152e-07 -4.08049578e-07  4.69855023e-06
  0.00000000e+00  0.00000000e+00  0.00000000e+00 -1.33506355e-07
  0.00000000e+00  0.00000000e+00  0.00000000e+00  0.00000000e+00
  0.00000000e+00  0.00000000e+00  0.00000000e+00  0.00000000e+00
  0.00000000e+00  0.00000000e+00  0.00000000e+00  0.00000000e+00
  0.00000000e+00  0.00000000e+00  0.00000000e+00  0.00000000e+00
  0.00000000e+00  0.00000000e+00 -8.55018152e-07 -1.33506355e-07
  0.00000000e+00  0.00000000e+00  0.00000000e+00  4.22381774e-06]","[[ 1.70141318e-04  2.37908340e-03]
 [-4.82068383e-05  2.36821211e-03]]",[],0.0,0.0
1787564694.1628623,2.2006734734888416,1.7066032846210601,2.654669606922254,"[ 7.06332304e-06 -4.08049578e-07  0.00000000e+00  0.00000000e+00
  0.00000000e+00 -8.55018152e-07 -4.08049578e-07  4.69855023e-06
  0.00000000e+00  0.00000000e+00  0.00000000e+00 -1.33506355e-07
  0.00000000e+00  0.00000000e+00  0.00000000e+00  0.00000000e+00
  0.00000000e+00  0.00000000e+00  0.00000000e+00  0.00000000e+00
  0.00000000e+00  0.00000000e+00  0.00000000e+00  0.00000000e+00
  0.00000000e+00  0.00000000e+00  0.00000000e+00  0.00000000e+00
  0.00000000e+00  0.00000000e+00 -8.55018152e-07 -1.33506355e-07
  0.00000000e+00  0.00000000e+00  0.00000000e+00  4.22381774e-06]","[[ 1.70141318e-04  2.37908340e-03]
 [-4.82068383e-05  2.36821211e-03]]",[],0.0,0.0
1787564694.2078373,2.2006734734888416,1.7066032846210601,2.654669606922254,"[ 7.06332304e-06 -4.08049578e-07  0.00000000e+00  0.00000000e+00
  0.00000000e+00 -8.55018152e-07 -4.08049578e-07  4.69855023e-06
  0.00000000e+00  0.00000000e+00  0.00000000e+00 -1.33506355e-07
  0.00000000e+00  0.00000000e+00  0.00000000e+00  0.00000000e+00
  0.00000000e+00  0.00000000e+00  0.00000000e+00  0.00000000e+00
  0.00000000e+00  0.00000000e+00  0.00000000e+00  0.00000000e+00
  0.00000000e+00  0.00000000e+00  0.00000000e+00  0.00000000e+00
  0.00000000e+00  0.00000000e+00 -8.55018152e-07 -1.33506355e-07
  0.00000000e+00  0.00000000e+00  0.00000000e+00  4.22381774e-06]","[[ 1.70141318e-04  2.37908340e-03]
 [-4.82068383e-05  2.36821211e-03]]",[],0.0,0.0
1787564694.2615218,2.2006734734888416,1.7066032846210601,2.654669606922254,"[ 7.06332304e-06 -4.08049578e-07  0.00000000e+00  0.00000000e+00
  0.00000000e+00 -8.55018152e-07 -4.08049578e-07  4.69855023e-06
  0.00000000e+00  0.00000000e+00  0.00000000e+00 -1.33506355e-07
  0.00000000e+00  0.00000000e+00  0.00000000e+00  0.00000000e+00
  0.00000000e+00  0.00000000e+00  0.00000000e+00  0.00000000e+00
  0.00000000e+00  0.00000000e+00  0.00000000e+00  0.00000000e+00
  0.00000000e+00  0.00000000e+00  0.00000000e+00  0.00000000e+00
  0.00000000e+00  0.00000000e+00 -8.55018152e-07 -1.33506355e-07
  0.00000000e+00  0.00000000e+00  0.00000000e+00  4.22381774e-06]","[[ 1.70141318e-04  2.37908340e-03]
 [-4.82068383e-05  2.36821211e-03]]",[],0.0,0.0
1787564694.3188202,2.2006734734888416,1.7066032846210601,2.654669606922254,"[ 7.06332304e-06 -4.08049578e-07  0.00000000e+00  0.00000000e+00
  0.00000000e+00 -8.55018152e-07 -4.08049578e-07  4.69855023e-06
  0.00000000e+00  0.00000000e+00  0.00000000e+00 -1.33506355e-07
  0.00000000e+00  0.00000000e+00  0.00000000e+00  0.00000000e+00
  0.00000000e+00  0.00000000e+00  0.00000000e+00  0.00000000e+00
  0.00000000e+00  0.00000000e+00  0.00000000e+00  0.00000000e+00
  0.00000000e+00  0.00000000e+00  0.00000000e+00  0.00000000e+00
  0.00000000e+00  0.00000000e+00 -8.55018152e-07 -1.33506355e-07
  0.00000000e+00  0.00000000e+00  0.00000000e+00  4.22381774e-06]","[[ 1.70141318e-04  2.37908340e-03]
 [-4.82068383e-05  2.36821211e-03]]",[],0.0,0.0
1787564694.358735,2.2006734734888416,1.7066032846210601,2.654669606922254,"[ 7.06332304e-06 -4.08049578e-07  0.00000000e+00  0.00000000e+00
  0.00000000e+00 -8.55018152e-07 -4.08049578e-07  4.69855023e-06
  0.00000000e+00  0.00000000e+00  0.00000000e+00 -1.33506355e-07
  0.00000000e+00  0.00000000e+00  0.00000000e+00  0.00000000e+00
  0.00000000e+00  0.00000000e+00  0.00000000e+00  0.00000000e+00
  0.00000000e+00  0.00000000e+00  0.00000000e+00  0.00000000e+00
  0.00000000e+00  0.00000000e+00  0.00000000e+00  0.00000000e+00
  0.00000000e+00  0.00000000e+00 -8.55018152e-07 -1.33506355e-07
  0.00000000e+00  0.00000000e+00  0.00000000e+00  4.22381774e-06]","[[ 1.70141318e-04  2.37908340e-03]
 [-4.82068383e-05  2.36821211e-03]]",[],0.0,0.0
1787564694.4158866,2.2006734734888416,1.7066032846210601,2.654669606922254,"[ 7.06332304e-06 -4.08049578e-07  0.00000000e+00  0.00000000e+00
  0.00000000e+00 -8.55018152e-07 -4.08049578e-07  4.69855023e-06
  0.00000000e+00  0.00000000e+00  0.00000000e+00 -1.33506355e-07
  0.00000000e+00  0.00000000e+00  0.00000000e+00  0.00000000e+00
  0.00000000e+00  0.00000000e+00  0.00000000e+00  0.00000000e+00
  0.00000000e+00  0.00000000e+00  0.00000000e+00  0.00000000e+00
  0.00000000e+00  0.00000000e+00  0.00000000e+00  0.00000000e+00
  0.00000000e+00  0.00000000e+00 -8.55018152e-07 -1.33506355e-07
  0.00000000e+00  0.00000000e+00  0.00000000e+00  4.22381774e-06]","[[ 1.70141318e-04  2.37908340e-03]
 [-4.82068383e-05  2.36821211e-03]]",[],0.0,0.0
1787564694.468335,2.2006734734888416,1.7066032846210601,2.654669606922254,"[ 7.06332304e-06 -4.08049578e-07  0.00000000e+00  0.00000000e+00
  0.00000000e+00 -8.55018152e-07 -4.08049578e-07  4.69855023e-06
  0.00000000e+00  0.00000000e+00  0.00000000e+00 -1.33506355e-07
  0.00000000e+00  0.00000000e+00  0.00000000e+00  0.00000000e+00
  0.00000000e+00  0.00000000e+00  0.00000000e+00  0.00000000e+00
  0.00000000e+00  0.00000000e+00  0.00000000e+00  0.00000000e+00
  0.00000000e+00  0.00000000e+00  0.00000000e+00  0.00000000e+00
  0.00000000e+00  0.00000000e+00 -8.55018152e-07 -1.33506355e-07
  0.00000000e+00  0.00000000e+00  0.00000000e+00  4.22381774e-06]","[[ 1.70141318e-04  2.37908340e-03]
 [-4.82068383e-05  2.36821211e-03]]",[],0.0,0.0
1787564694.5079017,2.2006734734888416,1.7066032846210601,2.654669606922254,"[ 7.06332304e-06 -4.08049578e-07  0.00000000e+00  0.00000000e+00
  0.00000000e+00 -8.55018152e-07 -4.08049578e-07  4.69855023e-06
  0.00000000e+00  0.00000000e+00  0.00000000e+00 -1.33506355e-07
  0.00000000e+00  0.00000000e+00  0.00000000e+00  0.00000000e+00
  0.00000000e+00  0.00000000e+00  0.00000000e+00  0.00000000e+00
  0.00000000e+00  0.00000000e+00  0.00000000e+00  0.00000000e+00
  0.00000000e+00  0.00000000e+00  0.00000000e+00  0.00000000e+00
  0.00000000e+00  0.00000000e+00 -8.55018152e-07 -1.33506355e-07
  0.00000000e+00  0.00000000e+00  0.00000000e+00  4.22381774e-06]","[[ 1.70141318e-04  2.37908340e-03]
 [-4.82068383e-05  2.36821211e-03]]",[],0.0,0.0
1787564694.56064,2.2006734734888416,1.7066032846210601,2.654669606922254,"[ 7.06332304e-06 -4.08049578e-07  0.00000000e+00  0.00000000e+00
  0.00000000e+00 -8.55018152e-07 -4.08049578e-07  4.69855023e-06
  0.00000000e+00  0.00000000e+00  0.00000000e+00 -1.33506355e-07
  0.00000000e+00  0.00000000e+00  0.00000000e+00  0.00000000e+00
  0.00000000e+00  0.00000000e+00  0.00000000e+00  0.00000000e+00
  0.00000000e+00  0.00000000e+00  0.00000000e+00  0.00000000e+00
  0.00000000e+00  0.00000000e+00  0.00000000e+00  0.00000000e+00
  0.00000000e+00  0.00000000e+00 -8.55018152e-07 -1.33506355e-07
  0.00000000e+00  0.00000000e+00  0.00000000e+00  4.22381774e-06]","[[ 1.70141318e-04  2.37908340e-03]
 [-4.82068383e-05  2.36821211e-03]]",[],0.0,0.0
1787564694.627075,2.2006734734888416,1.7066032846210601,2.654669606922254,"[ 7.06332304e-06 -4.08049578e-07  0.00000000e+00  0.00000000e+00
  0.00000000e+00 -8.55018152e-07 -4.08049578e-07  4.69855023e-06
  0.00000000e+00  0.00000000e+00  0.00000000e+00 -1.33506355e-07
  0.00000000e+00  0.00000000e+00  0.00000000e+00  0.00000000e+00
  0.00000000e+00  0.00000000e+00  0.00000000e+00  0.00000000e+00
  0.00000000e+00  0.00000000e+00  0.00000000e+00  0.00000000e+00
  0.00000000e+00  0.00000000e+00  0.00000000e+00  0.00000000e+00
  0.00000000e+00  0.00000000e+00 -8.55018152e-07 -1.33506355e-07
  0.00000000e+00  0.00000000e+00  0.00000000e+00  4.22381774e-06]","[[ 1.70141318e-04  2.37908340e-03]
 [-4.82068383e-05  2.36821211e-03]]",[],0.0,0.0
1787564694.658931,2.2006734734888416,1.7066032846210601,2.654669606922254,"[ 7.06332304e-06 -4.08049578e-07  0.00000000e+00  0.00000000e+00
  0.00000000e+00 -8.55018152e-07 -4.08049578e-07  4.69855023e-06
  0.00000000e+00  0.00000000e+00  0.00000000e+00 -1.33506355e-07
  0.00000000e+00  0.00000000e+00  0.00000000e+00  0.00000000e+00
  0.00000000e+00  0.00000000e+00  0.00000000e+00  0.00000000e+00
  0.00000000e+00  0.00000000e+00  0.00000000e+00  0.00000000e+00
  0.00000000e+00  0.00000000e+00  0.00000000e+00  0.00000000e+00
  0.00000000e+00  0.00000000e+00 -8.55018152e-07 -1.33506355e-07
  0.00000000e+00  0.00000000e+00  0.00000000e+00  4.22381774e-06]","[[ 1.70141318e-04  2.37908340e-03]
 [-4.82068383e-05  2.36821211e-03]]",[],0.0,0.0
1787564694.737972,2.2006734734888416,1.7066032846210601,2.654669606922254,"[ 7.06332304e-06 -4.08049578e-07  0.00000000e+00  0.00000000e+00
  0.00000000e+00 -8.55018152e-07 -4.08049578e-07  4.69855023e-06
  0.00000000e+00  0.00000000e+00  0.00000000e+00 -1.33506355e-07
  0.00000000e+00  0.00000000e+00  0.00000000e+00  0.00000000e+00
  0.00000000e+00  0.00000000e+00  0.00000000e+00  0.00000000e+00
  0.00000000e+00  0.00000000e+00  0.00000000e+00  0.00000000e+00
  0.00000000e+00  0.00000000e+00  0.00000000e+00  0.00000000e+00
  0.00000000e+00  0.00000000e+00 -8.55018152e-07 -1.33506355e-07
  0.00000000e+00  0.00000000e+00  0.00000000e+00  4.22381774e-06]","[[ 1.70141318e-04  2.37908340e-03]
 [-4.82068383e-05  2.36821211e-03]]",[],0.0,0.0
1787564694.759889,2.2006734734888416,1.7066032846210601,2.654669606922254,"[ 7.06332304e-06 -4.08049578e-07  0.00000000e+00  0.00000000e+00
  0.00000000e+00 -8.55018152e-07 -4.08049578e-07  4.69855023e-06
  0.00000000e+00  0.00000000e+00  0.00000000e+00 -1.33506355e-07
  0.00000000e+00  0.00000000e+00  0.00000000e+00  0.00000000e+00
  0.00000000e+00  0.00000000e+00  0.00000000e+00  0.00000000e+00
  0.00000000e+00  0.00000000e+00  0.00000000e+00  0.00000000e+00
  0.00000000e+00  0.00000000e+00  0.00000000e+00  0.00000000e+00
  0.00000000e+00  0.00000000e+00 -8.55018152e-07 -1.33506355e-07
  0.00000000e+00  0.00000000e+00  0.00000000e+00  4.22381774e-06]","[[ 1.70141318e-04  2.37908340e-03]
 [-4.82068383e-05  2.36821211e-03]]",[],0.0,0.0
1787564694.8088584,2.2006734734888416,1.7066032846210601,2.654669606922254,"[ 7.06332304e-06 -4.08049578e-07  0.00000000e+00  0.00000000e+00
  0.00000000e+00 -8.55018152e-07 -4.08049578e-07  4.69855023e-06
  0.00000000e+00  0.00000000e+00  0.00000000e+00 -1.33506355e-07
  0.00000000e+00  0.00000000e+00  0.00000000e+00  0.00000000e+00
  0.00000000e+00  0.00000000e+00  0.00000000e+00  0.00000000e+00
  0.00000000e+00  0.00000000e+00  0.00000000e+00  0.00000000e+00
  0.00000000e+00  0.00000000e+00  0.00000000e+00  0.00000000e+00
  0.00000000e+00  0.00000000e+00 -8.55018152e-07 -1.33506355e-07
  0.00000000e+00  0.00000000e+00  0.00000000e+00  4.22381774e-06]","[[ 1.70141318e-04  2.37908340e-03]
 [-4.82068383e-05  2.36821211e-03]]",[],0.0,0.0
1787564694.857949,2.2006734734888416,1.7066032846210601,2.654669606922254,"[ 7.06332304e-06 -4.08049578e-07  0.00000000e+00  0.00000000e+00
  0.00000000e+00 -8.55018152e-07 -4.08049578e-07  4.69855023e-06
  0.00000000e+00  0.00000000e+00  0.00000000e+00 -1.33506355e-07
  0.00000000e+00  0.00000000e+00  0.00000000e+00  0.00000000e+00
  0.00000000e+00  0.00000000e+00  0.00000000e+00  0.00000000e+00
  0.00000000e+00  0.00000000e+00  0.00000000e+00  0.00000000e+00
  0.00000000e+00  0.00000000e+00  0.00000000e+00  0.00000000e+00
  0.00000000e+00  0.00000000e+00 -8.55018152e-07 -1.33506355e-07
  0.00000000e+00  0.00000000e+00  0.00000000e+00  4.22381774e-06]","[[ 1.70141318e-04  2.37908340e-03]
 [-4.82068383e-05  2.36821211e-03]]",[],0.0,0.0
1787564694.9125786,2.2006734734888416,1.7066032846210601,2.654669606922254,"[ 7.06332304e-06 -4.08049578e-07  0.00000000e+00  0.00000000e+00
  0.00000000e+00 -8.55018152e-07 -4.08049578e-07  4.69855023e-06
  0.00000000e+00  0.00000000e+00  0.00000000e+00 -1.33506355e-07
  0.00000000e+00  0.00000000e+00  0.00000000e+00  0.00000000e+00
  0.00000000e+00  0.00000000e+00  0.00000000e+00  0.00000000e+00
  0.00000000e+00  0.00000000e+00  0.00000000e+00  0.00000000e+00
  0.00000000e+00  0.00000000e+00  0.00000000e+00  0.00000000e+00
  0.00000000e+00  0.00000000e+00 -8.55018152e-07 -1.33506355e-07
  0.00000000e+00  0.00000000e+00  0.00000000e+00  4.22381774e-06]","[[ 1.70141318e-04  2.37908340e-03]
 [-4.82068383e-05  2.36821211e-03]]",[],0.0,0.0
1787564694.9637234,2.2006734734888416,1.7066032846210601,2.654669606922254,"[ 7.06332304e-06 -4.08049578e-07  0.00000000e+00  0.00000000e+00
  0.00000000e+00 -8.55018152e-07 -4.08049578e-07  4.69855023e-06
  0.00000000e+00  0.00000000e+00  0.00000000e+00 -1.33506355e-07
  0.00000000e+00  0.00000000e+00  0.00000000e+00  0.00000000e+00
  0.00000000e+00  0.00000000e+00  0.00000000e+00  0.00000000e+00
  0.00000000e+00  0.00000000e+00  0.00000000e+00  0.00000000e+00
  0.00000000e+00  0.00000000e+00  0.00000000e+00  0.00000000e+00
  0.00000000e+00  0.00000000e+00 -8.55018152e-07 -1.33506355e-07
  0.00000000e+00  0.00000000e+00  0.00000000e+00  4.22381774e-06]","[[ 1.70141318e-04  2.37908340e-03]
 [-4.82068383e-05  2.36821211e-03]]",[],0.0,0.0
1787564695.0133877,2.2006734734888416,1.7066032846210601,2.654669606922254,"[ 7.06332304e-06 -4.08049578e-07  0.00000000e+00  0.00000000e+00
  0.00000000e+00 -8.55018152e-07 -4.08049578e-07  4.69855023e-06
  0.00000000e+00  0.00000000e+00  0.00000000e+00 -1.33506355e-07
  0.00000000e+00  0.00000000e+00  0.00000000e+00  0.00000000e+00
  0.00000000e+00  0.00000000e+00  0.00000000e+00  0.00000000e+00
  0.00000000e+00  0.00000000e+00  0.00000000e+00  0.00000000e+00
  0.00000000e+00  0.00000000e+00  0.00000000e+00  0.00000000e+00
  0.00000000e+00  0.00000000e+00 -8.55018152e-07 -1.33506355e-07
  0.00000000e+00  0.00000000e+00  0.00000000e+00  4.22381774e-06]","[[ 1.70141318e-04  2.37908340e-03]
 [-4.82068383e-05  2.36821211e-03]]",[],0.0,0.0
1787564695.072188,2.2006734734888416,1.7066032846210601,2.654669606922254,"[ 7.06332304e-06 -4.08049578e-07  0.00000000e+00  0.00000000e+00
  0.00000000e+00 -8.55018152e-07 -4.08049578e-07  4.69855023e-06
  0.00000000e+00  0.00000000e+00  0.00000000e+00 -1.33506355e-07
  0.00000000e+00  0.00000000e+00  0.00000000e+00  0.00000000e+00
  0.00000000e+00  0.00000000e+00  0.00000000e+00  0.00000000e+00
  0.00000000e+00  0.00000000e+00  0.00000000e+00  0.00000000e+00
  0.00000000e+00  0.00000000e+00  0.00000000e+00  0.00000000e+00
  0.00000000e+00  0.00000000e+00 -8.55018152e-07 -1.33506355e-07
  0.00000000e+00  0.00000000e+00  0.00000000e+00  4.22381774e-06]","[[ 1.70141318e-04  2.37908340e-03]
 [-4.82068383e-05  2.36821211e-03]]",[],0.0,0.0
1787564695.109122,2.2006734734888416,1.7066032846210601,2.654669606922254,"[ 7.06332304e-06 -4.08049578e-07  0.00000000e+00  0.00000000e+00
  0.00000000e+00 -8.55018152e-07 -4.08049578e-07  4.69855023e-06
  0.00000000e+00  0.00000000e+00  0.00000000e+00 -1.33506355e-07
  0.00000000e+00  0.00000000e+00  0.00000000e+00  0.00000000e+00
  0.00000000e+00  0.00000000e+00  0.00000000e+00  0.00000000e+00
  0.00000000e+00  0.00000000e+00  0.00000000e+00  0.00000000e+00
  0.00000000e+00  0.00000000e+00  0.00000000e+00  0.00000000e+00
  0.00000000e+00  0.00000000e+00 -8.55018152e-07 -1.33506355e-07
  0.00000000e+00  0.00000000e+00  0.00000000e+00  4.22381774e-06]","[[ 1.70141318e-04  2.37908340e-03]
 [-4.82068383e-05  2.36821211e-03]]",[],0.0,0.0
1787564695.1750462,2.2006734734888416,1.7066032846210601,2.654669606922254,"[ 7.06332304e-06 -4.08049578e-07  0.00000000e+00  0.00000000e+00
  0.00000000e+00 -8.55018152e-07 -4.08049578e-07  4.69855023e-06
  0.00000000e+00  0.00000000e+00  0.00000000e+00 -1.33506355e-07
  0.00000000e+00  0.00000000e+00  0.00000000e+00  0.00000000e+00
  0.00000000e+00  0.00000000e+00  0.00000000e+00  0.00000000e+00
  0.00000000e+00  0.00000000e+00  0.00000000e+00  0.00000000e+00
  0.00000000e+00  0.00000000e+00  0.00000000e+00  0.00000000e+00
  0.00000000e+00  0.00000000e+00 -8.55018152e-07 -1.33506355e-07
  0.00000000e+00  0.00000000e+00  0.00000000e+00  4.22381774e-06]","[[ 1.70141318e-04  2.37908340e-03]
 [-4.82068383e-05  2.36821211e-03]]",[],0.0,0.0
1787564695.212955,2.2070940535154095,1.703209902074584,2.6655834640732756,"[ 6.84554440e-06 -5.11172831e-07  0.00000000e+00  0.00000000e+00
  0.00000000e+00 -6.49689445e-07 -5.11172831e-07  4.41192250e-06
  0.00000000e+00  0.00000000e+00  0.00000000e+00 -1.52141702e-07
  0.00000000e+00  0.00000000e+00  0.00000000e+00  0.00000000e+00
  0.00000000e+00  0.00000000e+00  0.00000000e+00  0.00000000e+00
  0.00000000e+00  0.00000000e+00  0.00000000e+00  0.00000000e+00
  0.00000000e+00  0.00000000e+00  0.00000000e+00  0.00000000e+00
  0.00000000e+00  0.00000000e+00 -6.49689445e-07 -1.52141702e-07
  0.00000000e+00  0.00000000e+00  0.00000000e+00  4.24320007e-06]","[[ 1.65817039e-04  1.95503258e-03]
 [-4.83529472e-05  2.24129294e-03]]",[],0.0,0.0
1787564695.26237,2.2070940535154095,1.703209902074584,2.6655834640732756,"[ 6.84554440e-06 -5.11172831e-07  0.00000000e+00  0.00000000e+00
  0.00000000e+00 -6.49689445e-07 -5.11172831e-07  4.41192250e-06
  0.00000000e+00  0.00000000e+00  0.00000000e+00 -1.52141702e-07
  0.00000000e+00  0.00000000e+00  0.00000000e+00  0.00000000e+00
  0.00000000e+00  0.00000000e+00  0.00000000e+00  0.00000000e+00
  0.00000000e+00  0.00000000e+00  0.00000000e+00  0.00000000e+00
  0.00000000e+00  0.00000000e+00  0.00000000e+00  0.00000000e+00
  0.00000000e+00  0.00000000e+00 -6.49689445e-07 -1.52141702e-07
  0.00000000e+00  0.00000000e+00  0.00000000e+00  4.24320007e-06]","[[ 1.65817039e-04  1.95503258e-03]
 [-4.83529472e-05  2.24129294e-03]]",[],0.0,0.0
1787564695.3100457,2.2070940535154095,1.703209902074584,2.6655834640732756,"[ 6.84554440e-06 -5.11172831e-07  0.00000000e+00  0.00000000e+00
  0.00000000e+00 -6.49689445e-07 -5.11172831e-07  4.41192250e-06
  0.00000000e+00  0.00000000e+00  0.00000000e+00 -1.52141702e-07
  0.00000000e+00  0.00000000e+00  0.00000000e+00  0.00000000e+00
  0.00000000e+00  0.00000000e+00  0.00000000e+00  0.00000000e+00
  0.00000000e+00  0.00000000e+00  0.00000000e+00  0.00000000e+00
  0.00000000e+00  0.00000000e+00  0.00000000e+00  0.00000000e+00
  0.00000000e+00  0.00000000e+00 -6.49689445e-07 -1.52141702e-07
  0.00000000e+00  0.00000000e+00  0.00000000e+00  4.24320007e-06]","[[ 1.65817039e-04  1.95503258e-03]
 [-4.83529472e-05  2.24129294e-03]]",[],0.0,0.0
1787564695.3598514,2.2070940535154095,1.703209902074584,2.6655834640732756,"[ 6.84554440e-06 -5.11172831e-07  0.00000000e+00  0.00000000e+00
  0.00000000e+00 -6.49689445e-07 -5.11172831e-07  4.41192250e-06
  0.00000000e+00  0.00000000e+00  0.00000000e+00 -1.52141702e-07
  0.00000000e+00  0.00000000e+00  0.00000000e+00  0.00000000e+00
  0.00000000e+00  0.00000000e+00  0.00000000e+00  0.00000000e+00
  0.00000000e+00  0.00000000e+00  0.00000000e+00  0.00000000e+00
  0.00000000e+00  0.00000000e+00  0.00000000e+00  0.00000000e+00
  0.00000000e+00  0.00000000e+00 -6.49689445e-07 -1.52141702e-07
  0.00000000e+00  0.00000000e+00  0.00000000e+00  4.24320007e-06]","[[ 1.65817039e-04  1.95503258e-03]
 [-4.83529472e-05  2.24129294e-03]]",[],0.0,0.0
1787564695.4111822,2.2070940535154095,1.703209902074584,2.6655834640732756,"[ 6.84554440e-06 -5.11172831e-07  0.00000000e+00  0.00000000e+00
  0.00000000e+00 -6.49689445e-07 -5.11172831e-07  4.41192250e-06
  0.00000000e+00  0.00000000e+00  0.00000000e+00 -1.52141702e-07
  0.00000000e+00  0.00000000e+00  0.00000000e+00  0.00000000e+00
  0.00000000e+00  0.00000000e+00  0.00000000e+00  0.00000000e+00
  0.00000000e+00  0.00000000e+00  0.00000000e+00  0.00000000e+00
  0.00000000e+00  0.00000000e+00  0.00000000e+00  0.00000000e+00
  0.00000000e+00  0.00000000e+00 -6.49689445e-07 -1.52141702e-07
  0.00000000e+00  0.00000000e+00  0.00000000e+00  4.24320007e-06]","[[ 1.65817039e-04  1.95503258e-03]
 [-4.83529472e-05  2.24129294e-03]]",[],0.0,0.0
1787564695.4600778,2.2070940535154095,1.703209902074584,2.6655834640732756,"[ 6.84554440e-06 -5.11172831e-07  0.00000000e+00  0.00000000e+00
  0.00000000e+00 -6.49689445e-07 -5.11172831e-07  4.41192250e-06
  0.00000000e+00  0.00000000e+00  0.00000000e+00 -1.52141702e-07
  0.00000000e+00  0.00000000e+00  0.00000000e+00  0.00000000e+00
  0.00000000e+00  0.00000000e+00  0.00000000e+00  0.00000000e+00
  0.00000000e+00  0.00000000e+00  0.00000000e+00  0.00000000e+00
  0.00000000e+00  0.00000000e+00  0.00000000e+00  0.00000000e+00
  0.00000000e+00  0.00000000e+00 -6.49689445e-07 -1.52141702e-07
  0.00000000e+00  0.00000000e+00  0.00000000e+00  4.24320007e-06]","[[ 1.65817039e-04  1.95503258e-03]
 [-4.83529472e-05  2.24129294e-03]]",[],0.0,0.0
1787564695.5083454,2.2070940535154095,1.703209902074584,2.6655834640732756,"[ 6.84554440e-06 -5.11172831e-07  0.00000000e+00  0.00000000e+00
  0.00000000e+00 -6.49689445e-07 -5.11172831e-07  4.41192250e-06
  0.00000000e+00  0.00000000e+00  0.00000000e+00 -1.52141702e-07
  0.00000000e+00  0.00000000e+00  0.00000000e+00  0.00000000e+00
  0.00000000e+00  0.00000000e+00  0.00000000e+00  0.00000000e+00
  0.00000000e+00  0.00000000e+00  0.00000000e+00  0.00000000e+00
  0.00000000e+00  0.00000000e+00  0.00000000e+00  0.00000000e+00
  0.00000000e+00  0.00000000e+00 -6.49689445e-07 -1.52141702e-07
  0.00000000e+00  0.00000000e+00  0.00000000e+00  4.24320007e-06]","[[ 1.65817039e-04  1.95503258e-03]
 [-4.83529472e-05  2.24129294e-03]]",[],0.0,0.0
1787564695.5622635,2.2070940535154095,1.703209902074584,2.6655834640732756,"[ 6.84554440e-06 -5.11172831e-07  0.00000000e+00  0.00000000e+00
  0.00000000e+00 -6.49689445e-07 -5.11172831e-07  4.41192250e-06
  0.00000000e+00  0.00000000e+00  0.00000000e+00 -1.52141702e-07
  0.00000000e+00  0.00000000e+00  0.00000000e+00  0.00000000e+00
  0.00000000e+00  0.00000000e+00  0.00000000e+00  0.00000000e+00
  0.00000000e+00  0.00000000e+00  0.00000000e+00  0.00000000e+00
  0.00000000e+00  0.00000000e+00  0.00000000e+00  0.00000000e+00
  0.00000000e+00  0.00000000e+00 -6.49689445e-07 -1.52141702e-07
  0.00000000e+00  0.00000000e+00  0.00000000e+00  4.24320007e-06]","[[ 1.65817039e-04  1.95503258e-03]
 [-4.83529472e-05  2.24129294e-03]]",[],0.0,0.0
1787564695.6083798,2.2070940535154095,1.703209902074584,2.6655834640732756,"[ 6.84554440e-06 -5.11172831e-07  0.00000000e+00  0.00000000e+00
  0.00000000e+00 -6.49689445e-07 -5.11172831e-07  4.41192250e-06
  0.00000000e+00  0.00000000e+00  0.00000000e+00 -1.52141702e-07
  0.00000000e+00  0.00000000e+00  0.00000000e+00  0.00000000e+00
  0.00000000e+00  0.00000000e+00  0.00000000e+00  0.00000000e+00
  0.00000000e+00  0.00000000e+00  0.00000000e+00  0.00000000e+00
  0.00000000e+00  0.00000000e+00  0.00000000e+00  0.00000000e+00
  0.00000000e+00  0.00000000e+00 -6.49689445e-07 -1.52141702e-07
  0.00000000e+00  0.00000000e+00  0.00000000e+00  4.24320007e-06]","[[ 1.65817039e-04  1.95503258e-03]
 [-4.83529472e-05  2.24129294e-03]]",[],0.0,0.0
1787564695.6580389,2.2070940535154095,1.703209902074584,2.6655834640732756,"[ 6.84554440e-06 -5.11172831e-07  0.00000000e+00  0.00000000e+00
  0.00000000e+00 -6.49689445e-07 -5.11172831e-07  4.41192250e-06
  0.00000000e+00  0.00000000e+00  0.00000000e+00 -1.52141702e-07
  0.00000000e+00  0.00000000e+00  0.00000000e+00  0.00000000e+00
  0.00000000e+00  0.00000000e+00  0.00000000e+00  0.00000000e+00
  0.00000000e+00  0.00000000e+00  0.00000000e+00  0.00000000e+00
  0.00000000e+00  0.00000000e+00  0.00000000e+00  0.00000000e+00
  0.00000000e+00  0.00000000e+00 -6.49689445e-07 -1.52141702e-07
  0.00000000e+00  0.00000000e+00  0.00000000e+00  4.24320007e-06]","[[ 1.65817039e-04  1.95503258e-03]
 [-4.83529472e-05  2.24129294e-03]]",[],0.0,0.0
1787564695.7079775,2.2070940535154095,1.703209902074584,2.6655834640732756,"[ 6.84554440e-06 -5.11172831e-07  0.00000000e+00  0.00000000e+00
  0.00000000e+00 -6.49689445e-07 -5.11172831e-07  4.41192250e-06
  0.00000000e+00  0.00000000e+00  0.00000000e+00 -1.52141702e-07
  0.00000000e+00  0.00000000e+00  0.00000000e+00  0.00000000e+00
  0.00000000e+00  0.00000000e+00  0.00000000e+00  0.00000000e+00
  0.00000000e+00  0.00000000e+00  0.00000000e+00  0.00000000e+00
  0.00000000e+00  0.00000000e+00  0.00000000e+00  0.00000000e+00
  0.00000000e+00  0.00000000e+00 -6.49689445e-07 -1.52141702e-07
  0.00000000e+00  0.00000000e+00  0.00000000e+00  4.24320007e-06]","[[ 1.65817039e-04  1.95503258e-03]
 [-4.83529472e-05  2.24129294e-03]]",[],0.0,0.0
1787564695.7581694,2.2070940535154095,1.703209902074584,2.6655834640732756,"[ 6.84554440e-06 -5.11172831e-07  0.00000000e+00  0.00000000e+00
  0.00000000e+00 -6.49689445e-07 -5.11172831e-07  4.41192250e-06
  0.00000000e+00  0.00000000e+00  0.00000000e+00 -1.52141702e-07
  0.00000000e+00  0.00000000e+00  0.00000000e+00  0.00000000e+00
  0.00000000e+00  0.00000000e+00  0.00000000e+00  0.00000000e+00
  0.00000000e+00  0.00000000e+00  0.00000000e+00  0.00000000e+00
  0.00000000e+00  0.00000000e+00  0.00000000e+00  0.00000000e+00
  0.00000000e+00  0.00000000e+00 -6.49689445e-07 -1.52141702e-07
  0.00000000e+00  0.00000000e+00  0.00000000e+00  4.24320007e-06]","[[ 1.65817039e-04  1.95503258e-03]
 [-4.83529472e-05  2.24129294e-03]]",[],0.0,0.0
1787564695.8100195,2.2070940535154095,1.703209902074584,2.6655834640732756,"[ 6.84554440e-06 -5.11172831e-07  0.00000000e+00  0.00000000e+00
  0.00000000e+00 -6.49689445e-07 -5.11172831e-07  4.41192250e-06
  0.00000000e+00  0.00000000e+00  0.00000000e+00 -1.52141702e-07
  0.00000000e+00  0.00000000e+00  0.00000000e+00  0.00000000e+00
  0.00000000e+00  0.00000000e+00  0.00000000e+00  0.00000000e+00
  0.00000000e+00  0.00000000e+00  0.00000000e+00  0.00000000e+00
  0.00000000e+00  0.00000000e+00  0.00000000e+00  0.00000000e+00
  0.00000000e+00  0.00000000e+00 -6.49689445e-07 -1.52141702e-07
  0.00000000e+00  0.00000000e+00  0.00000000e+00  4.24320007e-06]","[[ 1.65817039e-04  1.95503258e-03]
 [-4.83529472e-05  2.24129294e-03]]",[],0.0,0.0
1787564695.8586736,2.2070940535154095,1.703209902074584,2.6655834640732756,"[ 6.84554440e-06 -5.11172831e-07  0.00000000e+00  0.00000000e+00
  0.00000000e+00 -6.49689445e-07 -5.11172831e-07  4.41192250e-06
  0.00000000e+00  0.00000000e+00  0.00000000e+00 -1.52141702e-07
  0.00000000e+00  0.00000000e+00  0.00000000e+00  0.00000000e+00
  0.00000000e+00  0.00000000e+00  0.00000000e+00  0.00000000e+00
  0.00000000e+00  0.00000000e+00  0.00000000e+00  0.00000000e+00
  0.00000000e+00  0.00000000e+00  0.00000000e+00  0.00000000e+00
  0.00000000e+00  0.00000000e+00 -6.49689445e-07 -1.52141702e-07
  0.00000000e+00  0.00000000e+00  0.00000000e+00  4.24320007e-06]","[[ 1.65817039e-04  1.95503258e-03]
 [-4.83529472e-05  2.24129294e-03]]",[],0.0,0.0
1787564695.923538,2.2070940535154095,1.703209902074584,2.6655834640732756,"[ 6.84554440e-06 -5.11172831e-07  0.00000000e+00  0.00000000e+00
  0.00000000e+00 -6.49689445e-07 -5.11172831e-07  4.41192250e-06
  0.00000000e+00  0.00000000e+00  0.00000000e+00 -1.52141702e-07
  0.00000000e+00  0.00000000e+00  0.00000000e+00  0.00000000e+00
  0.00000000e+00  0.00000000e+00  0.00000000e+00  0.00000000e+00
  0.00000000e+00  0.00000000e+00  0.00000000e+00  0.00000000e+00
  0.00000000e+00  0.00000000e+00  0.00000000e+00  0.00000000e+00
  0.00000000e+00  0.00000000e+00 -6.49689445e-07 -1.52141702e-07
  0.00000000e+00  0.00000000e+00  0.00000000e+00  4.24320007e-06]","[[ 1.65817039e-04  1.95503258e-03]
 [-4.83529472e-05  2.24129294e-03]]",[],0.0,0.0
1787564695.9590816,2.2070940535154095,1.703209902074584,2.6655834640732756,"[ 6.84554440e-06 -5.11172831e-07  0.00000000e+00  0.00000000e+00
  0.00000000e+00 -6.49689445e-07 -5.11172831e-07  4.41192250e-06
  0.00000000e+00  0.00000000e+00  0.00000000e+00 -1.52141702e-07
  0.00000000e+00  0.00000000e+00  0.00000000e+00  0.00000000e+00
  0.00000000e+00  0.00000000e+00  0.00000000e+00  0.00000000e+00
  0.00000000e+00  0.00000000e+00  0.00000000e+00  0.00000000e+00
  0.00000000e+00  0.00000000e+00  0.00000000e+00  0.00000000e+00
  0.00000000e+00  0.00000000e+00 -6.49689445e-07 -1.52141702e-07
  0.00000000e+00  0.00000000e+00  0.00000000e+00  4.24320007e-06]","[[ 1.65817039e-04  1.95503258e-03]
 [-4.83529472e-05  2.24129294e-03]]",[],0.0,0.0
1787564696.0216312,2.2070940535154095,1.703209902074584,2.6655834640732756,"[ 6.84554440e-06 -5.11172831e-07  0.00000000e+00  0.00000000e+00
  0.00000000e+00 -6.49689445e-07 -5.11172831e-07  4.41192250e-06
  0.00000000e+00  0.00000000e+00  0.00000000e+00 -1.52141702e-07
  0.00000000e+00  0.00000000e+00  0.00000000e+00  0.00000000e+00
  0.00000000e+00  0.00000000e+00  0.00000000e+00  0.00000000e+00
  0.00000000e+00  0.00000000e+00  0.00000000e+00  0.00000000e+00
  0.00000000e+00  0.00000000e+00  0.00000000e+00  0.00000000e+00
  0.00000000e+00  0.00000000e+00 -6.49689445e-07 -1.52141702e-07
  0.00000000e+00  0.00000000e+00  0.00000000e+00  4.24320007e-06]","[[ 1.65817039e-04  1.95503258e-03]
 [-4.83529472e-05  2.24129294e-03]]",[],0.0,0.0
1787564696.0579245,2.2070940535154095,1.703209902074584,2.6655834640732756,"[ 6.84554440e-06 -5.11172831e-07  0.00000000e+00  0.00000000e+00
  0.00000000e+00 -6.49689445e-07 -5.11172831e-07  4.41192250e-06
  0.00000000e+00  0.00000000e+00  0.00000000e+00 -1.52141702e-07
  0.00000000e+00  0.00000000e+00  0.00000000e+00  0.00000000e+00
  0.00000000e+00  0.00000000e+00  0.00000000e+00  0.00000000e+00
  0.00000000e+00  0.00000000e+00  0.00000000e+00  0.00000000e+00
  0.00000000e+00  0.00000000e+00  0.00000000e+00  0.00000000e+00
  0.00000000e+00  0.00000000e+00 -6.49689445e-07 -1.52141702e-07
  0.00000000e+00  0.00000000e+00  0.00000000e+00  4.24320007e-06]","[[ 1.65817039e-04  1.95503258e-03]
 [-4.83529472e-05  2.24129294e-03]]",[],0.0,0.0
1787564696.1385741,2.2070940535154095,1.703209902074584,2.6655834640732756,"[ 6.84554440e-06 -5.11172831e-07  0.00000000e+00  0.00000000e+00
  0.00000000e+00 -6.49689445e-07 -5.11172831e-07  4.41192250e-06
  0.00000000e+00  0.00000000e+00  0.00000000e+00 -1.52141702e-07
  0.00000000e+00  0.00000000e+00  0.00000000e+00  0.00000000e+00
  0.00000000e+00  0.00000000e+00  0.00000000e+00  0.00000000e+00
  0.00000000e+00  0.00000000e+00  0.00000000e+00  0.00000000e+00
  0.00000000e+00  0.00000000e+00  0.00000000e+00  0.00000000e+00
  0.00000000e+00  0.00000000e+00 -6.49689445e-07 -1.52141702e-07
  0.00000000e+00  0.00000000e+00  0.00000000e+00  4.24320007e-06]","[[ 1.65817039e-04  1.95503258e-03]
 [-4.83529472e-05  2.24129294e-03]]",[],0.0,0.0
1787564696.1589625,2.2070940535154095,1.703209902074584,2.6655834640732756,"[ 6.84554440e-06 -5.11172831e-07  0.00000000e+00  0.00000000e+00
  0.00000000e+00 -6.49689445e-07 -5.11172831e-07  4.41192250e-06
  0.00000000e+00  0.00000000e+00  0.00000000e+00 -1.52141702e-07
  0.00000000e+00  0.00000000e+00  0.00000000e+00  0.00000000e+00
  0.00000000e+00  0.00000000e+00  0.00000000e+00  0.00000000e+00
  0.00000000e+00  0.00000000e+00  0.00000000e+00  0.00000000e+00
  0.00000000e+00  0.00000000e+00  0.00000000e+00  0.00000000e+00
  0.00000000e+00  0.00000000e+00 -6.49689445e-07 -1.52141702e-07
  0.00000000e+00  0.00000000e+00  0.00000000e+00  4.24320007e-06]","[[ 1.65817039e-04  1.95503258e-03]
 [-4.83529472e-05  2.24129294e-03]]",[],0.0,0.0
1787564696.2195604,2.2070940535154095,1.703209902074584,2.6655834640732756,"[ 6.84554440e-06 -5.11172831e-07  0.00000000e+00  0.00000000e+00
  0.00000000e+00 -6.49689445e-07 -5.11172831e-07  4.41192250e-06
  0.00000000e+00  0.00000000e+00  0.00000000e+00 -1.52141702e-07
  0.00000000e+00  0.00000000e+00  0.00000000e+00  0.00000000e+00
  0.00000000e+00  0.00000000e+00  0.00000000e+00  0.00000000e+00
  0.00000000e+00  0.00000000e+00  0.00000000e+00  0.00000000e+00
  0.00000000e+00  0.00000000e+00  0.00000000e+00  0.00000000e+00
  0.00000000e+00  0.00000000e+00 -6.49689445e-07 -1.52141702e-07
  0.00000000e+00  0.00000000e+00  0.00000000e+00  4.24320007e-06]","[[ 1.65817039e-04  1.95503258e-03]
 [-4.83529472e-05  2.24129294e-03]]",[],0.0,0.0
1787564696.2623298,2.2070940535154095,1.703209902074584,2.6655834640732756,"[ 6.84554440e-06 -5.11172831e-07  0.00000000e+00  0.00000000e+00
  0.00000000e+00 -6.49689445e-07 -5.11172831e-07  4.41192250e-06
  0.00000000e+00  0.00000000e+00  0.00000000e+00 -1.52141702e-07
  0.00000000e+00  0.00000000e+00  0.00000000e+00  0.00000000e+00
  0.00000000e+00  0.00000000e+00  0.00000000e+00  0.00000000e+00
  0.00000000e+00  0.00000000e+00  0.00000000e+00  0.00000000e+00
  0.00000000e+00  0.00000000e+00  0.00000000e+00  0.00000000e+00
  0.00000000e+00  0.00000000e+00 -6.49689445e-07 -1.52141702e-07
  0.00000000e+00  0.00000000e+00  0.00000000e+00  4.24320007e-06]","[[ 1.65817039e-04  1.95503258e-03]
 [-4.83529472e-05  2.24129294e-03]]",[],0.0,0.0
1787564696.3178773,2.2070940535154095,1.703209902074584,2.6655834640732756,"[ 6.84554440e-06 -5.11172831e-07  0.00000000e+00  0.00000000e+00
  0.00000000e+00 -6.49689445e-07 -5.11172831e-07  4.41192250e-06
  0.00000000e+00  0.00000000e+00  0.00000000e+00 -1.52141702e-07
  0.00000000e+00  0.00000000e+00  0.00000000e+00  0.00000000e+00
  0.00000000e+00  0.00000000e+00  0.00000000e+00  0.00000000e+00
  0.00000000e+00  0.00000000e+00  0.00000000e+00  0.00000000e+00
  0.00000000e+00  0.00000000e+00  0.00000000e+00  0.00000000e+00
  0.00000000e+00  0.00000000e+00 -6.49689445e-07 -1.52141702e-07
  0.00000000e+00  0.00000000e+00  0.00000000e+00  4.24320007e-06]","[[ 1.65817039e-04  1.95503258e-03]
 [-4.83529472e-05  2.24129294e-03]]",[],0.0,0.0
1787564696.365407,2.2142735854408766,1.701205311789729,2.6947838718252966,"[ 6.66235592e-06 -5.90535987e-07  0.00000000e+00  0.00000000e+00
  0.00000000e+00 -7.09041147e-07 -5.90535987e-07  4.17832440e-06
  0.00000000e+00  0.00000000e+00  0.00000000e+00 -1.67259135e-07
  0.00000000e+00  0.00000000e+00  0.00000000e+00  0.00000000e+00
  0.00000000e+00  0.00000000e+00  0.00000000e+00  0.00000000e+00
  0.00000000e+00  0.00000000e+00  0.00000000e+00  0.00000000e+00
  0.00000000e+00  0.00000000e+00  0.00000000e+00  0.00000000e+00
  0.00000000e+00  0.00000000e+00 -7.09041147e-07 -1.67259135e-07
  0.00000000e+00  0.00000000e+00  0.00000000e+00  4.37541333e-06]","[[ 1.62131534e-04  1.98521737e-03]
 [-4.83361676e-05  2.13918873e-03]]",[],0.0,0.0
1787564696.4197977,2.2142735854408766,1.701205311789729,2.6947838718252966,"[ 6.66235592e-06 -5.90535987e-07  0.00000000e+00  0.00000000e+00
  0.00000000e+00 -7.09041147e-07 -5.90535987e-07  4.17832440e-06
  0.00000000e+00  0.00000000e+00  0.00000000e+00 -1.67259135e-07
  0.00000000e+00  0.00000000e+00  0.00000000e+00  0.00000000e+00
  0.00000000e+00  0.00000000e+00  0.00000000e+00  0.00000000e+00
  0.00000000e+00  0.00000000e+00  0.00000000e+00  0.00000000e+00
  0.00000000e+00  0.00000000e+00  0.00000000e+00  0.00000000e+00
  0.00000000e+00  0.00000000e+00 -7.09041147e-07 -1.67259135e-07
  0.00000000e+00  0.00000000e+00  0.00000000e+00  4.37541333e-06]","[[ 1.62131534e-04  1.98521737e-03]
 [-4.83361676e-05  2.13918873e-03]]",[],0.0,0.0
1787564696.462498,2.2142735854408766,1.701205311789729,2.6947838718252966,"[ 6.66235592e-06 -5.90535987e-07  0.00000000e+00  0.00000000e+00
  0.00000000e+00 -7.09041147e-07 -5.90535987e-07  4.17832440e-06
  0.00000000e+00  0.00000000e+00  0.00000000e+00 -1.67259135e-07
  0.00000000e+00  0.00000000e+00  0.00000000e+00  0.00000000e+00
  0.00000000e+00  0.00000000e+00  0.00000000e+00  0.00000000e+00
  0.00000000e+00  0.00000000e+00  0.00000000e+00  0.00000000e+00
  0.00000000e+00  0.00000000e+00  0.00000000e+00  0.00000000e+00
  0.00000000e+00  0.00000000e+00 -7.09041147e-07 -1.67259135e-07
  0.00000000e+00  0.00000000e+00  0.00000000e+00  4.37541333e-06]","[[ 1.62131534e-04  1.98521737e-03]
 [-4.83361676e-05  2.13918873e-03]]",[],0.0,0.0
1787564696.5460637,2.2142735854408766,1.701205311789729,2.6947838718252966,"[ 6.66235592e-06 -5.90535987e-07  0.00000000e+00  0.00000000e+00
  0.00000000e+00 -7.09041147e-07 -5.90535987e-07  4.17832440e-06
  0.00000000e+00  0.00000000e+00  0.00000000e+00 -1.67259135e-07
  0.00000000e+00  0.00000000e+00  0.00000000e+00  0.00000000e+00
  0.00000000e+00  0.00000000e+00  0.00000000e+00  0.00000000e+00
  0.00000000e+00  0.00000000e+00  0.00000000e+00  0.00000000e+00
  0.00000000e+00  0.00000000e+00  0.00000000e+00  0.00000000e+00
  0.00000000e+00  0.00000000e+00 -7.09041147e-07 -1.67259135e-07
  0.00000000e+00  0.00000000e+00  0.00000000e+00  4.37541333e-06]","[[ 1.62131534e-04  1.98521737e-03]
 [-4.83361676e-05  2.13918873e-03]]",[],0.0,0.0
1787564696.5576804,2.2142735854408766,1.701205311789729,2.6947838718252966,"[ 6.66235592e-06 -5.90535987e-07  0.00000000e+00  0.00000000e+00
  0.00000000e+00 -7.09041147e-07 -5.90535987e-07  4.17832440e-06
  0.00000000e+00  0.00000000e+00  0.00000000e+00 -1.67259135e-07
  0.00000000e+00  0.00000000e+00  0.00000000e+00  0.00000000e+00
  0.00000000e+00  0.00000000e+00  0.00000000e+00  0.00000000e+00
  0.00000000e+00  0.00000000e+00  0.00000000e+00  0.00000000e+00
  0.00000000e+00  0.00000000e+00  0.00000000e+00  0.00000000e+00
  0.00000000e+00  0.00000000e+00 -7.09041147e-07 -1.67259135e-07
  0.00000000e+00  0.00000000e+00  0.00000000e+00  4.37541333e-06]","[[ 1.62131534e-04  1.98521737e-03]
 [-4.83361676e-05  2.13918873e-03]]",[],0.0,0.0
1787564696.635898,2.2142735854408766,1.701205311789729,2.6947838718252966,"[ 6.66235592e-06 -5.90535987e-07  0.00000000e+00  0.00000000e+00
  0.00000000e+00 -7.09041147e-07 -5.90535987e-07  4.17832440e-06
  0.00000000e+00  0.00000000e+00  0.00000000e+00 -1.67259135e-07
  0.00000000e+00  0.00000000e+00  0.00000000e+00  0.00000000e+00
  0.00000000e+00  0.00000000e+00  0.00000000e+00  0.00000000e+00
  0.00000000e+00  0.00000000e+00  0.00000000e+00  0.00000000e+00
  0.00000000e+00  0.00000000e+00  0.00000000e+00  0.00000000e+00
  0.00000000e+00  0.00000000e+00 -7.09041147e-07 -1.67259135e-07
  0.00000000e+00  0.00000000e+00  0.00000000e+00  4.37541333e-06]","[[ 1.62131534e-04  1.98521737e-03]
 [-4.83361676e-05  2.13918873e-03]]",[],0.0,0.0
1787564696.6990345,2.2142735854408766,1.701205311789729,2.6947838718252966,"[ 6.66235592e-06 -5.90535987e-07  0.00000000e+00  0.00000000e+00
  0.00000000e+00 -7.09041147e-07 -5.90535987e-07  4.17832440e-06
  0.00000000e+00  0.00000000e+00  0.00000000e+00 -1.67259135e-07
  0.00000000e+00  0.00000000e+00  0.00000000e+00  0.00000000e+00
  0.00000000e+00  0.00000000e+00  0.00000000e+00  0.00000000e+00
  0.00000000e+00  0.00000000e+00  0.00000000e+00  0.00000000e+00
  0.00000000e+00  0.00000000e+00  0.00000000e+00  0.00000000e+00
  0.00000000e+00  0.00000000e+00 -7.09041147e-07 -1.67259135e-07
  0.00000000e+00  0.00000000e+00  0.00000000e+00  4.37541333e-06]","[[ 1.62131534e-04  1.98521737e-03]
 [-4.83361676e-05  2.13918873e-03]]",[],0.0,0.0
1787564696.7209182,2.2142735854408766,1.701205311789729,2.6947838718252966,"[ 6.66235592e-06 -5.90535987e-07  0.00000000e+00  0.00000000e+00
  0.00000000e+00 -7.09041147e-07 -5.90535987e-07  4.17832440e-06
  0.00000000e+00  0.00000000e+00  0.00000000e+00 -1.67259135e-07
  0.00000000e+00  0.00000000e+00  0.00000000e+00  0.00000000e+00
  0.00000000e+00  0.00000000e+00  0.00000000e+00  0.00000000e+00
  0.00000000e+00  0.00000000e+00  0.00000000e+00  0.00000000e+00
  0.00000000e+00  0.00000000e+00  0.00000000e+00  0.00000000e+00
  0.00000000e+00  0.00000000e+00 -7.09041147e-07 -1.67259135e-07
  0.00000000e+00  0.00000000e+00  0.00000000e+00  4.37541333e-06]","[[ 1.62131534e-04  1.98521737e-03]
 [-4.83361676e-05  2.13918873e-03]]",[],0.0,0.0
1787564696.8041127,2.2142735854408766,1.701205311789729,2.6947838718252966,"[ 6.66235592e-06 -5.90535987e-07  0.00000000e+00  0.00000000e+00
  0.00000000e+00 -7.09041147e-07 -5.90535987e-07  4.17832440e-06
  0.00000000e+00  0.00000000e+00  0.00000000e+00 -1.67259135e-07
  0.00000000e+00  0.00000000e+00  0.00000000e+00  0.00000000e+00
  0.00000000e+00  0.00000000e+00  0.00000000e+00  0.00000000e+00
  0.00000000e+00  0.00000000e+00  0.00000000e+00  0.00000000e+00
  0.00000000e+00  0.00000000e+00  0.00000000e+00  0.00000000e+00
  0.00000000e+00  0.00000000e+00 -7.09041147e-07 -1.67259135e-07
  0.00000000e+00  0.00000000e+00  0.00000000e+00  4.37541333e-06]","[[ 1.62131534e-04  1.98521737e-03]
 [-4.83361676e-05  2.13918873e-03]]",[],0.0,0.0
1787564696.8518085,2.2142735854408766,1.701205311789729,2.6947838718252966,"[ 6.66235592e-06 -5.90535987e-07  0.00000000e+00  0.00000000e+00
  0.00000000e+00 -7.09041147e-07 -5.90535987e-07  4.17832440e-06
  0.00000000e+00  0.00000000e+00  0.00000000e+00 -1.67259135e-07
  0.00000000e+00  0.00000000e+00  0.00000000e+00  0.00000000e+00
  0.00000000e+00  0.00000000e+00  0.00000000e+00  0.00000000e+00
  0.00000000e+00  0.00000000e+00  0.00000000e+00  0.00000000e+00
  0.00000000e+00  0.00000000e+00  0.00000000e+00  0.00000000e+00
  0.00000000e+00  0.00000000e+00 -7.09041147e-07 -1.67259135e-07
  0.00000000e+00  0.00000000e+00  0.00000000e+00  4.37541333e-06]","[[ 1.62131534e-04  1.98521737e-03]
 [-4.83361676e-05  2.13918873e-03]]",[],0.0,0.0
1787564696.859733,2.2142735854408766,1.701205311789729,2.6947838718252966,"[ 6.66235592e-06 -5.90535987e-07  0.00000000e+00  0.00000000e+00
  0.00000000e+00 -7.09041147e-07 -5.90535987e-07  4.17832440e-06
  0.00000000e+00  0.00000000e+00  0.00000000e+00 -1.67259135e-07
  0.00000000e+00  0.00000000e+00  0.00000000e+00  0.00000000e+00
  0.00000000e+00  0.00000000e+00  0.00000000e+00  0.00000000e+00
  0.00000000e+00  0.00000000e+00  0.00000000e+00  0.00000000e+00
  0.00000000e+00  0.00000000e+00  0.00000000e+00  0.00000000e+00
  0.00000000e+00  0.00000000e+00 -7.09041147e-07 -1.67259135e-07
  0.00000000e+00  0.00000000e+00  0.00000000e+00  4.37541333e-06]","[[ 1.62131534e-04  1.98521737e-03]
 [-4.83361676e-05  2.13918873e-03]]",[],0.0,0.0
1787564696.9125519,2.2142735854408766,1.701205311789729,2.6947838718252966,"[ 6.66235592e-06 -5.90535987e-07  0.00000000e+00  0.00000000e+00
  0.00000000e+00 -7.09041147e-07 -5.90535987e-07  4.17832440e-06
  0.00000000e+00  0.00000000e+00  0.00000000e+00 -1.67259135e-07
  0.00000000e+00  0.00000000e+00  0.00000000e+00  0.00000000e+00
  0.00000000e+00  0.00000000e+00  0.00000000e+00  0.00000000e+00
  0.00000000e+00  0.00000000e+00  0.00000000e+00  0.00000000e+00
  0.00000000e+00  0.00000000e+00  0.00000000e+00  0.00000000e+00
  0.00000000e+00  0.00000000e+00 -7.09041147e-07 -1.67259135e-07
  0.00000000e+00  0.00000000e+00  0.00000000e+00  4.37541333e-06]","[[ 1.62131534e-04  1.98521737e-03]
 [-4.83361676e-05  2.13918873e-03]]",[],0.0,0.0
1787564696.9593549,2.2142735854408766,1.701205311789729,2.6947838718252966,"[ 6.66235592e-06 -5.90535987e-07  0.00000000e+00  0.00000000e+00
  0.00000000e+00 -7.09041147e-07 -5.90535987e-07  4.17832440e-06
  0.00000000e+00  0.00000000e+00  0.00000000e+00 -1.67259135e-07
  0.00000000e+00  0.00000000e+00  0.00000000e+00  0.00000000e+00
  0.00000000e+00  0.00000000e+00  0.00000000e+00  0.00000000e+00
  0.00000000e+00  0.00000000e+00  0.00000000e+00  0.00000000e+00
  0.00000000e+00  0.00000000e+00  0.00000000e+00  0.00000000e+00
  0.00000000e+00  0.00000000e+00 -7.09041147e-07 -1.67259135e-07
  0.00000000e+00  0.00000000e+00  0.00000000e+00  4.37541333e-06]","[[ 1.62131534e-04  1.98521737e-03]
 [-4.83361676e-05  2.13918873e-03]]",[],0.0,0.0
1787564697.0129664,2.2142735854408766,1.701205311789729,2.6947838718252966,"[ 6.66235592e-06 -5.90535987e-07  0.00000000e+00  0.00000000e+00
  0.00000000e+00 -7.09041147e-07 -5.90535987e-07  4.17832440e-06
  0.00000000e+00  0.00000000e+00  0.00000000e+00 -1.67259135e-07
  0.00000000e+00  0.00000000e+00  0.00000000e+00  0.00000000e+00
  0.00000000e+00  0.00000000e+00  0.00000000e+00  0.00000000e+00
  0.00000000e+00  0.00000000e+00  0.00000000e+00  0.00000000e+00
  0.00000000e+00  0.00000000e+00  0.00000000e+00  0.00000000e+00
  0.00000000e+00  0.00000000e+00 -7.09041147e-07 -1.67259135e-07
  0.00000000e+00  0.00000000e+00  0.00000000e+00  4.37541333e-06]","[[ 1.62131534e-04  1.98521737e-03]
 [-4.83361676e-05  2.13918873e-03]]",[],0.0,0.0
1787564697.0621758,2.2142735854408766,1.701205311789729,2.6947838718252966,"[ 6.66235592e-06 -5.90535987e-07  0.00000000e+00  0.00000000e+00
  0.00000000e+00 -7.09041147e-07 -5.90535987e-07  4.17832440e-06
  0.00000000e+00  0.00000000e+00  0.00000000e+00 -1.67259135e-07
  0.00000000e+00  0.00000000e+00  0.00000000e+00  0.00000000e+00
  0.00000000e+00  0.00000000e+00  0.00000000e+00  0.00000000e+00
  0.00000000e+00  0.00000000e+00  0.00000000e+00  0.00000000e+00
  0.00000000e+00  0.00000000e+00  0.00000000e+00  0.00000000e+00
  0.00000000e+00  0.00000000e+00 -7.09041147e-07 -1.67259135e-07
  0.00000000e+00  0.00000000e+00  0.00000000e+00  4.37541333e-06]","[[ 1.62131534e-04  1.98521737e-03]
 [-4.83361676e-05  2.13918873e-03]]",[],0.0,0.0
1787564697.1244702,2.2142735854408766,1.701205311789729,2.6947838718252966,"[ 6.66235592e-06 -5.90535987e-07  0.00000000e+00  0.00000000e+00
  0.00000000e+00 -7.09041147e-07 -5.90535987e-07  4.17832440e-06
  0.00000000e+00  0.00000000e+00  0.00000000e+00 -1.67259135e-07
  0.00000000e+00  0.00000000e+00  0.00000000e+00  0.00000000e+00
  0.00000000e+00  0.00000000e+00  0.00000000e+00  0.00000000e+00
  0.00000000e+00  0.00000000e+00  0.00000000e+00  0.00000000e+00
  0.00000000e+00  0.00000000e+00  0.00000000e+00  0.00000000e+00
  0.00000000e+00  0.00000000e+00 -7.09041147e-07 -1.67259135e-07
  0.00000000e+00  0.00000000e+00  0.00000000e+00  4.37541333e-06]","[[ 1.62131534e-04  1.98521737e-03]
 [-4.83361676e-05  2.13918873e-03]]",[],0.0,0.0
1787564697.2095857,2.2142735854408766,1.701205311789729,2.6947838718252966,"[ 6.66235592e-06 -5.90535987e-07  0.00000000e+00  0.00000000e+00
  0.00000000e+00 -7.09041147e-07 -5.90535987e-07  4.17832440e-06
  0.00000000e+00  0.00000000e+00  0.00000000e+00 -1.67259135e-07
  0.00000000e+00  0.00000000e+00  0.00000000e+00  0.00000000e+00
  0.00000000e+00  0.00000000e+00  0.00000000e+00  0.00000000e+00
  0.00000000e+00  0.00000000e+00  0.00000000e+00  0.00000000e+00
  0.00000000e+00  0.00000000e+00  0.00000000e+00  0.00000000e+00
  0.00000000e+00  0.00000000e+00 -7.09041147e-07 -1.67259135e-07
  0.00000000e+00  0.00000000e+00  0.00000000e+00  4.37541333e-06]","[[ 1.62131534e-04  1.98521737e-03]
 [-4.83361676e-05  2.13918873e-03]]",[],0.0,0.0
1787564697.3043199,2.2142735854408766,1.701205311789729,2.6947838718252966,"[ 6.66235592e-06 -5.90535987e-07  0.00000000e+00  0.00000000e+00
  0.00000000e+00 -7.09041147e-07 -5.90535987e-07  4.17832440e-06
  0.00000000e+00  0.00000000e+00  0.00000000e+00 -1.67259135e-07
  0.00000000e+00  0.00000000e+00  0.00000000e+00  0.00000000e+00
  0.00000000e+00  0.00000000e+00  0.00000000e+00  0.00000000e+00
  0.00000000e+00  0.00000000e+00  0.00000000e+00  0.00000000e+00
  0.00000000e+00  0.00000000e+00  0.00000000e+00  0.00000000e+00
  0.00000000e+00  0.00000000e+00 -7.09041147e-07 -1.67259135e-07
  0.00000000e+00  0.00000000e+00  0.00000000e+00  4.37541333e-06]","[[ 1.62131534e-04  1.98521737e-03]
 [-4.83361676e-05  2.13918873e-03]]",[],0.0,0.0
1787564697.3082023,2.2142735854408766,1.701205311789729,2.6947838718252966,"[ 6.66235592e-06 -5.90535987e-07  0.00000000e+00  0.00000000e+00
  0.00000000e+00 -7.09041147e-07 -5.90535987e-07  4.17832440e-06
  0.00000000e+00  0.00000000e+00  0.00000000e+00 -1.67259135e-07
  0.00000000e+00  0.00000000e+00  0.00000000e+00  0.00000000e+00
  0.00000000e+00  0.00000000e+00  0.00000000e+00  0.00000000e+00
  0.00000000e+00  0.00000000e+00  0.00000000e+00  0.00000000e+00
  0.00000000e+00  0.00000000e+00  0.00000000e+00  0.00000000e+00
  0.00000000e+00  0.00000000e+00 -7.09041147e-07 -1.67259135e-07
  0.00000000e+00  0.00000000e+00  0.00000000e+00  4.37541333e-06]","[[ 1.62131534e-04  1.98521737e-03]
 [-4.83361676e-05  2.13918873e-03]]",[],0.0,0.0
1787564697.3978558,2.2142735854408766,1.701205311789729,2.6947838718252966,"[ 6.66235592e-06 -5.90535987e-07  0.00000000e+00  0.00000000e+00
  0.00000000e+00 -7.09041147e-07 -5.90535987e-07  4.17832440e-06
  0.00000000e+00  0.00000000e+00  0.00000000e+00 -1.67259135e-07
  0.00000000e+00  0.00000000e+00  0.00000000e+00  0.00000000e+00
  0.00000000e+00  0.00000000e+00  0.00000000e+00  0.00000000e+00
  0.00000000e+00  0.00000000e+00  0.00000000e+00  0.00000000e+00
  0.00000000e+00  0.00000000e+00  0.00000000e+00  0.00000000e+00
  0.00000000e+00  0.00000000e+00 -7.09041147e-07 -1.67259135e-07
  0.00000000e+00  0.00000000e+00  0.00000000e+00  4.37541333e-06]","[[ 1.62131534e-04  1.98521737e-03]
 [-4.83361676e-05  2.13918873e-03]]",[],0.0,0.0
1787564697.4079638,2.2142735854408766,1.701205311789729,2.6947838718252966,"[ 6.66235592e-06 -5.90535987e-07  0.00000000e+00  0.00000000e+00
  0.00000000e+00 -7.09041147e-07 -5.90535987e-07  4.17832440e-06
  0.00000000e+00  0.00000000e+00  0.00000000e+00 -1.67259135e-07
  0.00000000e+00  0.00000000e+00  0.00000000e+00  0.00000000e+00
  0.00000000e+00  0.00000000e+00  0.00000000e+00  0.00000000e+00
  0.00000000e+00  0.00000000e+00  0.00000000e+00  0.00000000e+00
  0.00000000e+00  0.00000000e+00  0.00000000e+00  0.00000000e+00
  0.00000000e+00  0.00000000e+00 -7.09041147e-07 -1.67259135e-07
  0.00000000e+00  0.00000000e+00  0.00000000e+00  4.37541333e-06]","[[ 1.62131534e-04  1.98521737e-03]
 [-4.83361676e-05  2.13918873e-03]]",[],0.0,0.0
1787564697.463339,2.2142735854408766,1.701205311789729,2.6947838718252966,"[ 6.66235592e-06 -5.90535987e-07  0.00000000e+00  0.00000000e+00
  0.00000000e+00 -7.09041147e-07 -5.90535987e-07  4.17832440e-06
  0.00000000e+00  0.00000000e+00  0.00000000e+00 -1.67259135e-07
  0.00000000e+00  0.00000000e+00  0.00000000e+00  0.00000000e+00
  0.00000000e+00  0.00000000e+00  0.00000000e+00  0.00000000e+00
  0.00000000e+00  0.00000000e+00  0.00000000e+00  0.00000000e+00
  0.00000000e+00  0.00000000e+00  0.00000000e+00  0.00000000e+00
  0.00000000e+00  0.00000000e+00 -7.09041147e-07 -1.67259135e-07
  0.00000000e+00  0.00000000e+00  0.00000000e+00  4.37541333e-06]","[[ 1.62131534e-04  1.98521737e-03]
 [-4.83361676e-05  2.13918873e-03]]",[],0.0,0.0
1787564697.5122795,2.221450053306708,1.6968369952130777,2.6921618514715764,"[ 6.46847957e-06 -6.46857848e-07  0.00000000e+00  0.00000000e+00
  0.00000000e+00 -7.10097202e-07 -6.46857848e-07  3.92482109e-06
  0.00000000e+00  0.00000000e+00  0.00000000e+00 -8.31377229e-08
  0.00000000e+00  0.00000000e+00  0.00000000e+00  0.00000000e+00
  0.00000000e+00  0.00000000e+00  0.00000000e+00  0.00000000e+00
  0.00000000e+00  0.00000000e+00  0.00000000e+00  0.00000000e+00
  0.00000000e+00  0.00000000e+00  0.00000000e+00  0.00000000e+00
  0.00000000e+00  0.00000000e+00 -7.10097202e-07 -8.31377229e-08
  0.00000000e+00  0.00000000e+00  0.00000000e+00  4.00947386e-06]","[[ 1.58023932e-04  1.92673243e-03]
 [-4.75665145e-05  1.86825099e-03]]",[],0.0,0.0
1787564697.5979962,2.221450053306708,1.6968369952130777,2.6921618514715764,"[ 6.46847957e-06 -6.46857848e-07  0.00000000e+00  0.00000000e+00
  0.00000000e+00 -7.10097202e-07 -6.46857848e-07  3.92482109e-06
  0.00000000e+00  0.00000000e+00  0.00000000e+00 -8.31377229e-08
  0.00000000e+00  0.00000000e+00  0.00000000e+00  0.00000000e+00
  0.00000000e+00  0.00000000e+00  0.00000000e+00  0.00000000e+00
  0.00000000e+00  0.00000000e+00  0.00000000e+00  0.00000000e+00
  0.00000000e+00  0.00000000e+00  0.00000000e+00  0.00000000e+00
  0.00000000e+00  0.00000000e+00 -7.10097202e-07 -8.31377229e-08
  0.00000000e+00  0.00000000e+00  0.00000000e+00  4.00947386e-06]","[[ 1.58023932e-04  1.92673243e-03]
 [-4.75665145e-05  1.86825099e-03]]",[],0.0,0.0
1787564697.620185,2.221450053306708,1.6968369952130777,2.6921618514715764,"[ 6.46847957e-06 -6.46857848e-07  0.00000000e+00  0.00000000e+00
  0.00000000e+00 -7.10097202e-07 -6.46857848e-07  3.92482109e-06
  0.00000000e+00  0.00000000e+00  0.00000000e+00 -8.31377229e-08
  0.00000000e+00  0.00000000e+00  0.00000000e+00  0.00000000e+00
  0.00000000e+00  0.00000000e+00  0.00000000e+00  0.00000000e+00
  0.00000000e+00  0.00000000e+00  0.00000000e+00  0.00000000e+00
  0.00000000e+00  0.00000000e+00  0.00000000e+00  0.00000000e+00
  0.00000000e+00  0.00000000e+00 -7.10097202e-07 -8.31377229e-08
  0.00000000e+00  0.00000000e+00  0.00000000e+00  4.00947386e-06]","[[ 1.58023932e-04  1.92673243e-03]
 [-4.75665145e-05  1.86825099e-03]]",[],0.0,0.0
1787564697.705337,2.221450053306708,1.6968369952130777,2.6921618514715764,"[ 6.46847957e-06 -6.46857848e-07  0.00000000e+00  0.00000000e+00
  0.00000000e+00 -7.10097202e-07 -6.46857848e-07  3.92482109e-06
  0.00000000e+00  0.00000000e+00  0.00000000e+00 -8.31377229e-08
  0.00000000e+00  0.00000000e+00  0.00000000e+00  0.00000000e+00
  0.00000000e+00  0.00000000e+00  0.00000000e+00  0.00000000e+00
  0.00000000e+00  0.00000000e+00  0.00000000e+00  0.00000000e+00
  0.00000000e+00  0.00000000e+00  0.00000000e+00  0.00000000e+00
  0.00000000e+00  0.00000000e+00 -7.10097202e-07 -8.31377229e-08
  0.00000000e+00  0.00000000e+00  0.00000000e+00  4.00947386e-06]","[[ 1.58023932e-04  1.92673243e-03]
 [-4.75665145e-05  1.86825099e-03]]",[],0.0,0.0
1787564697.708656,2.221450053306708,1.6968369952130777,2.6921618514715764,"[ 6.46847957e-06 -6.46857848e-07  0.00000000e+00  0.00000000e+00
  0.00000000e+00 -7.10097202e-07 -6.46857848e-07  3.92482109e-06
  0.00000000e+00  0.00000000e+00  0.00000000e+00 -8.31377229e-08
  0.00000000e+00  0.00000000e+00  0.00000000e+00  0.00000000e+00
  0.00000000e+00  0.00000000e+00  0.00000000e+00  0.00000000e+00
  0.00000000e+00  0.00000000e+00  0.00000000e+00  0.00000000e+00
  0.00000000e+00  0.00000000e+00  0.00000000e+00  0.00000000e+00
  0.00000000e+00  0.00000000e+00 -7.10097202e-07 -8.31377229e-08
  0.00000000e+00  0.00000000e+00  0.00000000e+00  4.00947386e-06]","[[ 1.58023932e-04  1.92673243e-03]
 [-4.75665145e-05  1.86825099e-03]]",[],0.0,0.0
1787564697.7634015,2.221450053306708,1.6968369952130777,2.6921618514715764,"[ 6.46847957e-06 -6.46857848e-07  0.00000000e+00  0.00000000e+00
  0.00000000e+00 -7.10097202e-07 -6.46857848e-07  3.92482109e-06
  0.00000000e+00  0.00000000e+00  0.00000000e+00 -8.31377229e-08
  0.00000000e+00  0.00000000e+00  0.00000000e+00  0.00000000e+00
  0.00000000e+00  0.00000000e+00  0.00000000e+00  0.00000000e+00
  0.00000000e+00  0.00000000e+00  0.00000000e+00  0.00000000e+00
  0.00000000e+00  0.00000000e+00  0.00000000e+00  0.00000000e+00
  0.00000000e+00  0.00000000e+00 -7.10097202e-07 -8.31377229e-08
  0.00000000e+00  0.00000000e+00  0.00000000e+00  4.00947386e-06]","[[ 1.58023932e-04  1.92673243e-03]
 [-4.75665145e-05  1.86825099e-03]]",[],0.0,0.0
1787564697.8118715,2.221450053306708,1.6968369952130777,2.6921618514715764,"[ 6.46847957e-06 -6.46857848e-07  0.00000000e+00  0.00000000e+00
  0.00000000e+00 -7.10097202e-07 -6.46857848e-07  3.92482109e-06
  0.00000000e+00  0.00000000e+00  0.00000000e+00 -8.31377229e-08
  0.00000000e+00  0.00000000e+00  0.00000000e+00  0.00000000e+00
  0.00000000e+00  0.00000000e+00  0.00000000e+00  0.00000000e+00
  0.00000000e+00  0.00000000e+00  0.00000000e+00  0.00000000e+00
  0.00000000e+00  0.00000000e+00  0.00000000e+00  0.00000000e+00
  0.00000000e+00  0.00000000e+00 -7.10097202e-07 -8.31377229e-08
  0.00000000e+00  0.00000000e+00  0.00000000e+00  4.00947386e-06]","[[ 1.58023932e-04  1.92673243e-03]
 [-4.75665145e-05  1.86825099e-03]]",[],0.0,0.0
1787564697.895741,2.221450053306708,1.6968369952130777,2.6921618514715764,"[ 6.46847957e-06 -6.46857848e-07  0.00000000e+00  0.00000000e+00
  0.00000000e+00 -7.10097202e-07 -6.46857848e-07  3.92482109e-06
  0.00000000e+00  0.00000000e+00  0.00000000e+00 -8.31377229e-08
  0.00000000e+00  0.00000000e+00  0.00000000e+00  0.00000000e+00
  0.00000000e+00  0.00000000e+00  0.00000000e+00  0.00000000e+00
  0.00000000e+00  0.00000000e+00  0.00000000e+00  0.00000000e+00
  0.00000000e+00  0.00000000e+00  0.00000000e+00  0.00000000e+00
  0.00000000e+00  0.00000000e+00 -7.10097202e-07 -8.31377229e-08
  0.00000000e+00  0.00000000e+00  0.00000000e+00  4.00947386e-06]","[[ 1.58023932e-04  1.92673243e-03]
 [-4.75665145e-05  1.86825099e-03]]",[],0.0,0.0
1787564697.9089983,2.221450053306708,1.6968369952130777,2.6921618514715764,"[ 6.46847957e-06 -6.46857848e-07  0.00000000e+00  0.00000000e+00
  0.00000000e+00 -7.10097202e-07 -6.46857848e-07  3.92482109e-06
  0.00000000e+00  0.00000000e+00  0.00000000e+00 -8.31377229e-08
  0.00000000e+00  0.00000000e+00  0.00000000e+00  0.00000000e+00
  0.00000000e+00  0.00000000e+00  0.00000000e+00  0.00000000e+00
  0.00000000e+00  0.00000000e+00  0.00000000e+00  0.00000000e+00
  0.00000000e+00  0.00000000e+00  0.00000000e+00  0.00000000e+00
  0.00000000e+00  0.00000000e+00 -7.10097202e-07 -8.31377229e-08
  0.00000000e+00  0.00000000e+00  0.00000000e+00  4.00947386e-06]","[[ 1.58023932e-04  1.92673243e-03]
 [-4.75665145e-05  1.86825099e-03]]",[],0.0,0.0
1787564697.9599335,2.221450053306708,1.6968369952130777,2.6921618514715764,"[ 6.46847957e-06 -6.46857848e-07  0.00000000e+00  0.00000000e+00
  0.00000000e+00 -7.10097202e-07 -6.46857848e-07  3.92482109e-06
  0.00000000e+00  0.00000000e+00  0.00000000e+00 -8.31377229e-08
  0.00000000e+00  0.00000000e+00  0.00000000e+00  0.00000000e+00
  0.00000000e+00  0.00000000e+00  0.00000000e+00  0.00000000e+00
  0.00000000e+00  0.00000000e+00  0.00000000e+00  0.00000000e+00
  0.00000000e+00  0.00000000e+00  0.00000000e+00  0.00000000e+00
  0.00000000e+00  0.00000000e+00 -7.10097202e-07 -8.31377229e-08
  0.00000000e+00  0.00000000e+00  0.00000000e+00  4.00947386e-06]","[[ 1.58023932e-04  1.92673243e-03]
 [-4.75665145e-05  1.86825099e-03]]",[],0.0,0.0
1787564698.0175776,2.221450053306708,1.6968369952130777,2.6921618514715764,"[ 6.46847957e-06 -6.46857848e-07  0.00000000e+00  0.00000000e+00
  0.00000000e+00 -7.10097202e-07 -6.46857848e-07  3.92482109e-06
  0.00000000e+00  0.00000000e+00  0.00000000e+00 -8.31377229e-08
  0.00000000e+00  0.00000000e+00  0.00000000e+00  0.00000000e+00
  0.00000000e+00  0.00000000e+00  0.00000000e+00  0.00000000e+00
  0.00000000e+00  0.00000000e+00  0.00000000e+00  0.00000000e+00
  0.00000000e+00  0.00000000e+00  0.00000000e+00  0.00000000e+00
  0.00000000e+00  0.00000000e+00 -7.10097202e-07 -8.31377229e-08
  0.00000000e+00  0.00000000e+00  0.00000000e+00  4.00947386e-06]","[[ 1.58023932e-04  1.92673243e-03]
 [-4.75665145e-05  1.86825099e-03]]",[],0.0,0.0
1787564698.064493,2.221450053306708,1.6968369952130777,2.6921618514715764,"[ 6.46847957e-06 -6.46857848e-07  0.00000000e+00  0.00000000e+00
  0.00000000e+00 -7.10097202e-07 -6.46857848e-07  3.92482109e-06
  0.00000000e+00  0.00000000e+00  0.00000000e+00 -8.31377229e-08
  0.00000000e+00  0.00000000e+00  0.00000000e+00  0.00000000e+00
  0.00000000e+00  0.00000000e+00  0.00000000e+00  0.00000000e+00
  0.00000000e+00  0.00000000e+00  0.00000000e+00  0.00000000e+00
  0.00000000e+00  0.00000000e+00  0.00000000e+00  0.00000000e+00
  0.00000000e+00  0.00000000e+00 -7.10097202e-07 -8.31377229e-08
  0.00000000e+00  0.00000000e+00  0.00000000e+00  4.00947386e-06]","[[ 1.58023932e-04  1.92673243e-03]
 [-4.75665145e-05  1.86825099e-03]]",[],0.0,0.0
1787564698.1191695,2.221450053306708,1.6968369952130777,2.6921618514715764,"[ 6.46847957e-06 -6.46857848e-07  0.00000000e+00  0.00000000e+00
  0.00000000e+00 -7.10097202e-07 -6.46857848e-07  3.92482109e-06
  0.00000000e+00  0.00000000e+00  0.00000000e+00 -8.31377229e-08
  0.00000000e+00  0.00000000e+00  0.00000000e+00  0.00000000e+00
  0.00000000e+00  0.00000000e+00  0.00000000e+00  0.00000000e+00
  0.00000000e+00  0.00000000e+00  0.00000000e+00  0.00000000e+00
  0.00000000e+00  0.00000000e+00  0.00000000e+00  0.00000000e+00
  0.00000000e+00  0.00000000e+00 -7.10097202e-07 -8.31377229e-08
  0.00000000e+00  0.00000000e+00  0.00000000e+00  4.00947386e-06]","[[ 1.58023932e-04  1.92673243e-03]
 [-4.75665145e-05  1.86825099e-03]]",[],0.0,0.0
1787564698.165658,2.221450053306708,1.6968369952130777,2.6921618514715764,"[ 6.46847957e-06 -6.46857848e-07  0.00000000e+00  0.00000000e+00
  0.00000000e+00 -7.10097202e-07 -6.46857848e-07  3.92482109e-06
  0.00000000e+00  0.00000000e+00  0.00000000e+00 -8.31377229e-08
  0.00000000e+00  0.00000000e+00  0.00000000e+00  0.00000000e+00
  0.00000000e+00  0.00000000e+00  0.00000000e+00  0.00000000e+00
  0.00000000e+00  0.00000000e+00  0.00000000e+00  0.00000000e+00
  0.00000000e+00  0.00000000e+00  0.00000000e+00  0.00000000e+00
  0.00000000e+00  0.00000000e+00 -7.10097202e-07 -8.31377229e-08
  0.00000000e+00  0.00000000e+00  0.00000000e+00  4.00947386e-06]","[[ 1.58023932e-04  1.92673243e-03]
 [-4.75665145e-05  1.86825099e-03]]",[],0.0,0.0
1787564698.2228348,2.221450053306708,1.6968369952130777,2.6921618514715764,"[ 6.46847957e-06 -6.46857848e-07  0.00000000e+00  0.00000000e+00
  0.00000000e+00 -7.10097202e-07 -6.46857848e-07  3.92482109e-06
  0.00000000e+00  0.00000000e+00  0.00000000e+00 -8.31377229e-08
  0.00000000e+00  0.00000000e+00  0.00000000e+00  0.00000000e+00
  0.00000000e+00  0.00000000e+00  0.00000000e+00  0.00000000e+00
  0.00000000e+00  0.00000000e+00  0.00000000e+00  0.00000000e+00
  0.00000000e+00  0.00000000e+00  0.00000000e+00  0.00000000e+00
  0.00000000e+00  0.00000000e+00 -7.10097202e-07 -8.31377229e-08
  0.00000000e+00  0.00000000e+00  0.00000000e+00  4.00947386e-06]","[[ 1.58023932e-04  1.92673243e-03]
 [-4.75665145e-05  1.86825099e-03]]",[],0.0,0.0
1787564698.2657046,2.221450053306708,1.6968369952130777,2.6921618514715764,"[ 6.46847957e-06 -6.46857848e-07  0.00000000e+00  0.00000000e+00
  0.00000000e+00 -7.10097202e-07 -6.46857848e-07  3.92482109e-06
  0.00000000e+00  0.00000000e+00  0.00000000e+00 -8.31377229e-08
  0.00000000e+00  0.00000000e+00  0.00000000e+00  0.00000000e+00
  0.00000000e+00  0.00000000e+00  0.00000000e+00  0.00000000e+00
  0.00000000e+00  0.00000000e+00  0.00000000e+00  0.00000000e+00
  0.00000000e+00  0.00000000e+00  0.00000000e+00  0.00000000e+00
  0.00000000e+00  0.00000000e+00 -7.10097202e-07 -8.31377229e-08
  0.00000000e+00  0.00000000e+00  0.00000000e+00  4.00947386e-06]","[[ 1.58023932e-04  1.92673243e-03]
 [-4.75665145e-05  1.86825099e-03]]",[],0.0,0.0
1787564698.311493,2.221450053306708,1.6968369952130777,2.6921618514715764,"[ 6.46847957e-06 -6.46857848e-07  0.00000000e+00  0.00000000e+00
  0.00000000e+00 -7.10097202e-07 -6.46857848e-07  3.92482109e-06
  0.00000000e+00  0.00000000e+00  0.00000000e+00 -8.31377229e-08
  0.00000000e+00  0.00000000e+00  0.00000000e+00  0.00000000e+00
  0.00000000e+00  0.00000000e+00  0.00000000e+00  0.00000000e+00
  0.00000000e+00  0.00000000e+00  0.00000000e+00  0.00000000e+00
  0.00000000e+00  0.00000000e+00  0.00000000e+00  0.00000000e+00
  0.00000000e+00  0.00000000e+00 -7.10097202e-07 -8.31377229e-08
  0.00000000e+00  0.00000000e+00  0.00000000e+00  4.00947386e-06]","[[ 1.58023932e-04  1.92673243e-03]
 [-4.75665145e-05  1.86825099e-03]]",[],0.0,0.0
1787564698.4133906,2.221450053306708,1.6968369952130777,2.6921618514715764,"[ 6.46847957e-06 -6.46857848e-07  0.00000000e+00  0.00000000e+00
  0.00000000e+00 -7.10097202e-07 -6.46857848e-07  3.92482109e-06
  0.00000000e+00  0.00000000e+00  0.00000000e+00 -8.31377229e-08
  0.00000000e+00  0.00000000e+00  0.00000000e+00  0.00000000e+00
  0.00000000e+00  0.00000000e+00  0.00000000e+00  0.00000000e+00
  0.00000000e+00  0.00000000e+00  0.00000000e+00  0.00000000e+00
  0.00000000e+00  0.00000000e+00  0.00000000e+00  0.00000000e+00
  0.00000000e+00  0.00000000e+00 -7.10097202e-07 -8.31377229e-08
  0.00000000e+00  0.00000000e+00  0.00000000e+00  4.00947386e-06]","[[ 1.58023932e-04  1.92673243e-03]
 [-4.75665145e-05  1.86825099e-03]]",[],0.0,0.0
1787564698.4718256,2.221450053306708,1.6968369952130777,2.6921618514715764,"[ 6.46847957e-06 -6.46857848e-07  0.00000000e+00  0.00000000e+00
  0.00000000e+00 -7.10097202e-07 -6.46857848e-07  3.92482109e-06
  0.00000000e+00  0.00000000e+00  0.00000000e+00 -8.31377229e-08
  0.00000000e+00  0.00000000e+00  0.00000000e+00  0.00000000e+00
  0.00000000e+00  0.00000000e+00  0.00000000e+00  0.00000000e+00
  0.00000000e+00  0.00000000e+00  0.00000000e+00  0.00000000e+00
  0.00000000e+00  0.00000000e+00  0.00000000e+00  0.00000000e+00
  0.00000000e+00  0.00000000e+00 -7.10097202e-07 -8.31377229e-08
  0.00000000e+00  0.00000000e+00  0.00000000e+00  4.00947386e-06]","[[ 1.58023932e-04  1.92673243e-03]
 [-4.75665145e-05  1.86825099e-03]]",[],0.0,0.0
1787564698.507988,2.221450053306708,1.6968369952130777,2.6921618514715764,"[ 6.46847957e-06 -6.46857848e-07  0.00000000e+00  0.00000000e+00
  0.00000000e+00 -7.10097202e-07 -6.46857848e-07  3.92482109e-06
  0.00000000e+00  0.00000000e+00  0.00000000e+00 -8.31377229e-08
  0.00000000e+00  0.00000000e+00  0.00000000e+00  0.00000000e+00
