time,x,y,yaw,cov_prop
1786901015.5699942,9.27954416807863e-15,-2.813104978566185e-29,-1.2434497875801753e-14,"[ 9.99980066e-03 -9.19053198e-25  0.00000000e+00  0.00000000e+00
  0.00000000e+00  6.73849127e-10 -9.19053198e-25  9.99980000e-03
  0.00000000e+00  0.00000000e+00  0.00000000e+00  9.27936099e-17
  0.00000000e+00  0.00000000e+00  0.00000000e+00  0.00000000e+00
  0.00000000e+00  0.00000000e+00  0.00000000e+00  0.00000000e+00
  0.00000000e+00  0.00000000e+00  0.00000000e+00  0.00000000e+00
  0.00000000e+00  0.00000000e+00  0.00000000e+00  0.00000000e+00
  0.00000000e+00  0.00000000e+00  6.73849127e-10  9.27936099e-17
  0.00000000e+00  0.00000000e+00  0.00000000e+00  9.99981369e-03]"
1786901015.620411,1.5294586844568282e-14,-1.0292283339488115e-28,-2.042810365310288e-14,"[ 9.99970120e-03 -3.59085135e-24  0.00000000e+00  0.00000000e+00
  0.00000000e+00  1.23044259e-09 -3.59085135e-24  9.99970001e-03
  0.00000000e+00  0.00000000e+00  0.00000000e+00  1.52941380e-16
  0.00000000e+00  0.00000000e+00  0.00000000e+00  0.00000000e+00
  0.00000000e+00  0.00000000e+00  0.00000000e+00  0.00000000e+00
  0.00000000e+00  0.00000000e+00  0.00000000e+00  0.00000000e+00
  0.00000000e+00  0.00000000e+00  0.00000000e+00  0.00000000e+00
  0.00000000e+00  0.00000000e+00  1.23044259e-09  1.52941380e-16
  0.00000000e+00  0.00000000e+00  0.00000000e+00  9.99972500e-03]"
1786901015.6722527,2.5097218433947e-14,-3.355674188947171e-28,-3.375077994860476e-14,"[ 9.99950194e-03 -7.13303570e-24  0.00000000e+00  0.00000000e+00
  0.00000000e+00  1.97417541e-09 -7.13303570e-24  9.99950002e-03
  0.00000000e+00  0.00000000e+00  0.00000000e+00  2.50959997e-16
  0.00000000e+00  0.00000000e+00  0.00000000e+00  0.00000000e+00
  0.00000000e+00  0.00000000e+00  0.00000000e+00  0.00000000e+00
  0.00000000e+00  0.00000000e+00  0.00000000e+00  0.00000000e+00
  0.00000000e+00  0.00000000e+00  0.00000000e+00  0.00000000e+00
  0.00000000e+00  0.00000000e+00  1.97417541e-09  2.50959997e-16
  0.00000000e+00  0.00000000e+00  0.00000000e+00  9.99954012e-03]"
1786901015.7224765,3.064678664368657e-14,-5.2286213239819795e-28,-4.1300296516055823e-14,"[ 9.99940242e-03 -1.17799420e-23  0.00000000e+00  0.00000000e+00
  0.00000000e+00  2.44991217e-09 -1.17799420e-23  9.99940004e-03
  0.00000000e+00  0.00000000e+00  0.00000000e+00  3.06450047e-16
  0.00000000e+00  0.00000000e+00  0.00000000e+00  0.00000000e+00
  0.00000000e+00  0.00000000e+00  0.00000000e+00  0.00000000e+00
  0.00000000e+00  0.00000000e+00  0.00000000e+00  0.00000000e+00
  0.00000000e+00  0.00000000e+00  0.00000000e+00  0.00000000e+00
  0.00000000e+00  0.00000000e+00  2.44991217e-09  3.06450047e-16
  0.00000000e+00  0.00000000e+00  0.00000000e+00  9.99944979e-03]"
1786901015.7689323,4.171200161709026e-14,-1.018927090850185e-27,-5.551115123125783e-14,"[ 9.99920337e-03 -2.37822819e-23  0.00000000e+00  0.00000000e+00
  0.00000000e+00  3.39959765e-09 -2.37822819e-23  9.99920006e-03
  0.00000000e+00  0.00000000e+00  0.00000000e+00  4.17087774e-16
  0.00000000e+00  0.00000000e+00  0.00000000e+00  0.00000000e+00
  0.00000000e+00  0.00000000e+00  0.00000000e+00  0.00000000e+00
  0.00000000e+00  0.00000000e+00  0.00000000e+00  0.00000000e+00
  0.00000000e+00  0.00000000e+00  0.00000000e+00  0.00000000e+00
  0.00000000e+00  0.00000000e+00  3.39959765e-09  4.17087774e-16
  0.00000000e+00  0.00000000e+00  0.00000000e+00  9.99926911e-03]"
1786901015.826565,4.628582460805444e-14,-1.272809665960889e-27,-6.17284001691587e-14,"[ 9.99910370e-03 -2.57109357e-23  0.00000000e+00  0.00000000e+00
  0.00000000e+00  3.72357026e-09 -2.57109357e-23  9.99910008e-03
  0.00000000e+00  0.00000000e+00  0.00000000e+00  4.62818015e-16
  0.00000000e+00  0.00000000e+00  0.00000000e+00  0.00000000e+00
  0.00000000e+00  0.00000000e+00  0.00000000e+00  0.00000000e+00
  0.00000000e+00  0.00000000e+00  0.00000000e+00  0.00000000e+00
  0.00000000e+00  0.00000000e+00  0.00000000e+00  0.00000000e+00
  0.00000000e+00  0.00000000e+00  3.72357026e-09  4.62818015e-16
  0.00000000e+00  0.00000000e+00  0.00000000e+00  9.99917571e-03]"
1786901016.262762,5.728719884934653e-14,-1.9906477841410604e-27,-7.593925488436071e-14,"[ 9.99890465e-03 -4.22523594e-23  0.00000000e+00  0.00000000e+00
  0.00000000e+00  4.66572922e-09 -4.22523594e-23  9.99890012e-03
  0.00000000e+00  0.00000000e+00  0.00000000e+00  5.72811222e-16
  0.00000000e+00  0.00000000e+00  0.00000000e+00  0.00000000e+00
  0.00000000e+00  0.00000000e+00  0.00000000e+00  0.00000000e+00
  0.00000000e+00  0.00000000e+00  0.00000000e+00  0.00000000e+00
  0.00000000e+00  0.00000000e+00  0.00000000e+00  0.00000000e+00
  0.00000000e+00  0.00000000e+00  4.66572922e-09  5.72811222e-16
  0.00000000e+00  0.00000000e+00  0.00000000e+00  9.99899488e-03]"
1786901016.2818906,5.728719884934653e-14,-1.9906477841410604e-27,-7.593925488436071e-14,"[ 9.99890465e-03 -4.22523594e-23  0.00000000e+00  0.00000000e+00
  0.00000000e+00  4.66572922e-09 -4.22523594e-23  9.99890012e-03
  0.00000000e+00  0.00000000e+00  0.00000000e+00  5.72811222e-16
  0.00000000e+00  0.00000000e+00  0.00000000e+00  0.00000000e+00
  0.00000000e+00  0.00000000e+00  0.00000000e+00  0.00000000e+00
  0.00000000e+00  0.00000000e+00  0.00000000e+00  0.00000000e+00
  0.00000000e+00  0.00000000e+00  0.00000000e+00  0.00000000e+00
  0.00000000e+00  0.00000000e+00  4.66572922e-09  5.72811222e-16
  0.00000000e+00  0.00000000e+00  0.00000000e+00  9.99899488e-03]"
1786901016.353248,1.258936994004879e-13,-7.334623528273613e-27,-1.6697754290362354e-13,"[ 9.99877279e-03 -4.79030613e-21  0.00000000e+00  0.00000000e+00
  0.00000000e+00  7.47451686e-08 -4.79030613e-21  9.99870017e-03
  0.00000000e+00  0.00000000e+00  0.00000000e+00  1.25877892e-15
  0.00000000e+00  0.00000000e+00  0.00000000e+00  0.00000000e+00
  0.00000000e+00  0.00000000e+00  0.00000000e+00  0.00000000e+00
  0.00000000e+00  0.00000000e+00  0.00000000e+00  0.00000000e+00
  0.00000000e+00  0.00000000e+00  0.00000000e+00  0.00000000e+00
  0.00000000e+00  0.00000000e+00  7.47451686e-08  1.25877892e-15
  0.00000000e+00  0.00000000e+00  0.00000000e+00  1.00002183e-02]"
1786901016.370077,1.3565830513121826e-13,-8.964986288983747e-27,-1.7985612998927536e-13,"[ 9.99867426e-03 -4.30147994e-21  0.00000000e+00  0.00000000e+00
  0.00000000e+00  7.62297790e-08 -4.30147994e-21  9.99860020e-03
  0.00000000e+00  0.00000000e+00  0.00000000e+00  1.35641330e-15
  0.00000000e+00  0.00000000e+00  0.00000000e+00  0.00000000e+00
  0.00000000e+00  0.00000000e+00  0.00000000e+00  0.00000000e+00
  0.00000000e+00  0.00000000e+00  0.00000000e+00  0.00000000e+00
  0.00000000e+00  0.00000000e+00  0.00000000e+00  0.00000000e+00
  0.00000000e+00  0.00000000e+00  7.62297790e-08  1.35641330e-15
  0.00000000e+00  0.00000000e+00  0.00000000e+00  1.00001485e-02]"
1786901016.4191363,1.4224305150648833e-13,-1.0149179172504497e-26,-1.887379141862766e-13,"[ 9.99857495e-03 -3.91764824e-21  0.00000000e+00  0.00000000e+00
  0.00000000e+00  7.69046080e-08 -3.91764824e-21  9.99850022e-03
  0.00000000e+00  0.00000000e+00  0.00000000e+00  1.42224740e-15
  0.00000000e+00  0.00000000e+00  0.00000000e+00  0.00000000e+00
  0.00000000e+00  0.00000000e+00  0.00000000e+00  0.00000000e+00
  0.00000000e+00  0.00000000e+00  0.00000000e+00  0.00000000e+00
  0.00000000e+00  0.00000000e+00  0.00000000e+00  0.00000000e+00
  0.00000000e+00  0.00000000e+00  7.69046080e-08  1.42224740e-15
  0.00000000e+00  0.00000000e+00  0.00000000e+00  1.00000622e-02]"
1786901016.4695048,1.4562320721081905e-13,-1.078138729080923e-26,-1.9451107391432743e-13,"[ 9.99837564e-03 -3.77948566e-21  0.00000000e+00  0.00000000e+00
  0.00000000e+00  7.75539283e-08 -3.77948566e-21  9.99830029e-03
  0.00000000e+00  0.00000000e+00  0.00000000e+00  1.45601992e-15
  0.00000000e+00  0.00000000e+00  0.00000000e+00  0.00000000e+00
  0.00000000e+00  0.00000000e+00  0.00000000e+00  0.00000000e+00
  0.00000000e+00  0.00000000e+00  0.00000000e+00  0.00000000e+00
  0.00000000e+00  0.00000000e+00  0.00000000e+00  0.00000000e+00
  0.00000000e+00  0.00000000e+00  7.75539283e-08  1.45601992e-15
  0.00000000e+00  0.00000000e+00  0.00000000e+00  9.99987544e-03]"
1786901016.5230029,1.4462252949759211e-13,-1.0586638537832218e-26,-1.9451107391432743e-13,"[ 9.99827606e-03 -3.93099378e-21  0.00000000e+00  0.00000000e+00
  0.00000000e+00  7.79438052e-08 -3.93099378e-21  9.99820032e-03
  0.00000000e+00  0.00000000e+00  0.00000000e+00  1.44599873e-15
  0.00000000e+00  0.00000000e+00  0.00000000e+00  0.00000000e+00
  0.00000000e+00  0.00000000e+00  0.00000000e+00  0.00000000e+00
  0.00000000e+00  0.00000000e+00  0.00000000e+00  0.00000000e+00
  0.00000000e+00  0.00000000e+00  0.00000000e+00  0.00000000e+00
  0.00000000e+00  0.00000000e+00  7.79438052e-08  1.44599873e-15
  0.00000000e+00  0.00000000e+00  0.00000000e+00  9.99978340e-03]"
1786901016.604151,1.435391446611054e-13,-1.0375804442819335e-26,-1.9451107391432743e-13,"[ 9.99817654e-03 -4.10211660e-21  0.00000000e+00  0.00000000e+00
  0.00000000e+00  7.84013007e-08 -4.10211660e-21  9.99810036e-03
  0.00000000e+00  0.00000000e+00  0.00000000e+00  1.43515068e-15
  0.00000000e+00  0.00000000e+00  0.00000000e+00  0.00000000e+00
  0.00000000e+00  0.00000000e+00  0.00000000e+00  0.00000000e+00
  0.00000000e+00  0.00000000e+00  0.00000000e+00  0.00000000e+00
  0.00000000e+00  0.00000000e+00  0.00000000e+00  0.00000000e+00
  0.00000000e+00  0.00000000e+00  7.84013007e-08  1.43515068e-15
  0.00000000e+00  0.00000000e+00  0.00000000e+00  9.99969273e-03]"
1786901016.628516,1.4088117254397722e-13,-9.858700856733381e-27,-1.9451107391432743e-13,"[ 9.99807927e-03 -4.83355416e-21  0.00000000e+00  0.00000000e+00
  0.00000000e+00  8.11676856e-08 -4.83355416e-21  9.99800040e-03
  0.00000000e+00  0.00000000e+00  0.00000000e+00  1.40855715e-15
  0.00000000e+00  0.00000000e+00  0.00000000e+00  0.00000000e+00
  0.00000000e+00  0.00000000e+00  0.00000000e+00  0.00000000e+00
  0.00000000e+00  0.00000000e+00  0.00000000e+00  0.00000000e+00
  0.00000000e+00  0.00000000e+00  0.00000000e+00  0.00000000e+00
  0.00000000e+00  0.00000000e+00  8.11676856e-08  1.40855715e-15
  0.00000000e+00  0.00000000e+00  0.00000000e+00  9.99964895e-03]"
1786901016.6707869,1.3923334780363253e-13,-9.537987857039334e-27,-1.9451107391432743e-13,"[ 9.99787991e-03 -5.07745586e-21  0.00000000e+00  0.00000000e+00
  0.00000000e+00  8.17475973e-08 -5.07745586e-21  9.99780048e-03
  0.00000000e+00  0.00000000e+00  0.00000000e+00  1.39205153e-15
  0.00000000e+00  0.00000000e+00  0.00000000e+00  0.00000000e+00
  0.00000000e+00  0.00000000e+00  0.00000000e+00  0.00000000e+00
  0.00000000e+00  0.00000000e+00  0.00000000e+00  0.00000000e+00
  0.00000000e+00  0.00000000e+00  0.00000000e+00  0.00000000e+00
  0.00000000e+00  0.00000000e+00  8.17475973e-08  1.39205153e-15
  0.00000000e+00  0.00000000e+00  0.00000000e+00  9.99946081e-03]"
1786901016.7225058,1.382764602688228e-13,-9.351769131819562e-27,-1.9451107391432743e-13,"[ 9.99778030e-03 -5.22326031e-21  0.00000000e+00  0.00000000e+00
  0.00000000e+00  8.21040858e-08 -5.22326031e-21  9.99770053e-03
  0.00000000e+00  0.00000000e+00  0.00000000e+00  1.38246928e-15
  0.00000000e+00  0.00000000e+00  0.00000000e+00  0.00000000e+00
  0.00000000e+00  0.00000000e+00  0.00000000e+00  0.00000000e+00
  0.00000000e+00  0.00000000e+00  0.00000000e+00  0.00000000e+00
  0.00000000e+00  0.00000000e+00  0.00000000e+00  0.00000000e+00
  0.00000000e+00  0.00000000e+00  8.21040858e-08  1.38246928e-15
  0.00000000e+00  0.00000000e+00  0.00000000e+00  9.99936810e-03]"
1786901016.76945,1.3625176928668405e-13,-8.957763246925694e-27,-1.9451107391432743e-13,"[ 9.99758118e-03 -5.54129712e-21  0.00000000e+00  0.00000000e+00
  0.00000000e+00  8.29029605e-08 -5.54129712e-21  9.99750062e-03
  0.00000000e+00  0.00000000e+00  0.00000000e+00  1.36219625e-15
  0.00000000e+00  0.00000000e+00  0.00000000e+00  0.00000000e+00
  0.00000000e+00  0.00000000e+00  0.00000000e+00  0.00000000e+00
  0.00000000e+00  0.00000000e+00  0.00000000e+00  0.00000000e+00
  0.00000000e+00  0.00000000e+00  0.00000000e+00  0.00000000e+00
  0.00000000e+00  0.00000000e+00  8.29029605e-08  1.36219625e-15
  0.00000000e+00  0.00000000e+00  0.00000000e+00  9.99918442e-03]"
1786901016.838708,1.350591374177263e-13,-8.725695901053654e-27,-1.9451107391432743e-13,"[ 9.99748177e-03 -5.74530471e-21  0.00000000e+00  0.00000000e+00
  0.00000000e+00  8.34581771e-08 -5.74530471e-21  9.99740068e-03
  0.00000000e+00  0.00000000e+00  0.00000000e+00  1.35025729e-15
  0.00000000e+00  0.00000000e+00  0.00000000e+00  0.00000000e+00
  0.00000000e+00  0.00000000e+00  0.00000000e+00  0.00000000e+00
  0.00000000e+00  0.00000000e+00  0.00000000e+00  0.00000000e+00
  0.00000000e+00  0.00000000e+00  0.00000000e+00  0.00000000e+00
  0.00000000e+00  0.00000000e+00  8.34581771e-08  1.35025729e-15
  0.00000000e+00  0.00000000e+00  0.00000000e+00  9.99909575e-03]"
1786901016.869122,1.331152314550542e-13,-8.347416315068823e-27,-1.9451107391432743e-13,"[ 9.99728263e-03 -6.05556384e-21  0.00000000e+00  0.00000000e+00
  0.00000000e+00  8.42370754e-08 -6.05556384e-21  9.99720078e-03
  0.00000000e+00  0.00000000e+00  0.00000000e+00  1.33079322e-15
  0.00000000e+00  0.00000000e+00  0.00000000e+00  0.00000000e+00
  0.00000000e+00  0.00000000e+00  0.00000000e+00  0.00000000e+00
  0.00000000e+00  0.00000000e+00  0.00000000e+00  0.00000000e+00
  0.00000000e+00  0.00000000e+00  0.00000000e+00  0.00000000e+00
  0.00000000e+00  0.00000000e+00  8.42370754e-08  1.33079322e-15
  0.00000000e+00  0.00000000e+00  0.00000000e+00  9.99891168e-03]"
1786901016.922032,1.3189590088622816e-13,-8.110161933628225e-27,-1.9451107391432743e-13,"[ 9.99718325e-03 -6.26817044e-21  0.00000000e+00  0.00000000e+00
  0.00000000e+00  8.48174999e-08 -6.26817044e-21  9.99710084e-03
  0.00000000e+00  0.00000000e+00  0.00000000e+00  1.31858795e-15
  0.00000000e+00  0.00000000e+00  0.00000000e+00  0.00000000e+00
  0.00000000e+00  0.00000000e+00  0.00000000e+00  0.00000000e+00
  0.00000000e+00  0.00000000e+00  0.00000000e+00  0.00000000e+00
  0.00000000e+00  0.00000000e+00  0.00000000e+00  0.00000000e+00
  0.00000000e+00  0.00000000e+00  8.48174999e-08  1.31858795e-15
  0.00000000e+00  0.00000000e+00  0.00000000e+00  9.99882352e-03]"
1786901017.0177064,1.3097207038216968e-13,-7.930387385452529e-27,-1.9451107391432743e-13,"[ 9.99708364e-03 -6.40950799e-21  0.00000000e+00  0.00000000e+00
  0.00000000e+00  8.51497109e-08 -6.40950799e-21  9.99700090e-03
  0.00000000e+00  0.00000000e+00  0.00000000e+00  1.30933757e-15
  0.00000000e+00  0.00000000e+00  0.00000000e+00  0.00000000e+00
  0.00000000e+00  0.00000000e+00  0.00000000e+00  0.00000000e+00
  0.00000000e+00  0.00000000e+00  0.00000000e+00  0.00000000e+00
  0.00000000e+00  0.00000000e+00  0.00000000e+00  0.00000000e+00
  0.00000000e+00  0.00000000e+00  8.51497109e-08  1.30933757e-15
  0.00000000e+00  0.00000000e+00  0.00000000e+00  9.99873033e-03]"
1786901017.018515,1.3097207038216968e-13,-7.930387385452529e-27,-1.9451107391432743e-13,"[ 9.99708364e-03 -6.40950799e-21  0.00000000e+00  0.00000000e+00
  0.00000000e+00  8.51497109e-08 -6.40950799e-21  9.99700090e-03
  0.00000000e+00  0.00000000e+00  0.00000000e+00  1.30933757e-15
  0.00000000e+00  0.00000000e+00  0.00000000e+00  0.00000000e+00
  0.00000000e+00  0.00000000e+00  0.00000000e+00  0.00000000e+00
  0.00000000e+00  0.00000000e+00  0.00000000e+00  0.00000000e+00
  0.00000000e+00  0.00000000e+00  0.00000000e+00  0.00000000e+00
  0.00000000e+00  0.00000000e+00  8.51497109e-08  1.30933757e-15
  0.00000000e+00  0.00000000e+00  0.00000000e+00  9.99873033e-03]"
1786901017.1078603,1.2665915183774322e-13,-7.09125945240325e-27,-1.9451107391432743e-13,"[ 9.99678795e-03 -7.58417016e-21  0.00000000e+00  0.00000000e+00
  0.00000000e+00  8.93945256e-08 -7.58417016e-21  9.99670109e-03
  0.00000000e+00  0.00000000e+00  0.00000000e+00  1.26617497e-15
  0.00000000e+00  0.00000000e+00  0.00000000e+00  0.00000000e+00
  0.00000000e+00  0.00000000e+00  0.00000000e+00  0.00000000e+00
  0.00000000e+00  0.00000000e+00  0.00000000e+00  0.00000000e+00
  0.00000000e+00  0.00000000e+00  0.00000000e+00  0.00000000e+00
  0.00000000e+00  0.00000000e+00  8.93945256e-08  1.26617497e-15
  0.00000000e+00  0.00000000e+00  0.00000000e+00  9.99851673e-03]"
1786901017.1186333,1.2665915183774322e-13,-7.09125945240325e-27,-1.9451107391432743e-13,"[ 9.99678795e-03 -7.58417016e-21  0.00000000e+00  0.00000000e+00
  0.00000000e+00  8.93945256e-08 -7.58417016e-21  9.99670109e-03
  0.00000000e+00  0.00000000e+00  0.00000000e+00  1.26617497e-15
  0.00000000e+00  0.00000000e+00  0.00000000e+00  0.00000000e+00
  0.00000000e+00  0.00000000e+00  0.00000000e+00  0.00000000e+00
  0.00000000e+00  0.00000000e+00  0.00000000e+00  0.00000000e+00
  0.00000000e+00  0.00000000e+00  0.00000000e+00  0.00000000e+00
  0.00000000e+00  0.00000000e+00  8.93945256e-08  1.26617497e-15
  0.00000000e+00  0.00000000e+00  0.00000000e+00  9.99851673e-03]"
1786901017.176751,1.2370810625814486e-13,-6.517048077605599e-27,-1.9451107391432743e-13,"[ 9.99648939e-03 -8.09038077e-21  0.00000000e+00  0.00000000e+00
  0.00000000e+00  9.06672215e-08 -8.09038077e-21  9.99640130e-03
  0.00000000e+00  0.00000000e+00  0.00000000e+00  1.23663153e-15
  0.00000000e+00  0.00000000e+00  0.00000000e+00  0.00000000e+00
  0.00000000e+00  0.00000000e+00  0.00000000e+00  0.00000000e+00
  0.00000000e+00  0.00000000e+00  0.00000000e+00  0.00000000e+00
  0.00000000e+00  0.00000000e+00  0.00000000e+00  0.00000000e+00
  0.00000000e+00  0.00000000e+00  9.06672215e-08  1.23663153e-15
  0.00000000e+00  0.00000000e+00  0.00000000e+00  9.99824279e-03]"
1786901017.2238538,1.2237459285900583e-13,-6.2576023997396195e-27,-1.9451107391432743e-13,"[ 9.99639014e-03 -8.34251796e-21  0.00000000e+00  0.00000000e+00
  0.00000000e+00  9.13606334e-08 -8.34251796e-21  9.99630137e-03
  0.00000000e+00  0.00000000e+00  0.00000000e+00  1.22328638e-15
  0.00000000e+00  0.00000000e+00  0.00000000e+00  0.00000000e+00
  0.00000000e+00  0.00000000e+00  0.00000000e+00  0.00000000e+00
  0.00000000e+00  0.00000000e+00  0.00000000e+00  0.00000000e+00
  0.00000000e+00  0.00000000e+00  0.00000000e+00  0.00000000e+00
  0.00000000e+00  0.00000000e+00  9.13606334e-08  1.22328638e-15
  0.00000000e+00  0.00000000e+00  0.00000000e+00  9.99815694e-03]"
1786901021.6712823,1.214982865835468e-13,-6.087090275916568e-27,-1.9451107391432743e-13,"[ 9.99629050e-03 -8.47908388e-21  0.00000000e+00  0.00000000e+00
  0.00000000e+00  9.16586761e-08 -8.47908388e-21  9.99620144e-03
  0.00000000e+00  0.00000000e+00  0.00000000e+00  1.21451273e-15
  0.00000000e+00  0.00000000e+00  0.00000000e+00  0.00000000e+00
  0.00000000e+00  0.00000000e+00  0.00000000e+00  0.00000000e+00
  0.00000000e+00  0.00000000e+00  0.00000000e+00  0.00000000e+00
  0.00000000e+00  0.00000000e+00  0.00000000e+00  0.00000000e+00
  0.00000000e+00  0.00000000e+00  9.16586761e-08  1.21451273e-15
  0.00000000e+00  0.00000000e+00  0.00000000e+00  9.99806307e-03]"
1786901021.7320445,8.23881435688473e-13,-1.4269930814459276e-25,-1.1239897901305085e-12,"[ 1.00036646e-02 -1.39793963e-18  0.00000000e+00  0.00000000e+00
  0.00000000e+00  7.78376172e-06 -1.39793963e-18  9.99610152e-03
  0.00000000e+00  0.00000000e+00  0.00000000e+00  8.23540389e-15
  0.00000000e+00  0.00000000e+00  0.00000000e+00  0.00000000e+00
  0.00000000e+00  0.00000000e+00  0.00000000e+00  0.00000000e+00
  0.00000000e+00  0.00000000e+00  0.00000000e+00  0.00000000e+00
  0.00000000e+00  0.00000000e+00  0.00000000e+00  0.00000000e+00
  0.00000000e+00  0.00000000e+00  7.78376172e-06  8.23540389e-15
  0.00000000e+00  0.00000000e+00  0.00000000e+00  1.01541931e-02]"
1786901021.775883,8.315296600958572e-13,-1.5129423192558346e-25,-1.13420384195706e-12,"[ 1.00035654e-02 -1.33937915e-18  0.00000000e+00  0.00000000e+00
  0.00000000e+00  7.78451883e-06 -1.33937915e-18  9.99600160e-03
  0.00000000e+00  0.00000000e+00  0.00000000e+00  8.31298128e-15
  0.00000000e+00  0.00000000e+00  0.00000000e+00  0.00000000e+00
  0.00000000e+00  0.00000000e+00  0.00000000e+00  0.00000000e+00
  0.00000000e+00  0.00000000e+00  0.00000000e+00  0.00000000e+00
  0.00000000e+00  0.00000000e+00  0.00000000e+00  0.00000000e+00
  0.00000000e+00  0.00000000e+00  7.78451883e-06  8.31298128e-15
  0.00000000e+00  0.00000000e+00  0.00000000e+00  1.01541085e-02]"
1786901021.8307235,8.399745765380868e-13,-1.6089228976447531e-25,-1.1453060722033115e-12,"[ 1.00033658e-02 -1.27421280e-18  0.00000000e+00  0.00000000e+00
  0.00000000e+00  7.78477076e-06 -1.27421280e-18  9.99580176e-03
  0.00000000e+00  0.00000000e+00  0.00000000e+00  8.39856325e-15
  0.00000000e+00  0.00000000e+00  0.00000000e+00  0.00000000e+00
  0.00000000e+00  0.00000000e+00  0.00000000e+00  0.00000000e+00
  0.00000000e+00  0.00000000e+00  0.00000000e+00  0.00000000e+00
  0.00000000e+00  0.00000000e+00  0.00000000e+00  0.00000000e+00
  0.00000000e+00  0.00000000e+00  7.78477076e-06  8.39856325e-15
  0.00000000e+00  0.00000000e+00  0.00000000e+00  1.01539138e-02]"
1786901021.8688416,8.503720228554689e-13,-1.7283238749246284e-25,-1.1590728377086634e-12,"[ 1.00031665e-02 -1.19416383e-18  0.00000000e+00  0.00000000e+00
  0.00000000e+00  7.78530161e-06 -1.19416383e-18  9.99560194e-03
  0.00000000e+00  0.00000000e+00  0.00000000e+00  8.50396696e-15
  0.00000000e+00  0.00000000e+00  0.00000000e+00  0.00000000e+00
  0.00000000e+00  0.00000000e+00  0.00000000e+00  0.00000000e+00
  0.00000000e+00  0.00000000e+00  0.00000000e+00  0.00000000e+00
  0.00000000e+00  0.00000000e+00  0.00000000e+00  0.00000000e+00
  0.00000000e+00  0.00000000e+00  7.78530161e-06  8.50396696e-15
  0.00000000e+00  0.00000000e+00  0.00000000e+00  1.01537248e-02]"
1786901021.920421,8.550521218882455e-13,-1.7825511873855692e-25,-1.1652900866465643e-12,"[ 1.00030668e-02 -1.15808913e-18  0.00000000e+00  0.00000000e+00
  0.00000000e+00  7.78548599e-06 -1.15808913e-18  9.99550202e-03
  0.00000000e+00  0.00000000e+00  0.00000000e+00  8.55140145e-15
  0.00000000e+00  0.00000000e+00  0.00000000e+00  0.00000000e+00
  0.00000000e+00  0.00000000e+00  0.00000000e+00  0.00000000e+00
  0.00000000e+00  0.00000000e+00  0.00000000e+00  0.00000000e+00
  0.00000000e+00  0.00000000e+00  0.00000000e+00  0.00000000e+00
  0.00000000e+00  0.00000000e+00  7.78548599e-06  8.55140145e-15
  0.00000000e+00  0.00000000e+00  0.00000000e+00  1.01536286e-02]"
1786901021.9742486,8.65804202254004e-13,-1.9081723993449484e-25,-1.1795009413617663e-12,"[ 1.00028676e-02 -1.07540844e-18  0.00000000e+00  0.00000000e+00
  0.00000000e+00  7.78611965e-06 -1.07540844e-18  9.99530221e-03
  0.00000000e+00  0.00000000e+00  0.00000000e+00  8.66039972e-15
  0.00000000e+00  0.00000000e+00  0.00000000e+00  0.00000000e+00
  0.00000000e+00  0.00000000e+00  0.00000000e+00  0.00000000e+00
  0.00000000e+00  0.00000000e+00  0.00000000e+00  0.00000000e+00
  0.00000000e+00  0.00000000e+00  0.00000000e+00  0.00000000e+00
  0.00000000e+00  0.00000000e+00  7.78611965e-06  8.66039972e-15
  0.00000000e+00  0.00000000e+00  0.00000000e+00  1.01534417e-02]"
1786901022.0381098,8.706553416531421e-13,-1.9653713231773954e-25,-1.1857181902996672e-12,"[ 1.00027679e-02 -1.03803479e-18  0.00000000e+00  0.00000000e+00
  0.00000000e+00  7.78632794e-06 -1.03803479e-18  9.99520230e-03
  0.00000000e+00  0.00000000e+00  0.00000000e+00  8.70956789e-15
  0.00000000e+00  0.00000000e+00  0.00000000e+00  0.00000000e+00
  0.00000000e+00  0.00000000e+00  0.00000000e+00  0.00000000e+00
  0.00000000e+00  0.00000000e+00  0.00000000e+00  0.00000000e+00
  0.00000000e+00  0.00000000e+00  0.00000000e+00  0.00000000e+00
  0.00000000e+00  0.00000000e+00  7.78632794e-06  8.70956789e-15
  0.00000000e+00  0.00000000e+00  0.00000000e+00  1.01533460e-02]"
1786901022.0825443,8.814865392873461e-13,-2.0941023921160213e-25,-1.1999290450148692e-12,"[ 1.00025687e-02 -9.54810399e-19  0.00000000e+00  0.00000000e+00
  0.00000000e+00  7.78701207e-06 -9.54810399e-19  9.99500250e-03
  0.00000000e+00  0.00000000e+00  0.00000000e+00  8.81936312e-15
  0.00000000e+00  0.00000000e+00  0.00000000e+00  0.00000000e+00
  0.00000000e+00  0.00000000e+00  0.00000000e+00  0.00000000e+00
  0.00000000e+00  0.00000000e+00  0.00000000e+00  0.00000000e+00
  0.00000000e+00  0.00000000e+00  0.00000000e+00  0.00000000e+00
  0.00000000e+00  0.00000000e+00  7.78701207e-06  8.81936312e-15
  0.00000000e+00  0.00000000e+00  0.00000000e+00  1.01531601e-02]"
1786901022.1220324,8.86455554391753e-13,-2.153704773833023e-25,-1.2065903831626201e-12,"[ 1.00024690e-02 -9.16544080e-19  0.00000000e+00  0.00000000e+00
  0.00000000e+00  7.78723738e-06 -9.16544080e-19  9.99490260e-03
  0.00000000e+00  0.00000000e+00  0.00000000e+00  8.86972509e-15
  0.00000000e+00  0.00000000e+00  0.00000000e+00  0.00000000e+00
  0.00000000e+00  0.00000000e+00  0.00000000e+00  0.00000000e+00
  0.00000000e+00  0.00000000e+00  0.00000000e+00  0.00000000e+00
  0.00000000e+00  0.00000000e+00  0.00000000e+00  0.00000000e+00
  0.00000000e+00  0.00000000e+00  7.78723738e-06  8.86972509e-15
  0.00000000e+00  0.00000000e+00  0.00000000e+00  1.01530648e-02]"
1786901022.1721737,8.983404863453177e-13,-2.2975034397049076e-25,-1.2221335055073723e-12,"[ 1.00022701e-02 -8.25290279e-19  0.00000000e+00  0.00000000e+00
  0.00000000e+00  7.78805816e-06 -8.25290279e-19  9.99470281e-03
  0.00000000e+00  0.00000000e+00  0.00000000e+00  8.99021228e-15
  0.00000000e+00  0.00000000e+00  0.00000000e+00  0.00000000e+00
  0.00000000e+00  0.00000000e+00  0.00000000e+00  0.00000000e+00
  0.00000000e+00  0.00000000e+00  0.00000000e+00  0.00000000e+00
  0.00000000e+00  0.00000000e+00  0.00000000e+00  0.00000000e+00
  0.00000000e+00  0.00000000e+00  7.78805816e-06  8.99021228e-15
  0.00000000e+00  0.00000000e+00  0.00000000e+00  1.01528817e-02]"
1786901022.227599,9.028136872898431e-13,-2.352147706045458e-25,-1.2279066652354231e-12,"[ 1.00021703e-02 -7.90803712e-19  0.00000000e+00  0.00000000e+00
  0.00000000e+00  7.78820997e-06 -7.90803712e-19  9.99460291e-03
  0.00000000e+00  0.00000000e+00  0.00000000e+00  9.03553732e-15
  0.00000000e+00  0.00000000e+00  0.00000000e+00  0.00000000e+00
  0.00000000e+00  0.00000000e+00  0.00000000e+00  0.00000000e+00
  0.00000000e+00  0.00000000e+00  0.00000000e+00  0.00000000e+00
  0.00000000e+00  0.00000000e+00  0.00000000e+00  0.00000000e+00
  0.00000000e+00  0.00000000e+00  7.78820997e-06  9.03553732e-15
  0.00000000e+00  0.00000000e+00  0.00000000e+00  1.01527848e-02]"
1786901022.2796533,9.131410957603331e-13,-2.479256963315873e-25,-1.241673430740775e-12,"[ 1.00019710e-02 -7.11347453e-19  0.00000000e+00  0.00000000e+00
  0.00000000e+00  7.78873756e-06 -7.11347453e-19  9.99440313e-03
  0.00000000e+00  0.00000000e+00  0.00000000e+00  9.14020525e-15
  0.00000000e+00  0.00000000e+00  0.00000000e+00  0.00000000e+00
  0.00000000e+00  0.00000000e+00  0.00000000e+00  0.00000000e+00
  0.00000000e+00  0.00000000e+00  0.00000000e+00  0.00000000e+00
  0.00000000e+00  0.00000000e+00  0.00000000e+00  0.00000000e+00
  0.00000000e+00  0.00000000e+00  7.78873756e-06  9.14020525e-15
  0.00000000e+00  0.00000000e+00  0.00000000e+00  1.01525958e-02]"
1786901022.3429356,9.181997062474438e-13,-2.542042144021097e-25,-1.248334768888526e-12,"[ 1.00018714e-02 -6.72409185e-19  0.00000000e+00  0.00000000e+00
  0.00000000e+00  7.78897448e-06 -6.72409185e-19  9.99430325e-03
  0.00000000e+00  0.00000000e+00  0.00000000e+00  9.19147074e-15
  0.00000000e+00  0.00000000e+00  0.00000000e+00  0.00000000e+00
  0.00000000e+00  0.00000000e+00  0.00000000e+00  0.00000000e+00
  0.00000000e+00  0.00000000e+00  0.00000000e+00  0.00000000e+00
  0.00000000e+00  0.00000000e+00  0.00000000e+00  0.00000000e+00
  0.00000000e+00  0.00000000e+00  7.78897448e-06  9.19147074e-15
  0.00000000e+00  0.00000000e+00  0.00000000e+00  1.01525007e-02]"
1786901022.3693862,9.286747544951735e-13,-2.673109130812459e-25,-1.262101534393878e-12,"[ 1.00016722e-02 -5.91840532e-19  0.00000000e+00  0.00000000e+00
  0.00000000e+00  7.78952177e-06 -5.91840532e-19  9.99410348e-03
  0.00000000e+00  0.00000000e+00  0.00000000e+00  9.29763141e-15
  0.00000000e+00  0.00000000e+00  0.00000000e+00  0.00000000e+00
  0.00000000e+00  0.00000000e+00  0.00000000e+00  0.00000000e+00
  0.00000000e+00  0.00000000e+00  0.00000000e+00  0.00000000e+00
  0.00000000e+00  0.00000000e+00  0.00000000e+00  0.00000000e+00
  0.00000000e+00  0.00000000e+00  7.78952177e-06  9.29763141e-15
  0.00000000e+00  0.00000000e+00  0.00000000e+00  1.01523121e-02]"
1786901022.4225192,9.341451559796014e-13,-2.7421228241715207e-25,-1.269206961751479e-12,"[ 1.00015726e-02 -5.49781552e-19  0.00000000e+00  0.00000000e+00
  0.00000000e+00  7.78982441e-06 -5.49781552e-19  9.99400360e-03
  0.00000000e+00  0.00000000e+00  0.00000000e+00  9.35307438e-15
  0.00000000e+00  0.00000000e+00  0.00000000e+00  0.00000000e+00
  0.00000000e+00  0.00000000e+00  0.00000000e+00  0.00000000e+00
  0.00000000e+00  0.00000000e+00  0.00000000e+00  0.00000000e+00
  0.00000000e+00  0.00000000e+00  0.00000000e+00  0.00000000e+00
  0.00000000e+00  0.00000000e+00  7.78982441e-06  9.35307438e-15
  0.00000000e+00  0.00000000e+00  0.00000000e+00  1.01522183e-02]"
1786901022.4826076,9.399791517657345e-13,-2.8161391787532087e-25,-1.27675647831893e-12,"[ 1.00014730e-02 -5.04970167e-19  0.00000000e+00  0.00000000e+00
  0.00000000e+00  7.79018990e-06 -5.04970167e-19  9.99390372e-03
  0.00000000e+00  0.00000000e+00  0.00000000e+00  9.41220744e-15
  0.00000000e+00  0.00000000e+00  0.00000000e+00  0.00000000e+00
  0.00000000e+00  0.00000000e+00  0.00000000e+00  0.00000000e+00
  0.00000000e+00  0.00000000e+00  0.00000000e+00  0.00000000e+00
  0.00000000e+00  0.00000000e+00  0.00000000e+00  0.00000000e+00
  0.00000000e+00  0.00000000e+00  7.79018990e-06  9.41220744e-15
  0.00000000e+00  0.00000000e+00  0.00000000e+00  1.01521259e-02]"
1786901022.520332,9.502783964456868e-13,-2.947926226064394e-25,-1.290523243824282e-12,"[ 1.00012738e-02 -4.25732700e-19  0.00000000e+00  0.00000000e+00
  0.00000000e+00  7.79069153e-06 -4.25732700e-19  9.99370397e-03
  0.00000000e+00  0.00000000e+00  0.00000000e+00  9.51657499e-15
  0.00000000e+00  0.00000000e+00  0.00000000e+00  0.00000000e+00
  0.00000000e+00  0.00000000e+00  0.00000000e+00  0.00000000e+00
  0.00000000e+00  0.00000000e+00  0.00000000e+00  0.00000000e+00
  0.00000000e+00  0.00000000e+00  0.00000000e+00  0.00000000e+00
  0.00000000e+00  0.00000000e+00  7.79069153e-06  9.51657499e-15
  0.00000000e+00  0.00000000e+00  0.00000000e+00  1.01519363e-02]"
1786901022.5710325,9.6039242030867e-13,-3.078719647693971e-25,-1.3038459201197838e-12,"[ 1.00010745e-02 -3.47908751e-19  0.00000000e+00  0.00000000e+00
  0.00000000e+00  7.79116251e-06 -3.47908751e-19  9.99350422e-03
  0.00000000e+00  0.00000000e+00  0.00000000e+00  9.61905819e-15
  0.00000000e+00  0.00000000e+00  0.00000000e+00  0.00000000e+00
  0.00000000e+00  0.00000000e+00  0.00000000e+00  0.00000000e+00
  0.00000000e+00  0.00000000e+00  0.00000000e+00  0.00000000e+00
  0.00000000e+00  0.00000000e+00  0.00000000e+00  0.00000000e+00
  0.00000000e+00  0.00000000e+00  7.79116251e-06  9.61905819e-15
  0.00000000e+00  0.00000000e+00  0.00000000e+00  1.01517461e-02]"
1786901022.6209674,9.6664978110428e-13,-3.1602732595871125e-25,-1.312283615106935e-12,"[ 1.00009751e-02 -2.99911336e-19  0.00000000e+00  0.00000000e+00
  0.00000000e+00  7.79160577e-06 -2.99911336e-19  9.99340435e-03
  0.00000000e+00  0.00000000e+00  0.00000000e+00  9.68248352e-15
  0.00000000e+00  0.00000000e+00  0.00000000e+00  0.00000000e+00
  0.00000000e+00  0.00000000e+00  0.00000000e+00  0.00000000e+00
  0.00000000e+00  0.00000000e+00  0.00000000e+00  0.00000000e+00
  0.00000000e+00  0.00000000e+00  0.00000000e+00  0.00000000e+00
  0.00000000e+00  0.00000000e+00  7.79160577e-06  9.68248352e-15
  0.00000000e+00  0.00000000e+00  0.00000000e+00  1.01516553e-02]"
1786901022.669421,9.770696547076557e-13,-3.297296720603483e-25,-1.326050380612287e-12,"[ 1.00007758e-02 -2.19786519e-19  0.00000000e+00  0.00000000e+00
  0.00000000e+00  7.79213094e-06 -2.19786519e-19  9.99320462e-03
  0.00000000e+00  0.00000000e+00  0.00000000e+00  9.78806525e-15
  0.00000000e+00  0.00000000e+00  0.00000000e+00  0.00000000e+00
  0.00000000e+00  0.00000000e+00  0.00000000e+00  0.00000000e+00
  0.00000000e+00  0.00000000e+00  0.00000000e+00  0.00000000e+00
  0.00000000e+00  0.00000000e+00  0.00000000e+00  0.00000000e+00
  0.00000000e+00  0.00000000e+00  7.79213094e-06  9.78806525e-15
  0.00000000e+00  0.00000000e+00  0.00000000e+00  1.01514662e-02]"
1786901022.732492,9.817563608096463e-13,-3.3594102528419434e-25,-1.3322676295501878e-12,"[ 1.00006762e-02 -1.83698104e-19  0.00000000e+00  0.00000000e+00
  0.00000000e+00  7.79231110e-06 -1.83698104e-19  9.99310476e-03
  0.00000000e+00  0.00000000e+00  0.00000000e+00  9.83554317e-15
  0.00000000e+00  0.00000000e+00  0.00000000e+00  0.00000000e+00
  0.00000000e+00  0.00000000e+00  0.00000000e+00  0.00000000e+00
  0.00000000e+00  0.00000000e+00  0.00000000e+00  0.00000000e+00
  0.00000000e+00  0.00000000e+00  0.00000000e+00  0.00000000e+00
  0.00000000e+00  0.00000000e+00  7.79231110e-06  9.83554317e-15
  0.00000000e+00  0.00000000e+00  0.00000000e+00  1.01513700e-02]"
1786901022.7709131,9.926889774035024e-13,-3.5052918686103677e-25,-1.34692257347524e-12,"[ 1.00004772e-02 -9.99885581e-20  0.00000000e+00  0.00000000e+00
  0.00000000e+00  7.79314488e-06 -9.99885581e-20  9.99290504e-03
  0.00000000e+00  0.00000000e+00  0.00000000e+00  9.94632334e-15
  0.00000000e+00  0.00000000e+00  0.00000000e+00  0.00000000e+00
  0.00000000e+00  0.00000000e+00  0.00000000e+00  0.00000000e+00
  0.00000000e+00  0.00000000e+00  0.00000000e+00  0.00000000e+00
  0.00000000e+00  0.00000000e+00  0.00000000e+00  0.00000000e+00
  0.00000000e+00  0.00000000e+00  7.79314488e-06  9.94632334e-15
  0.00000000e+00  0.00000000e+00  0.00000000e+00  1.01511872e-02]"
1786901022.8213017,9.975718712222801e-13,-3.5710239089507167e-25,-1.3535839116229909e-12,"[ 1.00003776e-02 -6.24137741e-20  0.00000000e+00  0.00000000e+00
  0.00000000e+00  7.79335408e-06 -6.24137741e-20  9.99280518e-03
  0.00000000e+00  0.00000000e+00  0.00000000e+00  9.99578982e-15
  0.00000000e+00  0.00000000e+00  0.00000000e+00  0.00000000e+00
  0.00000000e+00  0.00000000e+00  0.00000000e+00  0.00000000e+00
  0.00000000e+00  0.00000000e+00  0.00000000e+00  0.00000000e+00
  0.00000000e+00  0.00000000e+00  0.00000000e+00  0.00000000e+00
  0.00000000e+00  0.00000000e+00  7.79335408e-06  9.99578982e-15
  0.00000000e+00  0.00000000e+00  0.00000000e+00  1.01510916e-02]"
1786901022.8745444,1.0081596937532793e-12,-3.7146421271505425e-25,-1.3677947663381929e-12,"[1.00001784e-02 1.89660893e-20 0.00000000e+00 0.00000000e+00
 0.00000000e+00 7.79390125e-06 1.89660893e-20 9.99260547e-03
 0.00000000e+00 0.00000000e+00 0.00000000e+00 1.01030641e-14
 0.00000000e+00 0.00000000e+00 0.00000000e+00 0.00000000e+00
 0.00000000e+00 0.00000000e+00 0.00000000e+00 0.00000000e+00
 0.00000000e+00 0.00000000e+00 0.00000000e+00 0.00000000e+00
 0.00000000e+00 0.00000000e+00 0.00000000e+00 0.00000000e+00
 0.00000000e+00 0.00000000e+00 7.79390125e-06 1.01030641e-14
 0.00000000e+00 0.00000000e+00 0.00000000e+00 1.01509030e-02]"
1786901022.9189327,1.0134263656970337e-12,-3.786640382308998e-25,-1.3749001936957939e-12,"[1.00000788e-02 5.94455284e-20 0.00000000e+00 0.00000000e+00
 0.00000000e+00 7.79417084e-06 5.94455284e-20 9.99250562e-03
 0.00000000e+00 0.00000000e+00 0.00000000e+00 1.01564232e-14
 0.00000000e+00 0.00000000e+00 0.00000000e+00 0.00000000e+00
 0.00000000e+00 0.00000000e+00 0.00000000e+00 0.00000000e+00
 0.00000000e+00 0.00000000e+00 0.00000000e+00 0.00000000e+00
 0.00000000e+00 0.00000000e+00 0.00000000e+00 0.00000000e+00
 0.00000000e+00 0.00000000e+00 7.79417084e-06 1.01564232e-14
 0.00000000e+00 0.00000000e+00 0.00000000e+00 1.01508086e-02]"
1786901022.9688663,1.023759629975486e-12,-3.9289759762609595e-25,-1.3886669592011458e-12,"[9.99987965e-03 1.38849877e-19 0.00000000e+00 0.00000000e+00
 0.00000000e+00 7.79470179e-06 1.38849877e-19 9.99230592e-03
 0.00000000e+00 0.00000000e+00 0.00000000e+00 1.02611073e-14
 0.00000000e+00 0.00000000e+00 0.00000000e+00 0.00000000e+00
 0.00000000e+00 0.00000000e+00 0.00000000e+00 0.00000000e+00
 0.00000000e+00 0.00000000e+00 0.00000000e+00 0.00000000e+00
 0.00000000e+00 0.00000000e+00 0.00000000e+00 0.00000000e+00
 0.00000000e+00 0.00000000e+00 7.79470179e-06 1.02611073e-14
 0.00000000e+00 0.00000000e+00 0.00000000e+00 1.01506197e-02]"
1786901023.039122,1.0293053481959624e-12,-4.00594623622709e-25,-1.3962164757685969e-12,"[9.99978012e-03 1.81433112e-19 0.00000000e+00 0.00000000e+00
 0.00000000e+00 7.79501910e-06 1.81433112e-19 9.99220608e-03
 0.00000000e+00 0.00000000e+00 0.00000000e+00 1.03172956e-14
 0.00000000e+00 0.00000000e+00 0.00000000e+00 0.00000000e+00
 0.00000000e+00 0.00000000e+00 0.00000000e+00 0.00000000e+00
 0.00000000e+00 0.00000000e+00 0.00000000e+00 0.00000000e+00
 0.00000000e+00 0.00000000e+00 0.00000000e+00 0.00000000e+00
 0.00000000e+00 0.00000000e+00 7.79501910e-06 1.03172956e-14
 0.00000000e+00 0.00000000e+00 0.00000000e+00 1.01505263e-02]"
1786901023.0698793,1.0396826617773e-12,-4.151100800906695e-25,-1.4099832412739488e-12,"[9.99958094e-03 2.61183922e-19 0.00000000e+00 0.00000000e+00
 0.00000000e+00 7.79553707e-06 2.61183922e-19 9.99200639e-03
 0.00000000e+00 0.00000000e+00 0.00000000e+00 1.04224207e-14
 0.00000000e+00 0.00000000e+00 0.00000000e+00 0.00000000e+00
 0.00000000e+00 0.00000000e+00 0.00000000e+00 0.00000000e+00
 0.00000000e+00 0.00000000e+00 0.00000000e+00 0.00000000e+00
 0.00000000e+00 0.00000000e+00 0.00000000e+00 0.00000000e+00
 0.00000000e+00 0.00000000e+00 7.79553707e-06 1.04224207e-14
 0.00000000e+00 0.00000000e+00 0.00000000e+00 1.01503372e-02]"
1786901023.1214266,1.0455260784952937e-12,-4.233448373353658e-25,-1.4175327578413999e-12,"[9.99948146e-03 3.06006603e-19 0.00000000e+00 0.00000000e+00
 0.00000000e+00 7.79590806e-06 3.06006603e-19 9.99190656e-03
 0.00000000e+00 0.00000000e+00 0.00000000e+00 1.04816275e-14
 0.00000000e+00 0.00000000e+00 0.00000000e+00 0.00000000e+00
 0.00000000e+00 0.00000000e+00 0.00000000e+00 0.00000000e+00
 0.00000000e+00 0.00000000e+00 0.00000000e+00 0.00000000e+00
 0.00000000e+00 0.00000000e+00 0.00000000e+00 0.00000000e+00
 0.00000000e+00 0.00000000e+00 7.79590806e-06 1.04816275e-14
 0.00000000e+00 0.00000000e+00 0.00000000e+00 1.01502449e-02]"
1786901023.16944,1.0555807811747165e-12,-4.376230900690351e-25,-1.4308554341369017e-12,"[9.99928226e-03 3.83284235e-19 0.00000000e+00 0.00000000e+00
 0.00000000e+00 7.79638587e-06 3.83284235e-19 9.99170688e-03
 0.00000000e+00 0.00000000e+00 0.00000000e+00 1.05834718e-14
 0.00000000e+00 0.00000000e+00 0.00000000e+00 0.00000000e+00
 0.00000000e+00 0.00000000e+00 0.00000000e+00 0.00000000e+00
 0.00000000e+00 0.00000000e+00 0.00000000e+00 0.00000000e+00
 0.00000000e+00 0.00000000e+00 0.00000000e+00 0.00000000e+00
 0.00000000e+00 0.00000000e+00 7.79638587e-06 1.05834718e-14
 0.00000000e+00 0.00000000e+00 0.00000000e+00 1.01500549e-02]"
1786901023.221004,1.0614080962105597e-12,-4.459565417261608e-25,-1.4384049507043528e-12,"[9.99918278e-03 4.27973651e-19 0.00000000e+00 0.00000000e+00
 0.00000000e+00 7.79675651e-06 4.27973651e-19 9.99160705e-03
 0.00000000e+00 0.00000000e+00 0.00000000e+00 1.06425118e-14
 0.00000000e+00 0.00000000e+00 0.00000000e+00 0.00000000e+00
 0.00000000e+00 0.00000000e+00 0.00000000e+00 0.00000000e+00
 0.00000000e+00 0.00000000e+00 0.00000000e+00 0.00000000e+00
 0.00000000e+00 0.00000000e+00 0.00000000e+00 0.00000000e+00
 0.00000000e+00 0.00000000e+00 7.79675651e-06 1.06425118e-14
 0.00000000e+00 0.00000000e+00 0.00000000e+00 1.01499626e-02]"
1786901023.2694316,1.0711119340571699e-12,-4.599363527818785e-25,-1.4512835377900046e-12,"[9.99898354e-03 5.02583509e-19 0.00000000e+00 0.00000000e+00
 0.00000000e+00 7.79717726e-06 5.02583509e-19 9.99140739e-03
 0.00000000e+00 0.00000000e+00 0.00000000e+00 1.07407889e-14
 0.00000000e+00 0.00000000e+00 0.00000000e+00 0.00000000e+00
 0.00000000e+00 0.00000000e+00 0.00000000e+00 0.00000000e+00
 0.00000000e+00 0.00000000e+00 0.00000000e+00 0.00000000e+00
 0.00000000e+00 0.00000000e+00 0.00000000e+00 0.00000000e+00
 0.00000000e+00 0.00000000e+00 7.79717726e-06 1.07407889e-14
 0.00000000e+00 0.00000000e+00 0.00000000e+00 1.01497715e-02]"
1786901023.3214655,1.0763376876315079e-12,-4.675155933833321e-25,-1.4583889651476056e-12,"[9.99888397e-03 5.42716529e-19 0.00000000e+00 0.00000000e+00
 0.00000000e+00 7.79744700e-06 5.42716529e-19 9.99130756e-03
 0.00000000e+00 0.00000000e+00 0.00000000e+00 1.07937202e-14
 0.00000000e+00 0.00000000e+00 0.00000000e+00 0.00000000e+00
 0.00000000e+00 0.00000000e+00 0.00000000e+00 0.00000000e+00
 0.00000000e+00 0.00000000e+00 0.00000000e+00 0.00000000e+00
 0.00000000e+00 0.00000000e+00 0.00000000e+00 0.00000000e+00
 0.00000000e+00 0.00000000e+00 7.79744700e-06 1.07937202e-14
 0.00000000e+00 0.00000000e+00 0.00000000e+00 1.01496771e-02]"
1786901023.369656,1.0806014979730072e-12,-4.737167578665712e-25,-1.4654943925052066e-12,"[9.99868486e-03 5.74713594e-19 0.00000000e+00 0.00000000e+00
 0.00000000e+00 7.79799564e-06 5.74713594e-19 9.99110791e-03
 0.00000000e+00 0.00000000e+00 0.00000000e+00 1.08367778e-14
 0.00000000e+00 0.00000000e+00 0.00000000e+00 0.00000000e+00
 0.00000000e+00 0.00000000e+00 0.00000000e+00 0.00000000e+00
 0.00000000e+00 0.00000000e+00 0.00000000e+00 0.00000000e+00
 0.00000000e+00 0.00000000e+00 0.00000000e+00 0.00000000e+00
 0.00000000e+00 0.00000000e+00 7.79799564e-06 1.08367778e-14
 0.00000000e+00 0.00000000e+00 0.00000000e+00 1.01494886e-02]"
1786901023.4184215,1.0784967705312915e-12,-4.706227466807691e-25,-1.4654943925052066e-12,"[9.99848574e-03 5.57065341e-19 0.00000000e+00 0.00000000e+00
 0.00000000e+00 7.79853267e-06 5.57065341e-19 9.99090827e-03
 0.00000000e+00 0.00000000e+00 0.00000000e+00 1.08151976e-14
 0.00000000e+00 0.00000000e+00 0.00000000e+00 0.00000000e+00
 0.00000000e+00 0.00000000e+00 0.00000000e+00 0.00000000e+00
 0.00000000e+00 0.00000000e+00 0.00000000e+00 0.00000000e+00
 0.00000000e+00 0.00000000e+00 0.00000000e+00 0.00000000e+00
 0.00000000e+00 0.00000000e+00 7.79853267e-06 1.08151976e-14
 0.00000000e+00 0.00000000e+00 0.00000000e+00 1.01492999e-02]"
1786901023.4684503,1.0774246497560445e-12,-4.690468108780024e-25,-1.4654943925052066e-12,"[9.99838620e-03 5.48063891e-19 0.00000000e+00 0.00000000e+00
 0.00000000e+00 7.79881740e-06 5.48063891e-19 9.99080846e-03
 0.00000000e+00 0.00000000e+00 0.00000000e+00 1.08042073e-14
 0.00000000e+00 0.00000000e+00 0.00000000e+00 0.00000000e+00
 0.00000000e+00 0.00000000e+00 0.00000000e+00 0.00000000e+00
 0.00000000e+00 0.00000000e+00 0.00000000e+00 0.00000000e+00
 0.00000000e+00 0.00000000e+00 0.00000000e+00 0.00000000e+00
 0.00000000e+00 0.00000000e+00 7.79881740e-06 1.08042073e-14
 0.00000000e+00 0.00000000e+00 0.00000000e+00 1.01492059e-02]"
1786901023.5183873,1.0753246913095169e-12,-4.659598830499649e-25,-1.4654943925052066e-12,"[9.99818709e-03 5.30457599e-19 0.00000000e+00 0.00000000e+00
 0.00000000e+00 7.79935061e-06 5.30457599e-19 9.99060883e-03
 0.00000000e+00 0.00000000e+00 0.00000000e+00 1.07826769e-14
 0.00000000e+00 0.00000000e+00 0.00000000e+00 0.00000000e+00
 0.00000000e+00 0.00000000e+00 0.00000000e+00 0.00000000e+00
 0.00000000e+00 0.00000000e+00 0.00000000e+00 0.00000000e+00
 0.00000000e+00 0.00000000e+00 0.00000000e+00 0.00000000e+00
 0.00000000e+00 0.00000000e+00 7.79935061e-06 1.07826769e-14
 0.00000000e+00 0.00000000e+00 0.00000000e+00 1.01490171e-02]"
1786901023.569297,1.074024833654711e-12,-4.640502509114154e-25,-1.4654943925052066e-12,"[9.99808776e-03 5.19380294e-19 0.00000000e+00 0.00000000e+00
 0.00000000e+00 7.79984555e-06 5.19380294e-19 9.99050902e-03
 0.00000000e+00 0.00000000e+00 0.00000000e+00 1.07693756e-14
 0.00000000e+00 0.00000000e+00 0.00000000e+00 0.00000000e+00
 0.00000000e+00 0.00000000e+00 0.00000000e+00 0.00000000e+00
 0.00000000e+00 0.00000000e+00 0.00000000e+00 0.00000000e+00
 0.00000000e+00 0.00000000e+00 0.00000000e+00 0.00000000e+00
 0.00000000e+00 0.00000000e+00 7.79984555e-06 1.07693756e-14
 0.00000000e+00 0.00000000e+00 0.00000000e+00 1.01489273e-02]"
1786901023.6189232,1.0732200237242942e-12,-4.628661204854105e-25,-1.4654943925052066e-12,"[9.99798804e-03 5.12740012e-19 0.00000000e+00 0.00000000e+00
 0.00000000e+00 7.79993582e-06 5.12740012e-19 9.99040921e-03
 0.00000000e+00 0.00000000e+00 0.00000000e+00 1.07610993e-14
 0.00000000e+00 0.00000000e+00 0.00000000e+00 0.00000000e+00
 0.00000000e+00 0.00000000e+00 0.00000000e+00 0.00000000e+00
 0.00000000e+00 0.00000000e+00 0.00000000e+00 0.00000000e+00
 0.00000000e+00 0.00000000e+00 0.00000000e+00 0.00000000e+00
 0.00000000e+00 0.00000000e+00 7.79993582e-06 1.07610993e-14
 0.00000000e+00 0.00000000e+00 0.00000000e+00 1.01488293e-02]"
1786901023.6714146,1.0710397356381646e-12,-4.596616009565177e-25,-1.4654943925052066e-12,"[9.99778906e-03 4.94347522e-19 0.00000000e+00 0.00000000e+00
 0.00000000e+00 7.80058037e-06 4.94347522e-19 9.99020959e-03
 0.00000000e+00 0.00000000e+00 0.00000000e+00 1.07387551e-14
 0.00000000e+00 0.00000000e+00 0.00000000e+00 0.00000000e+00
 0.00000000e+00 0.00000000e+00 0.00000000e+00 0.00000000e+00
 0.00000000e+00 0.00000000e+00 0.00000000e+00 0.00000000e+00
 0.00000000e+00 0.00000000e+00 0.00000000e+00 0.00000000e+00
 0.00000000e+00 0.00000000e+00 7.80058037e-06 1.07387551e-14
 0.00000000e+00 0.00000000e+00 0.00000000e+00 1.01486428e-02]"
1786901023.7198877,1.07004720997334e-12,-4.582024215814308e-25,-1.4654943925052066e-12,"[9.99768947e-03 4.86057251e-19 0.00000000e+00 0.00000000e+00
 0.00000000e+00 7.80080100e-06 4.86057251e-19 9.99010979e-03
 0.00000000e+00 0.00000000e+00 0.00000000e+00 1.07285742e-14
 0.00000000e+00 0.00000000e+00 0.00000000e+00 0.00000000e+00
 0.00000000e+00 0.00000000e+00 0.00000000e+00 0.00000000e+00
 0.00000000e+00 0.00000000e+00 0.00000000e+00 0.00000000e+00
 0.00000000e+00 0.00000000e+00 0.00000000e+00 0.00000000e+00
 0.00000000e+00 0.00000000e+00 7.80080100e-06 1.07285742e-14
 0.00000000e+00 0.00000000e+00 0.00000000e+00 1.01485475e-02]"
1786901023.7722433,1.0744749374773765e-12,-4.646818239689441e-25,-1.4730439090726577e-12,"[9.99749050e-03 5.19207330e-19 0.00000000e+00 0.00000000e+00
 0.00000000e+00 7.80144947e-06 5.19207330e-19 9.98991019e-03
 0.00000000e+00 0.00000000e+00 0.00000000e+00 1.07732917e-14
 0.00000000e+00 0.00000000e+00 0.00000000e+00 0.00000000e+00
 0.00000000e+00 0.00000000e+00 0.00000000e+00 0.00000000e+00
 0.00000000e+00 0.00000000e+00 0.00000000e+00 0.00000000e+00
 0.00000000e+00 0.00000000e+00 0.00000000e+00 0.00000000e+00
 0.00000000e+00 0.00000000e+00 7.80144947e-06 1.07732917e-14
 0.00000000e+00 0.00000000e+00 0.00000000e+00 1.01483611e-02]"
1786901023.8255115,1.0792560620636246e-12,-4.71719787222422e-25,-1.4792611580105586e-12,"[9.99739090e-03 5.55984222e-19 0.00000000e+00 0.00000000e+00
 0.00000000e+00 7.80164956e-06 5.55984222e-19 9.98981039e-03
 0.00000000e+00 0.00000000e+00 0.00000000e+00 1.08217032e-14
 0.00000000e+00 0.00000000e+00 0.00000000e+00 0.00000000e+00
 0.00000000e+00 0.00000000e+00 0.00000000e+00 0.00000000e+00
 0.00000000e+00 0.00000000e+00 0.00000000e+00 0.00000000e+00
 0.00000000e+00 0.00000000e+00 0.00000000e+00 0.00000000e+00
 0.00000000e+00 0.00000000e+00 7.80164956e-06 1.08217032e-14
 0.00000000e+00 0.00000000e+00 0.00000000e+00 1.01482653e-02]"
1786901023.8751855,1.0896204071052688e-12,-4.870768256224915e-25,-1.4930279235159105e-12,"[9.99719182e-03 6.35612957e-19 0.00000000e+00 0.00000000e+00
 0.00000000e+00 7.80217245e-06 6.35612957e-19 9.98961080e-03
 0.00000000e+00 0.00000000e+00 0.00000000e+00 1.09266629e-14
 0.00000000e+00 0.00000000e+00 0.00000000e+00 0.00000000e+00
 0.00000000e+00 0.00000000e+00 0.00000000e+00 0.00000000e+00
 0.00000000e+00 0.00000000e+00 0.00000000e+00 0.00000000e+00
 0.00000000e+00 0.00000000e+00 0.00000000e+00 0.00000000e+00
 0.00000000e+00 0.00000000e+00 7.80217245e-06 1.09266629e-14
 0.00000000e+00 0.00000000e+00 0.00000000e+00 1.01480764e-02]"
1786901023.9191804,1.0955104887051278e-12,-4.958657724866992e-25,-1.5010215292932116e-12,"[9.99709240e-03 6.80772802e-19 0.00000000e+00 0.00000000e+00
 0.00000000e+00 7.80255406e-06 6.80772802e-19 9.98951101e-03
 0.00000000e+00 0.00000000e+00 0.00000000e+00 1.09863249e-14
 0.00000000e+00 0.00000000e+00 0.00000000e+00 0.00000000e+00
 0.00000000e+00 0.00000000e+00 0.00000000e+00 0.00000000e+00
 0.00000000e+00 0.00000000e+00 0.00000000e+00 0.00000000e+00
 0.00000000e+00 0.00000000e+00 0.00000000e+00 0.00000000e+00
 0.00000000e+00 0.00000000e+00 7.80255406e-06 1.09863249e-14
 0.00000000e+00 0.00000000e+00 0.00000000e+00 1.01479843e-02]"
1786901023.9708238,1.1052857078570952e-12,-5.105602398269542e-25,-1.5139001163788635e-12,"[9.99689325e-03 7.55929168e-19 0.00000000e+00 0.00000000e+00
 0.00000000e+00 7.80298262e-06 7.55929168e-19 9.98931144e-03
 0.00000000e+00 0.00000000e+00 0.00000000e+00 1.10853001e-14
 0.00000000e+00 0.00000000e+00 0.00000000e+00 0.00000000e+00
 0.00000000e+00 0.00000000e+00 0.00000000e+00 0.00000000e+00
 0.00000000e+00 0.00000000e+00 0.00000000e+00 0.00000000e+00
 0.00000000e+00 0.00000000e+00 0.00000000e+00 0.00000000e+00
 0.00000000e+00 0.00000000e+00 7.80298262e-06 1.10853001e-14
 0.00000000e+00 0.00000000e+00 0.00000000e+00 1.01477935e-02]"
1786901024.0185773,1.1106744118168832e-12,-5.187128660147084e-25,-1.5210055437364645e-12,"[9.99679375e-03 7.97300235e-19 0.00000000e+00 0.00000000e+00
 0.00000000e+00 7.80327450e-06 7.97300235e-19 9.98921165e-03
 0.00000000e+00 0.00000000e+00 0.00000000e+00 1.11398711e-14
 0.00000000e+00 0.00000000e+00 0.00000000e+00 0.00000000e+00
 0.00000000e+00 0.00000000e+00 0.00000000e+00 0.00000000e+00
 0.00000000e+00 0.00000000e+00 0.00000000e+00 0.00000000e+00
 0.00000000e+00 0.00000000e+00 0.00000000e+00 0.00000000e+00
 0.00000000e+00 0.00000000e+00 7.80327450e-06 1.11398711e-14
 0.00000000e+00 0.00000000e+00 0.00000000e+00 1.01476996e-02]"
1786901024.0719836,1.1213871302793697e-12,-5.350347532649983e-25,-1.5352163984516665e-12,"[9.99659474e-03 8.79547351e-19 0.00000000e+00 0.00000000e+00
 0.00000000e+00 7.80384675e-06 8.79547351e-19 9.98901209e-03
 0.00000000e+00 0.00000000e+00 0.00000000e+00 1.12483535e-14
 0.00000000e+00 0.00000000e+00 0.00000000e+00 0.00000000e+00
 0.00000000e+00 0.00000000e+00 0.00000000e+00 0.00000000e+00
 0.00000000e+00 0.00000000e+00 0.00000000e+00 0.00000000e+00
 0.00000000e+00 0.00000000e+00 0.00000000e+00 0.00000000e+00
 0.00000000e+00 0.00000000e+00 7.80384675e-06 1.12483535e-14
 0.00000000e+00 0.00000000e+00 0.00000000e+00 1.01475117e-02]"
1786901024.121575,1.127933679671582e-12,-5.450795001786336e-25,-1.5440981826486677e-12,"[9.99649545e-03 9.29630995e-19 0.00000000e+00 0.00000000e+00
 0.00000000e+00 7.80435029e-06 9.29630995e-19 9.98891231e-03
 0.00000000e+00 0.00000000e+00 0.00000000e+00 1.13146702e-14
 0.00000000e+00 0.00000000e+00 0.00000000e+00 0.00000000e+00
 0.00000000e+00 0.00000000e+00 0.00000000e+00 0.00000000e+00
 0.00000000e+00 0.00000000e+00 0.00000000e+00 0.00000000e+00
 0.00000000e+00 0.00000000e+00 0.00000000e+00 0.00000000e+00
 0.00000000e+00 0.00000000e+00 7.80435029e-06 1.13146702e-14
 0.00000000e+00 0.00000000e+00 0.00000000e+00 1.01474221e-02]"
1786901024.1722343,1.137706609801474e-12,-5.601900293903023e-25,-1.5574208589441696e-12,"[9.99629634e-03 1.00470622e-18 0.00000000e+00 0.00000000e+00
 0.00000000e+00 7.80480483e-06 1.00470622e-18 9.98871275e-03
 0.00000000e+00 0.00000000e+00 0.00000000e+00 1.14136099e-14
 0.00000000e+00 0.00000000e+00 0.00000000e+00 0.00000000e+00
 0.00000000e+00 0.00000000e+00 0.00000000e+00 0.00000000e+00
 0.00000000e+00 0.00000000e+00 0.00000000e+00 0.00000000e+00
 0.00000000e+00 0.00000000e+00 0.00000000e+00 0.00000000e+00
 0.00000000e+00 0.00000000e+00 7.80480483e-06 1.14136099e-14
 0.00000000e+00 0.00000000e+00 0.00000000e+00 1.01472318e-02]"
1786901024.2182627,1.1423224298775195e-12,-5.673729829013038e-25,-1.5636381078820705e-12,"[9.99619674e-03 1.04021388e-18 0.00000000e+00 0.00000000e+00
 0.00000000e+00 7.80497584e-06 1.04021388e-18 9.98861298e-03
 0.00000000e+00 0.00000000e+00 0.00000000e+00 1.14603322e-14
 0.00000000e+00 0.00000000e+00 0.00000000e+00 0.00000000e+00
 0.00000000e+00 0.00000000e+00 0.00000000e+00 0.00000000e+00
 0.00000000e+00 0.00000000e+00 0.00000000e+00 0.00000000e+00
 0.00000000e+00 0.00000000e+00 0.00000000e+00 0.00000000e+00
 0.00000000e+00 0.00000000e+00 7.80497584e-06 1.14603322e-14
 0.00000000e+00 0.00000000e+00 0.00000000e+00 1.01471355e-02]"
1786901024.2723217,1.1532263405610255e-12,-5.844489133159778e-25,-1.5778489625972725e-12,"[9.99599778e-03 1.12387971e-18 0.00000000e+00 0.00000000e+00
 0.00000000e+00 7.80557775e-06 1.12387971e-18 9.98841344e-03
 0.00000000e+00 0.00000000e+00 0.00000000e+00 1.15707420e-14
 0.00000000e+00 0.00000000e+00 0.00000000e+00 0.00000000e+00
 0.00000000e+00 0.00000000e+00 0.00000000e+00 0.00000000e+00
 0.00000000e+00 0.00000000e+00 0.00000000e+00 0.00000000e+00
 0.00000000e+00 0.00000000e+00 0.00000000e+00 0.00000000e+00
 0.00000000e+00 0.00000000e+00 7.80557775e-06 1.15707420e-14
 0.00000000e+00 0.00000000e+00 0.00000000e+00 1.01469482e-02]"
1786901024.3212838,1.1582757018576382e-12,-5.924099607811627e-25,-1.5845103007450234e-12,"[9.99589824e-03 1.16266828e-18 0.00000000e+00 0.00000000e+00
 0.00000000e+00 7.80581249e-06 1.16266828e-18 9.98831367e-03
 0.00000000e+00 0.00000000e+00 0.00000000e+00 1.16218603e-14
 0.00000000e+00 0.00000000e+00 0.00000000e+00 0.00000000e+00
 0.00000000e+00 0.00000000e+00 0.00000000e+00 0.00000000e+00
 0.00000000e+00 0.00000000e+00 0.00000000e+00 0.00000000e+00
 0.00000000e+00 0.00000000e+00 0.00000000e+00 0.00000000e+00
 0.00000000e+00 0.00000000e+00 7.80581249e-06 1.16218603e-14
 0.00000000e+00 0.00000000e+00 0.00000000e+00 1.01468532e-02]"
1786901024.3712547,1.1689498774912084e-12,-6.093483507340277e-25,-1.5987211554602254e-12,"[9.99569926e-03 1.24458608e-18 0.00000000e+00 0.00000000e+00
 0.00000000e+00 7.80637565e-06 1.24458608e-18 9.98811414e-03
 0.00000000e+00 0.00000000e+00 0.00000000e+00 1.17299328e-14
 0.00000000e+00 0.00000000e+00 0.00000000e+00 0.00000000e+00
 0.00000000e+00 0.00000000e+00 0.00000000e+00 0.00000000e+00
 0.00000000e+00 0.00000000e+00 0.00000000e+00 0.00000000e+00
 0.00000000e+00 0.00000000e+00 0.00000000e+00 0.00000000e+00
 0.00000000e+00 0.00000000e+00 7.80637565e-06 1.17299328e-14
 0.00000000e+00 0.00000000e+00 0.00000000e+00 1.01466651e-02]"
1786901024.4260776,1.1745836901128718e-12,-6.183488884603349e-25,-1.6062706720276765e-12,"[9.99559983e-03 1.28778259e-18 0.00000000e+00 0.00000000e+00
 0.00000000e+00 7.80670569e-06 1.28778259e-18 9.98801438e-03
 0.00000000e+00 0.00000000e+00 0.00000000e+00 1.17869781e-14
 0.00000000e+00 0.00000000e+00 0.00000000e+00 0.00000000e+00
 0.00000000e+00 0.00000000e+00 0.00000000e+00 0.00000000e+00
 0.00000000e+00 0.00000000e+00 0.00000000e+00 0.00000000e+00
 0.00000000e+00 0.00000000e+00 0.00000000e+00 0.00000000e+00
 0.00000000e+00 0.00000000e+00 7.80670569e-06 1.17869781e-14
 0.00000000e+00 0.00000000e+00 0.00000000e+00 1.01465720e-02]"
1786901024.4790454,1.1846812179565644e-12,-6.3458887496669175e-25,-1.6195933483231784e-12,"[9.99540077e-03 1.36532822e-18 0.00000000e+00 0.00000000e+00
 0.00000000e+00 7.80717736e-06 1.36532822e-18 9.98781487e-03
 0.00000000e+00 0.00000000e+00 0.00000000e+00 1.18891934e-14
 0.00000000e+00 0.00000000e+00 0.00000000e+00 0.00000000e+00
 0.00000000e+00 0.00000000e+00 0.00000000e+00 0.00000000e+00
 0.00000000e+00 0.00000000e+00 0.00000000e+00 0.00000000e+00
 0.00000000e+00 0.00000000e+00 0.00000000e+00 0.00000000e+00
 0.00000000e+00 0.00000000e+00 7.80717736e-06 1.18891934e-14
 0.00000000e+00 0.00000000e+00 0.00000000e+00 1.01463821e-02]"
1786901024.5260599,1.189746933928861e-12,-6.427866776911659e-25,-1.6262546864709293e-12,"[9.99530124e-03 1.40422833e-18 0.00000000e+00 0.00000000e+00
 0.00000000e+00 7.80741426e-06 1.40422833e-18 9.98771511e-03
 0.00000000e+00 0.00000000e+00 0.00000000e+00 1.19404716e-14
 0.00000000e+00 0.00000000e+00 0.00000000e+00 0.00000000e+00
 0.00000000e+00 0.00000000e+00 0.00000000e+00 0.00000000e+00
 0.00000000e+00 0.00000000e+00 0.00000000e+00 0.00000000e+00
 0.00000000e+00 0.00000000e+00 0.00000000e+00 0.00000000e+00
 0.00000000e+00 0.00000000e+00 7.80741426e-06 1.19404716e-14
 0.00000000e+00 0.00000000e+00 0.00000000e+00 1.01462872e-02]"
1786901024.5712032,1.2011153569606572e-12,-6.613028092451038e-25,-1.6413537196058314e-12,"[9.99510241e-03 1.49134657e-18 0.00000000e+00 0.00000000e+00
 0.00000000e+00 7.80809896e-06 1.49134657e-18 9.98751561e-03
 0.00000000e+00 0.00000000e+00 0.00000000e+00 1.20555752e-14
 0.00000000e+00 0.00000000e+00 0.00000000e+00 0.00000000e+00
 0.00000000e+00 0.00000000e+00 0.00000000e+00 0.00000000e+00
 0.00000000e+00 0.00000000e+00 0.00000000e+00 0.00000000e+00
 0.00000000e+00 0.00000000e+00 0.00000000e+00 0.00000000e+00
 0.00000000e+00 0.00000000e+00 7.80809896e-06 1.20555752e-14
 0.00000000e+00 0.00000000e+00 0.00000000e+00 1.01461016e-02]"
1786901024.6394644,1.2057526221866835e-12,-6.689073428168394e-25,-1.6475709685437323e-12,"[9.99500283e-03 1.52699632e-18 0.00000000e+00 0.00000000e+00
 0.00000000e+00 7.80827243e-06 1.52699632e-18 9.98741586e-03
 0.00000000e+00 0.00000000e+00 0.00000000e+00 1.21025033e-14
 0.00000000e+00 0.00000000e+00 0.00000000e+00 0.00000000e+00
 0.00000000e+00 0.00000000e+00 0.00000000e+00 0.00000000e+00
 0.00000000e+00 0.00000000e+00 0.00000000e+00 0.00000000e+00
 0.00000000e+00 0.00000000e+00 0.00000000e+00 0.00000000e+00
 0.00000000e+00 0.00000000e+00 7.80827243e-06 1.21025033e-14
 0.00000000e+00 0.00000000e+00 0.00000000e+00 1.01460053e-02]"
1786901024.6713276,1.2141049008635984e-12,-6.826612558466667e-25,-1.6586731987899839e-12,"[9.99490397e-03 1.59046670e-18 0.00000000e+00 0.00000000e+00
 0.00000000e+00 7.80918593e-06 1.59046670e-18 9.98731611e-03
 0.00000000e+00 0.00000000e+00 0.00000000e+00 1.21871214e-14
 0.00000000e+00 0.00000000e+00 0.00000000e+00 0.00000000e+00
 0.00000000e+00 0.00000000e+00 0.00000000e+00 0.00000000e+00
 0.00000000e+00 0.00000000e+00 0.00000000e+00 0.00000000e+00
 0.00000000e+00 0.00000000e+00 0.00000000e+00 0.00000000e+00
 0.00000000e+00 0.00000000e+00 7.80918593e-06 1.21871214e-14
 0.00000000e+00 0.00000000e+00 0.00000000e+00 1.01459242e-02]"
1786901024.7198503,1.2215299425317022e-12,-6.949803402125818e-25,-1.6684431614066852e-12,"[9.99470460e-03 1.64767566e-18 0.00000000e+00 0.00000000e+00
 0.00000000e+00 7.80931053e-06 1.64767566e-18 9.98711662e-03
 0.00000000e+00 0.00000000e+00 0.00000000e+00 1.22622084e-14
 0.00000000e+00 0.00000000e+00 0.00000000e+00 0.00000000e+00
 0.00000000e+00 0.00000000e+00 0.00000000e+00 0.00000000e+00
 0.00000000e+00 0.00000000e+00 0.00000000e+00 0.00000000e+00
 0.00000000e+00 0.00000000e+00 0.00000000e+00 0.00000000e+00
 0.00000000e+00 0.00000000e+00 7.80931053e-06 1.22622084e-14
 0.00000000e+00 0.00000000e+00 0.00000000e+00 1.01457272e-02]"
1786901024.7734003,1.2325773391821124e-12,-7.134392307177518e-25,-1.6830981053317373e-12,"[9.99450573e-03 1.73235250e-18 0.00000000e+00 0.00000000e+00
 0.00000000e+00 7.80993638e-06 1.73235250e-18 9.98691714e-03
 0.00000000e+00 0.00000000e+00 0.00000000e+00 1.23740422e-14
 0.00000000e+00 0.00000000e+00 0.00000000e+00 0.00000000e+00
 0.00000000e+00 0.00000000e+00 0.00000000e+00 0.00000000e+00
 0.00000000e+00 0.00000000e+00 0.00000000e+00 0.00000000e+00
 0.00000000e+00 0.00000000e+00 0.00000000e+00 0.00000000e+00
 0.00000000e+00 0.00000000e+00 7.80993638e-06 1.23740422e-14
 0.00000000e+00 0.00000000e+00 0.00000000e+00 1.01455404e-02]"
1786901024.8198984,1.2382606830528472e-12,-7.229974275439323e-25,-1.6906476218991884e-12,"[9.99440633e-03 1.77588757e-18 0.00000000e+00 0.00000000e+00
 0.00000000e+00 7.81027772e-06 1.77588757e-18 9.98681740e-03
 0.00000000e+00 0.00000000e+00 0.00000000e+00 1.24315771e-14
 0.00000000e+00 0.00000000e+00 0.00000000e+00 0.00000000e+00
 0.00000000e+00 0.00000000e+00 0.00000000e+00 0.00000000e+00
 0.00000000e+00 0.00000000e+00 0.00000000e+00 0.00000000e+00
 0.00000000e+00 0.00000000e+00 0.00000000e+00 0.00000000e+00
 0.00000000e+00 0.00000000e+00 7.81027772e-06 1.24315771e-14
 0.00000000e+00 0.00000000e+00 0.00000000e+00 1.01454476e-02]"
1786901024.8932834,1.2431647745295053e-12,-7.312810159150893e-25,-1.6973089600469393e-12,"[9.99430680e-03 1.81354217e-18 0.00000000e+00 0.00000000e+00
 0.00000000e+00 7.81049232e-06 1.81354217e-18 9.98671767e-03
 0.00000000e+00 0.00000000e+00 0.00000000e+00 1.24812053e-14
 0.00000000e+00 0.00000000e+00 0.00000000e+00 0.00000000e+00
 0.00000000e+00 0.00000000e+00 0.00000000e+00 0.00000000e+00
 0.00000000e+00 0.00000000e+00 0.00000000e+00 0.00000000e+00
 0.00000000e+00 0.00000000e+00 0.00000000e+00 0.00000000e+00
 0.00000000e+00 0.00000000e+00 7.81049232e-06 1.24812053e-14
 0.00000000e+00 0.00000000e+00 0.00000000e+00 1.01453522e-02]"
1786901024.919023,1.253293434258009e-12,-7.484917448653836e-25,-1.7110757255522913e-12,"[9.99410781e-03 1.89125233e-18 0.00000000e+00 0.00000000e+00
 0.00000000e+00 7.81097922e-06 1.89125233e-18 9.98651820e-03
 0.00000000e+00 0.00000000e+00 0.00000000e+00 1.25837100e-14
 0.00000000e+00 0.00000000e+00 0.00000000e+00 0.00000000e+00
 0.00000000e+00 0.00000000e+00 0.00000000e+00 0.00000000e+00
 0.00000000e+00 0.00000000e+00 0.00000000e+00 0.00000000e+00
 0.00000000e+00 0.00000000e+00 0.00000000e+00 0.00000000e+00
 0.00000000e+00 0.00000000e+00 7.81097922e-06 1.25837100e-14
 0.00000000e+00 0.00000000e+00 0.00000000e+00 1.01451627e-02]"
1786901024.9716384,1.2639843710142053e-12,-7.6680626748405145e-25,-1.7252865802674933e-12,"[9.99390891e-03 1.97320597e-18 0.00000000e+00 0.00000000e+00
 0.00000000e+00 7.81155027e-06 1.97320597e-18 9.98631874e-03
 0.00000000e+00 0.00000000e+00 0.00000000e+00 1.26919148e-14
 0.00000000e+00 0.00000000e+00 0.00000000e+00 0.00000000e+00
 0.00000000e+00 0.00000000e+00 0.00000000e+00 0.00000000e+00
 0.00000000e+00 0.00000000e+00 0.00000000e+00 0.00000000e+00
 0.00000000e+00 0.00000000e+00 0.00000000e+00 0.00000000e+00
 0.00000000e+00 0.00000000e+00 7.81155027e-06 1.26919148e-14
 0.00000000e+00 0.00000000e+00 0.00000000e+00 1.01449748e-02]"
1786901025.0243244,1.2692625253933351e-12,-7.759046321243647e-25,-1.7323920076250943e-12,"[9.99380946e-03 2.01367121e-18 0.00000000e+00 0.00000000e+00
 0.00000000e+00 7.81182514e-06 2.01367121e-18 9.98621902e-03
 0.00000000e+00 0.00000000e+00 0.00000000e+00 1.27453328e-14
 0.00000000e+00 0.00000000e+00 0.00000000e+00 0.00000000e+00
 0.00000000e+00 0.00000000e+00 0.00000000e+00 0.00000000e+00
 0.00000000e+00 0.00000000e+00 0.00000000e+00 0.00000000e+00
 0.00000000e+00 0.00000000e+00 0.00000000e+00 0.00000000e+00
 0.00000000e+00 0.00000000e+00 7.81182514e-06 1.27453328e-14
 0.00000000e+00 0.00000000e+00 0.00000000e+00 1.01448807e-02]"
1786901025.0697207,1.2793069920726272e-12,-7.9332250013530945e-25,-1.7457146839205961e-12,"[9.99361047e-03 2.09073059e-18 0.00000000e+00 0.00000000e+00
 0.00000000e+00 7.81229526e-06 2.09073059e-18 9.98601957e-03
 0.00000000e+00 0.00000000e+00 0.00000000e+00 1.28469733e-14
 0.00000000e+00 0.00000000e+00 0.00000000e+00 0.00000000e+00
 0.00000000e+00 0.00000000e+00 0.00000000e+00 0.00000000e+00
 0.00000000e+00 0.00000000e+00 0.00000000e+00 0.00000000e+00
 0.00000000e+00 0.00000000e+00 0.00000000e+00 0.00000000e+00
 0.00000000e+00 0.00000000e+00 7.81229526e-06 1.28469733e-14
 0.00000000e+00 0.00000000e+00 0.00000000e+00 1.01446908e-02]"
1786901025.1278942,1.2880207007328657e-12,-8.085257941333451e-25,-1.7572610033766978e-12,"[9.99351175e-03 2.15675761e-18 0.00000000e+00 0.00000000e+00
 0.00000000e+00 7.81331898e-06 2.15675761e-18 9.98591985e-03
 0.00000000e+00 0.00000000e+00 0.00000000e+00 1.29352391e-14
 0.00000000e+00 0.00000000e+00 0.00000000e+00 0.00000000e+00
 0.00000000e+00 0.00000000e+00 0.00000000e+00 0.00000000e+00
 0.00000000e+00 0.00000000e+00 0.00000000e+00 0.00000000e+00
 0.00000000e+00 0.00000000e+00 0.00000000e+00 0.00000000e+00
 0.00000000e+00 0.00000000e+00 7.81331898e-06 1.29352391e-14
 0.00000000e+00 0.00000000e+00 0.00000000e+00 1.01446119e-02]"
1786901025.1714134,1.2952470109174089e-12,-8.212196707310248e-25,-1.766586876783549e-12,"[9.99331251e-03 2.21225489e-18 0.00000000e+00 0.00000000e+00
 0.00000000e+00 7.81351606e-06 2.21225489e-18 9.98572042e-03
 0.00000000e+00 0.00000000e+00 0.00000000e+00 1.30082850e-14
 0.00000000e+00 0.00000000e+00 0.00000000e+00 0.00000000e+00
 0.00000000e+00 0.00000000e+00 0.00000000e+00 0.00000000e+00
 0.00000000e+00 0.00000000e+00 0.00000000e+00 0.00000000e+00
 0.00000000e+00 0.00000000e+00 0.00000000e+00 0.00000000e+00
 0.00000000e+00 0.00000000e+00 7.81351606e-06 1.30082850e-14
 0.00000000e+00 0.00000000e+00 0.00000000e+00 1.01444164e-02]"
1786901025.225882,1.3006647884979633e-12,-8.307821198295483e-25,-1.77369230414115e-12,"[9.99321309e-03 2.25375188e-18 0.00000000e+00 0.00000000e+00
 0.00000000e+00 7.81381850e-06 2.25375188e-18 9.98562071e-03
 0.00000000e+00 0.00000000e+00 0.00000000e+00 1.30631131e-14
 0.00000000e+00 0.00000000e+00 0.00000000e+00 0.00000000e+00
 0.00000000e+00 0.00000000e+00 0.00000000e+00 0.00000000e+00
 0.00000000e+00 0.00000000e+00 0.00000000e+00 0.00000000e+00
 0.00000000e+00 0.00000000e+00 0.00000000e+00 0.00000000e+00
 0.00000000e+00 0.00000000e+00 7.81381850e-06 1.30631131e-14
 0.00000000e+00 0.00000000e+00 0.00000000e+00 1.01443229e-02]"
1786901025.2841473,1.2985338713515872e-12,-8.269857198601432e-25,-1.77369230414115e-12,"[9.99301421e-03 2.23551342e-18 0.00000000e+00 0.00000000e+00
 0.00000000e+00 7.81437231e-06 2.23551342e-18 9.98542128e-03
 0.00000000e+00 0.00000000e+00 0.00000000e+00 1.30412328e-14
 0.00000000e+00 0.00000000e+00 0.00000000e+00 0.00000000e+00
 0.00000000e+00 0.00000000e+00 0.00000000e+00 0.00000000e+00
 0.00000000e+00 0.00000000e+00 0.00000000e+00 0.00000000e+00
 0.00000000e+00 0.00000000e+00 0.00000000e+00 0.00000000e+00
 0.00000000e+00 0.00000000e+00 7.81437231e-06 1.30412328e-14
 0.00000000e+00 0.00000000e+00 0.00000000e+00 1.01441347e-02]"
1786901025.3267627,1.297552142622313e-12,-8.252360581816652e-25,-1.77369230414115e-12,"[9.99291470e-03 2.22716229e-18 0.00000000e+00 0.00000000e+00
 0.00000000e+00 7.81458307e-06 2.22716229e-18 9.98532158e-03
 0.00000000e+00 0.00000000e+00 0.00000000e+00 1.30311424e-14
 0.00000000e+00 0.00000000e+00 0.00000000e+00 0.00000000e+00
 0.00000000e+00 0.00000000e+00 0.00000000e+00 0.00000000e+00
 0.00000000e+00 0.00000000e+00 0.00000000e+00 0.00000000e+00
 0.00000000e+00 0.00000000e+00 0.00000000e+00 0.00000000e+00
 0.00000000e+00 0.00000000e+00 7.81458307e-06 1.30311424e-14
 0.00000000e+00 0.00000000e+00 0.00000000e+00 1.01440393e-02]"
1786901025.3689697,1.295383545118227e-12,-8.213729426581577e-25,-1.77369230414115e-12,"[9.99271591e-03 2.20849949e-18 0.00000000e+00 0.00000000e+00
 0.00000000e+00 7.81521183e-06 2.20849949e-18 9.98512217e-03
 0.00000000e+00 0.00000000e+00 0.00000000e+00 1.30088810e-14
 0.00000000e+00 0.00000000e+00 0.00000000e+00 0.00000000e+00
 0.00000000e+00 0.00000000e+00 0.00000000e+00 0.00000000e+00
 0.00000000e+00 0.00000000e+00 0.00000000e+00 0.00000000e+00
 0.00000000e+00 0.00000000e+00 0.00000000e+00 0.00000000e+00
 0.00000000e+00 0.00000000e+00 7.81521183e-06 1.30088810e-14
 0.00000000e+00 0.00000000e+00 0.00000000e+00 1.01438526e-02]"
1786901025.4196415,1.294211617412723e-12,-8.192859870410036e-25,-1.77369230414115e-12,"[9.99261657e-03 2.19838784e-18 0.00000000e+00 0.00000000e+00
 0.00000000e+00 7.81558147e-06 2.19838784e-18 9.98502247e-03
 0.00000000e+00 0.00000000e+00 0.00000000e+00 1.29968617e-14
 0.00000000e+00 0.00000000e+00 0.00000000e+00 0.00000000e+00
 0.00000000e+00 0.00000000e+00 0.00000000e+00 0.00000000e+00
 0.00000000e+00 0.00000000e+00 0.00000000e+00 0.00000000e+00
 0.00000000e+00 0.00000000e+00 0.00000000e+00 0.00000000e+00
 0.00000000e+00 0.00000000e+00 7.81558147e-06 1.29968617e-14
 0.00000000e+00 0.00000000e+00 0.00000000e+00 1.01437604e-02]"
1786901025.4713883,1.2922619581303468e-12,-8.158113099964079e-25,-1.77369230414115e-12,"[9.99241758e-03 2.18180089e-18 0.00000000e+00 0.00000000e+00
 0.00000000e+00 7.81599810e-06 2.18180089e-18 9.98482307e-03
 0.00000000e+00 0.00000000e+00 0.00000000e+00 1.29768227e-14
 0.00000000e+00 0.00000000e+00 0.00000000e+00 0.00000000e+00
 0.00000000e+00 0.00000000e+00 0.00000000e+00 0.00000000e+00
 0.00000000e+00 0.00000000e+00 0.00000000e+00 0.00000000e+00
 0.00000000e+00 0.00000000e+00 0.00000000e+00 0.00000000e+00
 0.00000000e+00 0.00000000e+00 7.81599810e-06 1.29768227e-14
 0.00000000e+00 0.00000000e+00 0.00000000e+00 1.01435695e-02]"
1786901025.5222523,1.2901515043100017e-12,-8.120515094307368e-25,-1.77369230414115e-12,"[9.99221871e-03 2.16374919e-18 0.00000000e+00 0.00000000e+00
 0.00000000e+00 7.81653527e-06 2.16374919e-18 9.98462368e-03
 0.00000000e+00 0.00000000e+00 0.00000000e+00 1.29551534e-14
 0.00000000e+00 0.00000000e+00 0.00000000e+00 0.00000000e+00
 0.00000000e+00 0.00000000e+00 0.00000000e+00 0.00000000e+00
 0.00000000e+00 0.00000000e+00 0.00000000e+00 0.00000000e+00
 0.00000000e+00 0.00000000e+00 0.00000000e+00 0.00000000e+00
 0.00000000e+00 0.00000000e+00 7.81653527e-06 1.29551534e-14
 0.00000000e+00 0.00000000e+00 0.00000000e+00 1.01433810e-02]"
1786901025.57056,1.289094173483915e-12,-8.101679061888461e-25,-1.77369230414115e-12,"[9.99211928e-03 2.15470420e-18 0.00000000e+00 0.00000000e+00
 0.00000000e+00 7.81680532e-06 2.15470420e-18 9.98452399e-03
 0.00000000e+00 0.00000000e+00 0.00000000e+00 1.29442977e-14
 0.00000000e+00 0.00000000e+00 0.00000000e+00 0.00000000e+00
 0.00000000e+00 0.00000000e+00 0.00000000e+00 0.00000000e+00
 0.00000000e+00 0.00000000e+00 0.00000000e+00 0.00000000e+00
 0.00000000e+00 0.00000000e+00 0.00000000e+00 0.00000000e+00
 0.00000000e+00 0.00000000e+00 7.81680532e-06 1.29442977e-14
 0.00000000e+00 0.00000000e+00 0.00000000e+00 1.01432868e-02]"
1786901025.618176,1.2929876290855145e-12,-8.17057114724156e-25,-1.780353642288901e-12,"[9.99192043e-03 2.18358714e-18 0.00000000e+00 0.00000000e+00
 0.00000000e+00 7.81734073e-06 2.18358714e-18 9.98432461e-03
 0.00000000e+00 0.00000000e+00 0.00000000e+00 1.29835278e-14
 0.00000000e+00 0.00000000e+00 0.00000000e+00 0.00000000e+00
 0.00000000e+00 0.00000000e+00 0.00000000e+00 0.00000000e+00
 0.00000000e+00 0.00000000e+00 0.00000000e+00 0.00000000e+00
 0.00000000e+00 0.00000000e+00 0.00000000e+00 0.00000000e+00
 0.00000000e+00 0.00000000e+00 7.81734073e-06 1.29835278e-14
 0.00000000e+00 0.00000000e+00 0.00000000e+00 1.01430983e-02]"
1786901025.673083,1.2997444507250947e-12,-8.290781151000797e-25,-1.7892354264859023e-12,"[9.99182128e-03 2.23512874e-18 0.00000000e+00 0.00000000e+00
 0.00000000e+00 7.81789638e-06 2.23512874e-18 9.98422492e-03
 0.00000000e+00 0.00000000e+00 0.00000000e+00 1.30519306e-14
 0.00000000e+00 0.00000000e+00 0.00000000e+00 0.00000000e+00
 0.00000000e+00 0.00000000e+00 0.00000000e+00 0.00000000e+00
 0.00000000e+00 0.00000000e+00 0.00000000e+00 0.00000000e+00
 0.00000000e+00 0.00000000e+00 0.00000000e+00 0.00000000e+00
 0.00000000e+00 0.00000000e+00 7.81789638e-06 1.30519306e-14
 0.00000000e+00 0.00000000e+00 0.00000000e+00 1.01430099e-02]"
1786901025.721228,1.3041058033135811e-12,-8.36873030688124e-25,-1.795008586213953e-12,"[9.99172174e-03 2.26866236e-18 0.00000000e+00 0.00000000e+00
 0.00000000e+00 7.81803636e-06 2.26866236e-18 9.98412524e-03
 0.00000000e+00 0.00000000e+00 0.00000000e+00 1.30960357e-14
 0.00000000e+00 0.00000000e+00 0.00000000e+00 0.00000000e+00
 0.00000000e+00 0.00000000e+00 0.00000000e+00 0.00000000e+00
 0.00000000e+00 0.00000000e+00 0.00000000e+00 0.00000000e+00
 0.00000000e+00 0.00000000e+00 0.00000000e+00 0.00000000e+00
 0.00000000e+00 0.00000000e+00 7.81803636e-06 1.30960357e-14
 0.00000000e+00 0.00000000e+00 0.00000000e+00 1.01429131e-02]"
1786901025.7836592,1.3143201417269294e-12,-8.552241562121955e-25,-1.808331262509455e-12,"[9.99152287e-03 2.34699738e-18 0.00000000e+00 0.00000000e+00
 0.00000000e+00 7.81853899e-06 2.34699738e-18 9.98392588e-03
 0.00000000e+00 0.00000000e+00 0.00000000e+00 1.31993722e-14
 0.00000000e+00 0.00000000e+00 0.00000000e+00 0.00000000e+00
 0.00000000e+00 0.00000000e+00 0.00000000e+00 0.00000000e+00
 0.00000000e+00 0.00000000e+00 0.00000000e+00 0.00000000e+00
 0.00000000e+00 0.00000000e+00 0.00000000e+00 0.00000000e+00
 0.00000000e+00 0.00000000e+00 7.81853899e-06 1.31993722e-14
 0.00000000e+00 0.00000000e+00 0.00000000e+00 1.01427239e-02]"
1786901025.8189502,1.3192512725076604e-12,-8.641324128860448e-25,-1.814992600657206e-12,"[9.99142341e-03 2.38483748e-18 0.00000000e+00 0.00000000e+00
 0.00000000e+00 7.81876052e-06 2.38483748e-18 9.98382620e-03
 0.00000000e+00 0.00000000e+00 0.00000000e+00 1.32492535e-14
 0.00000000e+00 0.00000000e+00 0.00000000e+00 0.00000000e+00
 0.00000000e+00 0.00000000e+00 0.00000000e+00 0.00000000e+00
 0.00000000e+00 0.00000000e+00 0.00000000e+00 0.00000000e+00
 0.00000000e+00 0.00000000e+00 0.00000000e+00 0.00000000e+00
 0.00000000e+00 0.00000000e+00 7.81876052e-06 1.32492535e-14
 0.00000000e+00 0.00000000e+00 0.00000000e+00 1.01426287e-02]"
1786901025.87984,1.3315940421444985e-12,-8.865667713732305e-25,-1.8314239014216582e-12,"[9.99122493e-03 2.47910528e-18 0.00000000e+00 0.00000000e+00
 0.00000000e+00 7.81965607e-06 2.47910528e-18 9.98362685e-03
 0.00000000e+00 0.00000000e+00 0.00000000e+00 1.33741707e-14
 0.00000000e+00 0.00000000e+00 0.00000000e+00 0.00000000e+00
 0.00000000e+00 0.00000000e+00 0.00000000e+00 0.00000000e+00
 0.00000000e+00 0.00000000e+00 0.00000000e+00 0.00000000e+00
 0.00000000e+00 0.00000000e+00 0.00000000e+00 0.00000000e+00
 0.00000000e+00 0.00000000e+00 7.81965607e-06 1.33741707e-14
 0.00000000e+00 0.00000000e+00 0.00000000e+00 1.01424476e-02]"
1786901025.919789,1.3354803157776229e-12,-8.936750401206394e-25,-1.836752971939859e-12,"[9.99112533e-03 2.50902543e-18 0.00000000e+00 0.00000000e+00
 0.00000000e+00 7.81973375e-06 2.50902543e-18 9.98352718e-03
 0.00000000e+00 0.00000000e+00 0.00000000e+00 1.34134519e-14
 0.00000000e+00 0.00000000e+00 0.00000000e+00 0.00000000e+00
 0.00000000e+00 0.00000000e+00 0.00000000e+00 0.00000000e+00
 0.00000000e+00 0.00000000e+00 0.00000000e+00 0.00000000e+00
 0.00000000e+00 0.00000000e+00 0.00000000e+00 0.00000000e+00
 0.00000000e+00 0.00000000e+00 7.81973375e-06 1.34134519e-14
 0.00000000e+00 0.00000000e+00 0.00000000e+00 1.01423495e-02]"
1786901025.9712286,1.3461057113763013e-12,-9.132095945776776e-25,-1.850963826655061e-12,"[9.99092654e-03 2.59044043e-18 0.00000000e+00 0.00000000e+00
 0.00000000e+00 7.82029690e-06 2.59044043e-18 9.98332784e-03
 0.00000000e+00 0.00000000e+00 0.00000000e+00 1.35209450e-14
 0.00000000e+00 0.00000000e+00 0.00000000e+00 0.00000000e+00
 0.00000000e+00 0.00000000e+00 0.00000000e+00 0.00000000e+00
 0.00000000e+00 0.00000000e+00 0.00000000e+00 0.00000000e+00
 0.00000000e+00 0.00000000e+00 0.00000000e+00 0.00000000e+00
 0.00000000e+00 0.00000000e+00 7.82029690e-06 1.35209450e-14
 0.00000000e+00 0.00000000e+00 0.00000000e+00 1.01421616e-02]"
1786901026.035625,1.3506791792209599e-12,-9.216654744087036e-25,-1.857181075592962e-12,"[9.99082704e-03 2.62557004e-18 0.00000000e+00 0.00000000e+00
 0.00000000e+00 7.82046368e-06 2.62557004e-18 9.98322818e-03
 0.00000000e+00 0.00000000e+00 0.00000000e+00 1.35671929e-14
 0.00000000e+00 0.00000000e+00 0.00000000e+00 0.00000000e+00
 0.00000000e+00 0.00000000e+00 0.00000000e+00 0.00000000e+00
 0.00000000e+00 0.00000000e+00 0.00000000e+00 0.00000000e+00
 0.00000000e+00 0.00000000e+00 0.00000000e+00 0.00000000e+00
 0.00000000e+00 0.00000000e+00 7.82046368e-06 1.35671929e-14
 0.00000000e+00 0.00000000e+00 0.00000000e+00 1.01420653e-02]"
1786901026.070166,1.3614924712658707e-12,-9.417657073963267e-25,-1.871391930308164e-12,"[9.99062832e-03 2.70833903e-18 0.00000000e+00 0.00000000e+00
 0.00000000e+00 7.82108346e-06 2.70833903e-18 9.98302885e-03
 0.00000000e+00 0.00000000e+00 0.00000000e+00 1.36765855e-14
 0.00000000e+00 0.00000000e+00 0.00000000e+00 0.00000000e+00
 0.00000000e+00 0.00000000e+00 0.00000000e+00 0.00000000e+00
 0.00000000e+00 0.00000000e+00 0.00000000e+00 0.00000000e+00
 0.00000000e+00 0.00000000e+00 0.00000000e+00 0.00000000e+00
 0.00000000e+00 0.00000000e+00 7.82108346e-06 1.36765855e-14
 0.00000000e+00 0.00000000e+00 0.00000000e+00 1.01418786e-02]"
1786901026.123383,1.3669361946758003e-12,-9.519432820667168e-25,-1.878497357665765e-12,"[9.99052895e-03 2.75002759e-18 0.00000000e+00 0.00000000e+00
 0.00000000e+00 7.82138335e-06 2.75002759e-18 9.98292919e-03
 0.00000000e+00 0.00000000e+00 0.00000000e+00 1.37316562e-14
 0.00000000e+00 0.00000000e+00 0.00000000e+00 0.00000000e+00
 0.00000000e+00 0.00000000e+00 0.00000000e+00 0.00000000e+00
 0.00000000e+00 0.00000000e+00 0.00000000e+00 0.00000000e+00
 0.00000000e+00 0.00000000e+00 0.00000000e+00 0.00000000e+00
 0.00000000e+00 0.00000000e+00 7.82138335e-06 1.37316562e-14
 0.00000000e+00 0.00000000e+00 0.00000000e+00 1.01417850e-02]"
1786901026.1690948,1.3782192898144634e-12,-9.73159753975116e-25,-1.893152301590817e-12,"[9.99033029e-03 2.83636982e-18 0.00000000e+00 0.00000000e+00
 0.00000000e+00 7.82204996e-06 2.83636982e-18 9.98272988e-03
 0.00000000e+00 0.00000000e+00 0.00000000e+00 1.38458069e-14
 0.00000000e+00 0.00000000e+00 0.00000000e+00 0.00000000e+00
 0.00000000e+00 0.00000000e+00 0.00000000e+00 0.00000000e+00
 0.00000000e+00 0.00000000e+00 0.00000000e+00 0.00000000e+00
 0.00000000e+00 0.00000000e+00 0.00000000e+00 0.00000000e+00
 0.00000000e+00 0.00000000e+00 7.82204996e-06 1.38458069e-14
 0.00000000e+00 0.00000000e+00 0.00000000e+00 1.01415992e-02]"
1786901026.2210903,1.3824715805771986e-12,-9.811999417532904e-25,-1.8989254613188677e-12,"[9.99023075e-03 2.86906036e-18 0.00000000e+00 0.00000000e+00
 0.00000000e+00 7.82217140e-06 2.86906036e-18 9.98263022e-03
 0.00000000e+00 0.00000000e+00 0.00000000e+00 1.38887918e-14
 0.00000000e+00 0.00000000e+00 0.00000000e+00 0.00000000e+00
 0.00000000e+00 0.00000000e+00 0.00000000e+00 0.00000000e+00
 0.00000000e+00 0.00000000e+00 0.00000000e+00 0.00000000e+00
 0.00000000e+00 0.00000000e+00 0.00000000e+00 0.00000000e+00
 0.00000000e+00 0.00000000e+00 7.82217140e-06 1.38887918e-14
 0.00000000e+00 0.00000000e+00 0.00000000e+00 1.01415021e-02]"
1786901026.2694664,1.3930918778249995e-12,-1.0013839015462055e-24,-1.9131363160340698e-12,"[9.99003201e-03 2.95038859e-18 0.00000000e+00 0.00000000e+00
 0.00000000e+00 7.82273777e-06 2.95038859e-18 9.98243092e-03
 0.00000000e+00 0.00000000e+00 0.00000000e+00 1.39962146e-14
 0.00000000e+00 0.00000000e+00 0.00000000e+00 0.00000000e+00
 0.00000000e+00 0.00000000e+00 0.00000000e+00 0.00000000e+00
 0.00000000e+00 0.00000000e+00 0.00000000e+00 0.00000000e+00
 0.00000000e+00 0.00000000e+00 0.00000000e+00 0.00000000e+00
 0.00000000e+00 0.00000000e+00 7.82273777e-06 1.39962146e-14
 0.00000000e+00 0.00000000e+00 0.00000000e+00 1.01413143e-02]"
1786901026.319163,1.3984366226834362e-12,-1.0115987514011345e-24,-1.9202417433916708e-12,"[9.98993263e-03 2.99132148e-18 0.00000000e+00 0.00000000e+00
 0.00000000e+00 7.82301987e-06 2.99132148e-18 9.98233127e-03
 0.00000000e+00 0.00000000e+00 0.00000000e+00 1.40502752e-14
 0.00000000e+00 0.00000000e+00 0.00000000e+00 0.00000000e+00
 0.00000000e+00 0.00000000e+00 0.00000000e+00 0.00000000e+00
 0.00000000e+00 0.00000000e+00 0.00000000e+00 0.00000000e+00
 0.00000000e+00 0.00000000e+00 0.00000000e+00 0.00000000e+00
 0.00000000e+00 0.00000000e+00 7.82301987e-06 1.40502752e-14
 0.00000000e+00 0.00000000e+00 0.00000000e+00 1.01412203e-02]"
1786901026.3689456,1.4094681710969493e-12,-1.0328001142624673e-24,-1.934896687316723e-12,"[9.98973395e-03 3.07574186e-18 0.00000000e+00 0.00000000e+00
 0.00000000e+00 7.82364507e-06 3.07574186e-18 9.98213198e-03
 0.00000000e+00 0.00000000e+00 0.00000000e+00 1.41618621e-14
 0.00000000e+00 0.00000000e+00 0.00000000e+00 0.00000000e+00
 0.00000000e+00 0.00000000e+00 0.00000000e+00 0.00000000e+00
 0.00000000e+00 0.00000000e+00 0.00000000e+00 0.00000000e+00
 0.00000000e+00 0.00000000e+00 0.00000000e+00 0.00000000e+00
 0.00000000e+00 0.00000000e+00 7.82364507e-06 1.41618621e-14
 0.00000000e+00 0.00000000e+00 0.00000000e+00 1.01410338e-02]"
1786901026.4222007,1.4144100480753174e-12,-1.0423514516813112e-24,-1.9415580254644738e-12,"[9.98963452e-03 3.11363571e-18 0.00000000e+00 0.00000000e+00
 0.00000000e+00 7.82386345e-06 3.11363571e-18 9.98203234e-03
 0.00000000e+00 0.00000000e+00 0.00000000e+00 1.42118343e-14
 0.00000000e+00 0.00000000e+00 0.00000000e+00 0.00000000e+00
 0.00000000e+00 0.00000000e+00 0.00000000e+00 0.00000000e+00
 0.00000000e+00 0.00000000e+00 0.00000000e+00 0.00000000e+00
 0.00000000e+00 0.00000000e+00 0.00000000e+00 0.00000000e+00
 0.00000000e+00 0.00000000e+00 7.82386345e-06 1.42118343e-14
 0.00000000e+00 0.00000000e+00 0.00000000e+00 1.01409386e-02]"
1786901026.4740286,1.4245684805273745e-12,-1.0620879025983856e-24,-1.9553247909698257e-12,"[9.98943571e-03 3.19148539e-18 0.00000000e+00 0.00000000e+00
 0.00000000e+00 7.82434301e-06 3.19148539e-18 9.98183306e-03
 0.00000000e+00 0.00000000e+00 0.00000000e+00 1.43145610e-14
 0.00000000e+00 0.00000000e+00 0.00000000e+00 0.00000000e+00
 0.00000000e+00 0.00000000e+00 0.00000000e+00 0.00000000e+00
 0.00000000e+00 0.00000000e+00 0.00000000e+00 0.00000000e+00
 0.00000000e+00 0.00000000e+00 0.00000000e+00 0.00000000e+00
 0.00000000e+00 0.00000000e+00 7.82434301e-06 1.43145610e-14
 0.00000000e+00 0.00000000e+00 0.00000000e+00 1.01407490e-02]"
1786901026.5292225,1.4245684805273745e-12,-1.0620879025983856e-24,-1.9553247909698257e-12,"[9.98943571e-03 3.19148539e-18 0.00000000e+00 0.00000000e+00
 0.00000000e+00 7.82434301e-06 3.19148539e-18 9.98183306e-03
 0.00000000e+00 0.00000000e+00 0.00000000e+00 1.43145610e-14
 0.00000000e+00 0.00000000e+00 0.00000000e+00 0.00000000e+00
 0.00000000e+00 0.00000000e+00 0.00000000e+00 0.00000000e+00
 0.00000000e+00 0.00000000e+00 0.00000000e+00 0.00000000e+00
 0.00000000e+00 0.00000000e+00 0.00000000e+00 0.00000000e+00
 0.00000000e+00 0.00000000e+00 7.82434301e-06 1.43145610e-14
 0.00000000e+00 0.00000000e+00 0.00000000e+00 1.01407490e-02]"
1786901026.5786104,1.4355317678914837e-12,-1.0835134705351102e-24,-1.9699797348948778e-12,"[9.98933772e-03 3.27369740e-18 0.00000000e+00 0.00000000e+00
 0.00000000e+00 7.82602891e-06 3.27369740e-18 9.98173343e-03
 0.00000000e+00 0.00000000e+00 0.00000000e+00 1.44255884e-14
 0.00000000e+00 0.00000000e+00 0.00000000e+00 0.00000000e+00
 0.00000000e+00 0.00000000e+00 0.00000000e+00 0.00000000e+00
 0.00000000e+00 0.00000000e+00 0.00000000e+00 0.00000000e+00
 0.00000000e+00 0.00000000e+00 0.00000000e+00 0.00000000e+00
 0.00000000e+00 0.00000000e+00 7.82602891e-06 1.44255884e-14
 0.00000000e+00 0.00000000e+00 0.00000000e+00 1.01406836e-02]"
1786901026.6188354,1.4481370014345521e-12,-1.1083713768745522e-24,-1.98685512486918e-12,"[9.98913942e-03 3.36969593e-18 0.00000000e+00 0.00000000e+00
 0.00000000e+00 7.82702791e-06 3.36969593e-18 9.98153416e-03
 0.00000000e+00 0.00000000e+00 0.00000000e+00 1.45531189e-14
 0.00000000e+00 0.00000000e+00 0.00000000e+00 0.00000000e+00
 0.00000000e+00 0.00000000e+00 0.00000000e+00 0.00000000e+00
 0.00000000e+00 0.00000000e+00 0.00000000e+00 0.00000000e+00
 0.00000000e+00 0.00000000e+00 0.00000000e+00 0.00000000e+00
 0.00000000e+00 0.00000000e+00 7.82702791e-06 1.45531189e-14
 0.00000000e+00 0.00000000e+00 0.00000000e+00 1.01405046e-02]"
1786901026.6697652,1.456835436424448e-12,-1.1256548344512605e-24,-1.9984014443252818e-12,"[9.98894046e-03 3.43645278e-18 0.00000000e+00 0.00000000e+00
 0.00000000e+00 7.82732720e-06 3.43645278e-18 9.98133490e-03
 0.00000000e+00 0.00000000e+00 0.00000000e+00 1.46410299e-14
 0.00000000e+00 0.00000000e+00 0.00000000e+00 0.00000000e+00
 0.00000000e+00 0.00000000e+00 0.00000000e+00 0.00000000e+00
 0.00000000e+00 0.00000000e+00 0.00000000e+00 0.00000000e+00
 0.00000000e+00 0.00000000e+00 0.00000000e+00 0.00000000e+00
 0.00000000e+00 0.00000000e+00 7.82732720e-06 1.46410299e-14
 0.00000000e+00 0.00000000e+00 0.00000000e+00 1.01403115e-02]"
1786901026.7189078,1.461522886094793e-12,-1.1350106152703008e-24,-2.0046186932631826e-12,"[9.98884101e-03 3.47241634e-18 0.00000000e+00 0.00000000e+00
 0.00000000e+00 7.82750772e-06 3.47241634e-18 9.98123528e-03
 0.00000000e+00 0.00000000e+00 0.00000000e+00 1.46884137e-14
 0.00000000e+00 0.00000000e+00 0.00000000e+00 0.00000000e+00
 0.00000000e+00 0.00000000e+00 0.00000000e+00 0.00000000e+00
 0.00000000e+00 0.00000000e+00 0.00000000e+00 0.00000000e+00
 0.00000000e+00 0.00000000e+00 0.00000000e+00 0.00000000e+00
 0.00000000e+00 0.00000000e+00 7.82750772e-06 1.46884137e-14
 0.00000000e+00 0.00000000e+00 0.00000000e+00 1.01402155e-02]"
1786901026.7767696,1.472129432046717e-12,-1.15628648059659e-24,-2.0188295479783847e-12,"[9.98864230e-03 3.55360946e-18 0.00000000e+00 0.00000000e+00
 0.00000000e+00 7.82805790e-06 3.55360946e-18 9.98103603e-03
 0.00000000e+00 0.00000000e+00 0.00000000e+00 1.47956671e-14
 0.00000000e+00 0.00000000e+00 0.00000000e+00 0.00000000e+00
 0.00000000e+00 0.00000000e+00 0.00000000e+00 0.00000000e+00
 0.00000000e+00 0.00000000e+00 0.00000000e+00 0.00000000e+00
 0.00000000e+00 0.00000000e+00 0.00000000e+00 0.00000000e+00
 0.00000000e+00 0.00000000e+00 7.82805790e-06 1.47956671e-14
 0.00000000e+00 0.00000000e+00 0.00000000e+00 1.01400274e-02]"
1786901026.8186617,1.4775010585585788e-12,-1.1671189121026216e-24,-2.0259349753359857e-12,"[9.98854296e-03 3.59471508e-18 0.00000000e+00 0.00000000e+00
 0.00000000e+00 7.82834443e-06 3.59471508e-18 9.98093641e-03
 0.00000000e+00 0.00000000e+00 0.00000000e+00 1.48499854e-14
 0.00000000e+00 0.00000000e+00 0.00000000e+00 0.00000000e+00
 0.00000000e+00 0.00000000e+00 0.00000000e+00 0.00000000e+00
 0.00000000e+00 0.00000000e+00 0.00000000e+00 0.00000000e+00
 0.00000000e+00 0.00000000e+00 0.00000000e+00 0.00000000e+00
 0.00000000e+00 0.00000000e+00 7.82834443e-06 1.48499854e-14
 0.00000000e+00 0.00000000e+00 0.00000000e+00 1.01399336e-02]"
1786901026.8774562,1.4888820471731434e-12,-1.1901953901783122e-24,-2.0410340084708878e-12,"[9.98834440e-03 3.68168272e-18 0.00000000e+00 0.00000000e+00
 0.00000000e+00 7.82903331e-06 3.68168272e-18 9.98073718e-03
 0.00000000e+00 0.00000000e+00 0.00000000e+00 1.49650849e-14
 0.00000000e+00 0.00000000e+00 0.00000000e+00 0.00000000e+00
 0.00000000e+00 0.00000000e+00 0.00000000e+00 0.00000000e+00
 0.00000000e+00 0.00000000e+00 0.00000000e+00 0.00000000e+00
 0.00000000e+00 0.00000000e+00 0.00000000e+00 0.00000000e+00
 0.00000000e+00 0.00000000e+00 7.82903331e-06 1.49650849e-14
 0.00000000e+00 0.00000000e+00 0.00000000e+00 1.01397484e-02]"
1786901026.9311001,1.4931753227035877e-12,-1.198945838972088e-24,-2.0468071681989386e-12,"[9.98824491e-03 3.71465521e-18 0.00000000e+00 0.00000000e+00
 0.00000000e+00 7.82916045e-06 3.71465521e-18 9.98063756e-03
 0.00000000e+00 0.00000000e+00 0.00000000e+00 1.50084661e-14
 0.00000000e+00 0.00000000e+00 0.00000000e+00 0.00000000e+00
 0.00000000e+00 0.00000000e+00 0.00000000e+00 0.00000000e+00
 0.00000000e+00 0.00000000e+00 0.00000000e+00 0.00000000e+00
 0.00000000e+00 0.00000000e+00 0.00000000e+00 0.00000000e+00
 0.00000000e+00 0.00000000e+00 7.82916045e-06 1.50084661e-14
 0.00000000e+00 0.00000000e+00 0.00000000e+00 1.01396514e-02]"
1786901026.9856496,1.5041688322729683e-12,-1.2214594061974609e-24,-2.0610180229141406e-12,"[9.98804634e-03 3.79860652e-18 0.00000000e+00 0.00000000e+00
 0.00000000e+00 7.82983372e-06 3.79860652e-18 9.98043834e-03
 0.00000000e+00 0.00000000e+00 0.00000000e+00 1.51196305e-14
 0.00000000e+00 0.00000000e+00 0.00000000e+00 0.00000000e+00
 0.00000000e+00 0.00000000e+00 0.00000000e+00 0.00000000e+00
 0.00000000e+00 0.00000000e+00 0.00000000e+00 0.00000000e+00
 0.00000000e+00 0.00000000e+00 0.00000000e+00 0.00000000e+00
 0.00000000e+00 0.00000000e+00 7.82983372e-06 1.51196305e-14
 0.00000000e+00 0.00000000e+00 0.00000000e+00 1.01394658e-02]"
1786901027.0199735,1.5089908387161725e-12,-1.2313850375437124e-24,-2.0672352718520415e-12,"[9.98794693e-03 3.83556174e-18 0.00000000e+00 0.00000000e+00
 0.00000000e+00 7.83003706e-06 3.83556174e-18 9.98033873e-03
 0.00000000e+00 0.00000000e+00 0.00000000e+00 1.51683698e-14
 0.00000000e+00 0.00000000e+00 0.00000000e+00 0.00000000e+00
 0.00000000e+00 0.00000000e+00 0.00000000e+00 0.00000000e+00
 0.00000000e+00 0.00000000e+00 0.00000000e+00 0.00000000e+00
 0.00000000e+00 0.00000000e+00 0.00000000e+00 0.00000000e+00
 0.00000000e+00 0.00000000e+00 7.83003706e-06 1.51683698e-14
 0.00000000e+00 0.00000000e+00 0.00000000e+00 1.01393704e-02]"
1786901027.075905,1.5194705208412486e-12,-1.2530592764095654e-24,-2.0810020373573934e-12,"[9.98774826e-03 3.91572850e-18 0.00000000e+00 0.00000000e+00
 0.00000000e+00 7.83058372e-06 3.91572850e-18 9.98013952e-03
 0.00000000e+00 0.00000000e+00 0.00000000e+00 1.52743182e-14
 0.00000000e+00 0.00000000e+00 0.00000000e+00 0.00000000e+00
 0.00000000e+00 0.00000000e+00 0.00000000e+00 0.00000000e+00
 0.00000000e+00 0.00000000e+00 0.00000000e+00 0.00000000e+00
 0.00000000e+00 0.00000000e+00 0.00000000e+00 0.00000000e+00
 0.00000000e+00 0.00000000e+00 7.83058372e-06 1.52743182e-14
 0.00000000e+00 0.00000000e+00 0.00000000e+00 1.01391822e-02]"
1786901027.11905,1.5279923914637346e-12,-1.2707802183304778e-24,-2.092104267603645e-12,"[9.98764960e-03 3.98009070e-18 0.00000000e+00 0.00000000e+00
 0.00000000e+00 7.83155796e-06 3.98009070e-18 9.98003992e-03
 0.00000000e+00 0.00000000e+00 0.00000000e+00 1.53605662e-14
 0.00000000e+00 0.00000000e+00 0.00000000e+00 0.00000000e+00
 0.00000000e+00 0.00000000e+00 0.00000000e+00 0.00000000e+00
 0.00000000e+00 0.00000000e+00 0.00000000e+00 0.00000000e+00
 0.00000000e+00 0.00000000e+00 0.00000000e+00 0.00000000e+00
 0.00000000e+00 0.00000000e+00 7.83155796e-06 1.53605662e-14
 0.00000000e+00 0.00000000e+00 0.00000000e+00 1.01391024e-02]"
1786901027.1689467,1.5359406702127504e-12,-1.2874013840177373e-24,-2.1027624086400465e-12,"[9.98745063e-03 4.04105858e-18 0.00000000e+00 0.00000000e+00
 0.00000000e+00 7.83179139e-06 4.04105858e-18 9.97984072e-03
 0.00000000e+00 0.00000000e+00 0.00000000e+00 1.54408429e-14
 0.00000000e+00 0.00000000e+00 0.00000000e+00 0.00000000e+00
 0.00000000e+00 0.00000000e+00 0.00000000e+00 0.00000000e+00
 0.00000000e+00 0.00000000e+00 0.00000000e+00 0.00000000e+00
 0.00000000e+00 0.00000000e+00 0.00000000e+00 0.00000000e+00
 0.00000000e+00 0.00000000e+00 7.83179139e-06 1.54408429e-14
 0.00000000e+00 0.00000000e+00 0.00000000e+00 1.01389080e-02]"
1786901027.2198706,1.5350396829892592e-12,-1.28549375301183e-24,-2.1027624086400465e-12,"[9.98735118e-03 4.03329327e-18 0.00000000e+00 0.00000000e+00
 0.00000000e+00 7.83194089e-06 4.03329327e-18 9.97974113e-03
 0.00000000e+00 0.00000000e+00 0.00000000e+00 1.54315520e-14
 0.00000000e+00 0.00000000e+00 0.00000000e+00 0.00000000e+00
 0.00000000e+00 0.00000000e+00 0.00000000e+00 0.00000000e+00
 0.00000000e+00 0.00000000e+00 0.00000000e+00 0.00000000e+00
 0.00000000e+00 0.00000000e+00 0.00000000e+00 0.00000000e+00
 0.00000000e+00 0.00000000e+00 7.83194089e-06 1.54315520e-14
 0.00000000e+00 0.00000000e+00 0.00000000e+00 1.01388114e-02]"
1786901027.2759025,1.5338220880148998e-12,-1.2829203973117432e-24,-2.1027624086400465e-12,"[9.98725199e-03 4.02251879e-18 0.00000000e+00 0.00000000e+00
 0.00000000e+00 7.83234960e-06 4.02251879e-18 9.97964153e-03
 0.00000000e+00 0.00000000e+00 0.00000000e+00 1.54190508e-14
 0.00000000e+00 0.00000000e+00 0.00000000e+00 0.00000000e+00
 0.00000000e+00 0.00000000e+00 0.00000000e+00 0.00000000e+00
 0.00000000e+00 0.00000000e+00 0.00000000e+00 0.00000000e+00
 0.00000000e+00 0.00000000e+00 0.00000000e+00 0.00000000e+00
 0.00000000e+00 0.00000000e+00 7.83234960e-06 1.54190508e-14
 0.00000000e+00 0.00000000e+00 0.00000000e+00 1.01387201e-02]"
1786901027.3228467,1.5317746888273643e-12,-1.2785891994403487e-24,-2.1027624086400465e-12,"[9.98705368e-03 4.00383877e-18 0.00000000e+00 0.00000000e+00
 0.00000000e+00 7.83324908e-06 4.00383877e-18 9.97944235e-03
 0.00000000e+00 0.00000000e+00 0.00000000e+00 1.53979805e-14
 0.00000000e+00 0.00000000e+00 0.00000000e+00 0.00000000e+00
 0.00000000e+00 0.00000000e+00 0.00000000e+00 0.00000000e+00
 0.00000000e+00 0.00000000e+00 0.00000000e+00 0.00000000e+00
 0.00000000e+00 0.00000000e+00 0.00000000e+00 0.00000000e+00
 0.00000000e+00 0.00000000e+00 7.83324908e-06 1.53979805e-14
 0.00000000e+00 0.00000000e+00 0.00000000e+00 1.01385392e-02]"
1786901027.3715494,1.52971469093632e-12,-1.2742315846016988e-24,-2.1027624086400465e-12,"[9.98685499e-03 3.98587614e-18 0.00000000e+00 0.00000000e+00
 0.00000000e+00 7.83374854e-06 3.98587614e-18 9.97924317e-03
 0.00000000e+00 0.00000000e+00 0.00000000e+00 1.53767842e-14
 0.00000000e+00 0.00000000e+00 0.00000000e+00 0.00000000e+00
 0.00000000e+00 0.00000000e+00 0.00000000e+00 0.00000000e+00
 0.00000000e+00 0.00000000e+00 0.00000000e+00 0.00000000e+00
 0.00000000e+00 0.00000000e+00 0.00000000e+00 0.00000000e+00
 0.00000000e+00 0.00000000e+00 7.83374854e-06 1.53767842e-14
 0.00000000e+00 0.00000000e+00 0.00000000e+00 1.01383502e-02]"
1786901027.4198627,1.5286680803423762e-12,-1.2720178794507493e-24,-2.1027624086400465e-12,"[9.98675566e-03 3.97674443e-18 0.00000000e+00 0.00000000e+00
 0.00000000e+00 7.83400813e-06 3.97674443e-18 9.97914359e-03
 0.00000000e+00 0.00000000e+00 0.00000000e+00 1.53660179e-14
 0.00000000e+00 0.00000000e+00 0.00000000e+00 0.00000000e+00
 0.00000000e+00 0.00000000e+00 0.00000000e+00 0.00000000e+00
 0.00000000e+00 0.00000000e+00 0.00000000e+00 0.00000000e+00
 0.00000000e+00 0.00000000e+00 0.00000000e+00 0.00000000e+00
 0.00000000e+00 0.00000000e+00 7.83400813e-06 1.53660179e-14
 0.00000000e+00 0.00000000e+00 0.00000000e+00 1.01382559e-02]"
1786901027.4694824,1.5265339166576937e-12,-1.2675044465656144e-24,-2.1027624086400465e-12,"[9.98655704e-03 3.95808899e-18 0.00000000e+00 0.00000000e+00
 0.00000000e+00 7.83456205e-06 3.95808899e-18 9.97894443e-03
 0.00000000e+00 0.00000000e+00 0.00000000e+00 1.53440707e-14
 0.00000000e+00 0.00000000e+00 0.00000000e+00 0.00000000e+00
 0.00000000e+00 0.00000000e+00 0.00000000e+00 0.00000000e+00
 0.00000000e+00 0.00000000e+00 0.00000000e+00 0.00000000e+00
 0.00000000e+00 0.00000000e+00 0.00000000e+00 0.00000000e+00
 0.00000000e+00 0.00000000e+00 7.83456205e-06 1.53440707e-14
 0.00000000e+00 0.00000000e+00 0.00000000e+00 1.01380680e-02]"
1786901027.5193777,1.5254620654981632e-12,-1.265237735525831e-24,-2.1027624086400465e-12,"[9.98645774e-03 3.94871695e-18 0.00000000e+00 0.00000000e+00
 0.00000000e+00 7.83484232e-06 3.94871695e-18 9.97884485e-03
 0.00000000e+00 0.00000000e+00 0.00000000e+00 1.53330491e-14
 0.00000000e+00 0.00000000e+00 0.00000000e+00 0.00000000e+00
 0.00000000e+00 0.00000000e+00 0.00000000e+00 0.00000000e+00
 0.00000000e+00 0.00000000e+00 0.00000000e+00 0.00000000e+00
 0.00000000e+00 0.00000000e+00 0.00000000e+00 0.00000000e+00
 0.00000000e+00 0.00000000e+00 7.83484232e-06 1.53330491e-14
 0.00000000e+00 0.00000000e+00 0.00000000e+00 1.01379741e-02]"
1786901027.5709949,1.5232748376112792e-12,-1.2606128615965706e-24,-2.1027624086400465e-12,"[9.98625917e-03 3.92954997e-18 0.00000000e+00 0.00000000e+00
 0.00000000e+00 7.83544277e-06 3.92954997e-18 9.97864570e-03
 0.00000000e+00 0.00000000e+00 0.00000000e+00 1.53105652e-14
 0.00000000e+00 0.00000000e+00 0.00000000e+00 0.00000000e+00
 0.00000000e+00 0.00000000e+00 0.00000000e+00 0.00000000e+00
 0.00000000e+00 0.00000000e+00 0.00000000e+00 0.00000000e+00
 0.00000000e+00 0.00000000e+00 0.00000000e+00 0.00000000e+00
 0.00000000e+00 0.00000000e+00 7.83544277e-06 1.53105652e-14
 0.00000000e+00 0.00000000e+00 0.00000000e+00 1.01377871e-02]"
1786901027.6270988,1.5222683408441733e-12,-1.258483644072528e-24,-2.1027624086400465e-12,"[9.98615982e-03 3.92079749e-18 0.00000000e+00 0.00000000e+00
 0.00000000e+00 7.83567025e-06 3.92079749e-18 9.97854613e-03
 0.00000000e+00 0.00000000e+00 0.00000000e+00 1.53002069e-14
 0.00000000e+00 0.00000000e+00 0.00000000e+00 0.00000000e+00
 0.00000000e+00 0.00000000e+00 0.00000000e+00 0.00000000e+00
 0.00000000e+00 0.00000000e+00 0.00000000e+00 0.00000000e+00
 0.00000000e+00 0.00000000e+00 0.00000000e+00 0.00000000e+00
 0.00000000e+00 0.00000000e+00 7.83567025e-06 1.53002069e-14
 0.00000000e+00 0.00000000e+00 0.00000000e+00 1.01376922e-02]"
1786901027.6689656,1.519900762261873e-12,-1.2534796746407355e-24,-2.1027624086400465e-12,"[9.98596143e-03 3.89987761e-18 0.00000000e+00 0.00000000e+00
 0.00000000e+00 7.83643662e-06 3.89987761e-18 9.97834699e-03
 0.00000000e+00 0.00000000e+00 0.00000000e+00 1.52758957e-14
 0.00000000e+00 0.00000000e+00 0.00000000e+00 0.00000000e+00
 0.00000000e+00 0.00000000e+00 0.00000000e+00 0.00000000e+00
 0.00000000e+00 0.00000000e+00 0.00000000e+00 0.00000000e+00
 0.00000000e+00 0.00000000e+00 0.00000000e+00 0.00000000e+00
 0.00000000e+00 0.00000000e+00 7.83643662e-06 1.52758957e-14
 0.00000000e+00 0.00000000e+00 0.00000000e+00 1.01375086e-02]"
1786901027.7185762,1.5190902773880364e-12,-1.251762691974355e-24,-2.1027624086400465e-12,"[9.98586195e-03 3.89294168e-18 0.00000000e+00 0.00000000e+00
 0.00000000e+00 7.83652658e-06 3.89294168e-18 9.97824742e-03
 0.00000000e+00 0.00000000e+00 0.00000000e+00 1.52675253e-14
 0.00000000e+00 0.00000000e+00 0.00000000e+00 0.00000000e+00
 0.00000000e+00 0.00000000e+00 0.00000000e+00 0.00000000e+00
 0.00000000e+00 0.00000000e+00 0.00000000e+00 0.00000000e+00
 0.00000000e+00 0.00000000e+00 0.00000000e+00 0.00000000e+00
 0.00000000e+00 0.00000000e+00 7.83652658e-06 1.52675253e-14
 0.00000000e+00 0.00000000e+00 0.00000000e+00 1.01374109e-02]"
1786901027.7730696,1.529519411331222e-12,-1.2737019343346849e-24,-2.1165291741453984e-12,"[9.98566335e-03 3.97277158e-18 0.00000000e+00 0.00000000e+00
 0.00000000e+00 7.83706141e-06 3.97277158e-18 9.97804829e-03
 0.00000000e+00 0.00000000e+00 0.00000000e+00 1.53729389e-14
 0.00000000e+00 0.00000000e+00 0.00000000e+00 0.00000000e+00
 0.00000000e+00 0.00000000e+00 0.00000000e+00 0.00000000e+00
 0.00000000e+00 0.00000000e+00 0.00000000e+00 0.00000000e+00
 0.00000000e+00 0.00000000e+00 0.00000000e+00 0.00000000e+00
 0.00000000e+00 0.00000000e+00 7.83706141e-06 1.53729389e-14
 0.00000000e+00 0.00000000e+00 0.00000000e+00 1.01372226e-02]"
1786901027.8208702,1.534630551297386e-12,-1.2845066499100233e-24,-2.1231905122931494e-12,"[9.98556403e-03 4.01190903e-18 0.00000000e+00 0.00000000e+00
 0.00000000e+00 7.83731111e-06 4.01190903e-18 9.97794873e-03
 0.00000000e+00 0.00000000e+00 0.00000000e+00 1.54245957e-14
 0.00000000e+00 0.00000000e+00 0.00000000e+00 0.00000000e+00
 0.00000000e+00 0.00000000e+00 0.00000000e+00 0.00000000e+00
 0.00000000e+00 0.00000000e+00 0.00000000e+00 0.00000000e+00
 0.00000000e+00 0.00000000e+00 0.00000000e+00 0.00000000e+00
 0.00000000e+00 0.00000000e+00 7.83731111e-06 1.54245957e-14
 0.00000000e+00 0.00000000e+00 0.00000000e+00 1.01371281e-02]"
1786901027.875294,1.5463358619109716e-12,-1.3093785189854722e-24,-2.1387336346379016e-12,"[9.98536565e-03 4.10127925e-18 0.00000000e+00 0.00000000e+00
 0.00000000e+00 7.83806259e-06 4.10127925e-18 9.97774962e-03
 0.00000000e+00 0.00000000e+00 0.00000000e+00 1.55429391e-14
 0.00000000e+00 0.00000000e+00 0.00000000e+00 0.00000000e+00
 0.00000000e+00 0.00000000e+00 0.00000000e+00 0.00000000e+00
 0.00000000e+00 0.00000000e+00 0.00000000e+00 0.00000000e+00
 0.00000000e+00 0.00000000e+00 0.00000000e+00 0.00000000e+00
 0.00000000e+00 0.00000000e+00 7.83806259e-06 1.55429391e-14
 0.00000000e+00 0.00000000e+00 0.00000000e+00 1.01369443e-02]"
1786901027.9242566,1.550692113754676e-12,-1.3186818843138484e-24,-2.1445067943659524e-12,"[9.98526623e-03 4.13472739e-18 0.00000000e+00 0.00000000e+00
 0.00000000e+00 7.83819982e-06 4.13472739e-18 9.97765006e-03
 0.00000000e+00 0.00000000e+00 0.00000000e+00 1.55869408e-14
 0.00000000e+00 0.00000000e+00 0.00000000e+00 0.00000000e+00
 0.00000000e+00 0.00000000e+00 0.00000000e+00 0.00000000e+00
 0.00000000e+00 0.00000000e+00 0.00000000e+00 0.00000000e+00
 0.00000000e+00 0.00000000e+00 0.00000000e+00 0.00000000e+00
 0.00000000e+00 0.00000000e+00 7.83819982e-06 1.55869408e-14
 0.00000000e+00 0.00000000e+00 0.00000000e+00 1.01368475e-02]"
1786901027.970567,1.5617584536740355e-12,-1.3424259760546265e-24,-2.1591617382910044e-12,"[9.98506775e-03 4.21929811e-18 0.00000000e+00 0.00000000e+00
 0.00000000e+00 7.83884370e-06 4.21929811e-18 9.97745096e-03
 0.00000000e+00 0.00000000e+00 0.00000000e+00 1.56988009e-14
 0.00000000e+00 0.00000000e+00 0.00000000e+00 0.00000000e+00
 0.00000000e+00 0.00000000e+00 0.00000000e+00 0.00000000e+00
 0.00000000e+00 0.00000000e+00 0.00000000e+00 0.00000000e+00
 0.00000000e+00 0.00000000e+00 0.00000000e+00 0.00000000e+00
 0.00000000e+00 0.00000000e+00 7.83884370e-06 1.56988009e-14
 0.00000000e+00 0.00000000e+00 0.00000000e+00 1.01366615e-02]"
1786901028.0245674,1.566843784086816e-12,-1.3533921612287413e-24,-2.1658230764387554e-12,"[9.98496844e-03 4.25823571e-18 0.00000000e+00 0.00000000e+00
 0.00000000e+00 7.83908613e-06 4.25823571e-18 9.97735141e-03
 0.00000000e+00 0.00000000e+00 0.00000000e+00 1.57501899e-14
 0.00000000e+00 0.00000000e+00 0.00000000e+00 0.00000000e+00
 0.00000000e+00 0.00000000e+00 0.00000000e+00 0.00000000e+00
 0.00000000e+00 0.00000000e+00 0.00000000e+00 0.00000000e+00
 0.00000000e+00 0.00000000e+00 0.00000000e+00 0.00000000e+00
 0.00000000e+00 0.00000000e+00 7.83908613e-06 1.57501899e-14
 0.00000000e+00 0.00000000e+00 0.00000000e+00 1.01365669e-02]"
1786901028.0693967,1.5776311354975586e-12,-1.3767673030128138e-24,-2.1804780203638074e-12,"[9.98476992e-03 4.34072925e-18 0.00000000e+00 0.00000000e+00
 0.00000000e+00 7.83967042e-06 4.34072925e-18 9.97715232e-03
 0.00000000e+00 0.00000000e+00 0.00000000e+00 1.58592157e-14
 0.00000000e+00 0.00000000e+00 0.00000000e+00 0.00000000e+00
 0.00000000e+00 0.00000000e+00 0.00000000e+00 0.00000000e+00
 0.00000000e+00 0.00000000e+00 0.00000000e+00 0.00000000e+00
 0.00000000e+00 0.00000000e+00 0.00000000e+00 0.00000000e+00
 0.00000000e+00 0.00000000e+00 7.83967042e-06 1.58592157e-14
 0.00000000e+00 0.00000000e+00 0.00000000e+00 1.01363796e-02]"
1786901028.1199856,1.5820237907884795e-12,-1.3863312028111105e-24,-2.1862511800918583e-12,"[9.98467051e-03 4.37444569e-18 0.00000000e+00 0.00000000e+00
 0.00000000e+00 7.83981108e-06 4.37444569e-18 9.97705278e-03
 0.00000000e+00 0.00000000e+00 0.00000000e+00 1.59035808e-14
 0.00000000e+00 0.00000000e+00 0.00000000e+00 0.00000000e+00
 0.00000000e+00 0.00000000e+00 0.00000000e+00 0.00000000e+00
 0.00000000e+00 0.00000000e+00 0.00000000e+00 0.00000000e+00
 0.00000000e+00 0.00000000e+00 0.00000000e+00 0.00000000e+00
 0.00000000e+00 0.00000000e+00 7.83981108e-06 1.59035808e-14
 0.00000000e+00 0.00000000e+00 0.00000000e+00 1.01362829e-02]"
1786901028.1702654,1.5928924697066502e-12,-1.410102283019529e-24,-2.2004620348070603e-12,"[9.98447202e-03 4.45753649e-18 0.00000000e+00 0.00000000e+00
 0.00000000e+00 7.84040744e-06 4.45753649e-18 9.97685370e-03
 0.00000000e+00 0.00000000e+00 0.00000000e+00 1.60134247e-14
 0.00000000e+00 0.00000000e+00 0.00000000e+00 0.00000000e+00
 0.00000000e+00 0.00000000e+00 0.00000000e+00 0.00000000e+00
 0.00000000e+00 0.00000000e+00 0.00000000e+00 0.00000000e+00
 0.00000000e+00 0.00000000e+00 0.00000000e+00 0.00000000e+00
 0.00000000e+00 0.00000000e+00 7.84040744e-06 1.60134247e-14
 0.00000000e+00 0.00000000e+00 0.00000000e+00 1.01360960e-02]"
1786901028.2189326,1.597779222528009e-12,-1.4208408416659011e-24,-2.2071233729548112e-12,"[9.98437269e-03 4.49497190e-18 0.00000000e+00 0.00000000e+00
 0.00000000e+00 7.84061823e-06 4.49497190e-18 9.97675416e-03
 0.00000000e+00 0.00000000e+00 0.00000000e+00 1.60627950e-14
 0.00000000e+00 0.00000000e+00 0.00000000e+00 0.00000000e+00
 0.00000000e+00 0.00000000e+00 0.00000000e+00 0.00000000e+00
 0.00000000e+00 0.00000000e+00 0.00000000e+00 0.00000000e+00
 0.00000000e+00 0.00000000e+00 0.00000000e+00 0.00000000e+00
 0.00000000e+00 0.00000000e+00 7.84061823e-06 1.60627950e-14
 0.00000000e+00 0.00000000e+00 0.00000000e+00 1.01360007e-02]"
1786901028.272885,1.6095743684073995e-12,-1.4468902806363281e-24,-2.2226664952995634e-12,"[9.98417436e-03 4.58495093e-18 0.00000000e+00 0.00000000e+00
 0.00000000e+00 7.84138245e-06 4.58495093e-18 9.97655510e-03
 0.00000000e+00 0.00000000e+00 0.00000000e+00 1.61820227e-14
 0.00000000e+00 0.00000000e+00 0.00000000e+00 0.00000000e+00
 0.00000000e+00 0.00000000e+00 0.00000000e+00 0.00000000e+00
 0.00000000e+00 0.00000000e+00 0.00000000e+00 0.00000000e+00
 0.00000000e+00 0.00000000e+00 0.00000000e+00 0.00000000e+00
 0.00000000e+00 0.00000000e+00 7.84138245e-06 1.61820227e-14
 0.00000000e+00 0.00000000e+00 0.00000000e+00 1.01358172e-02]"
1786901028.3190258,1.6159515974739505e-12,-1.4610497387596039e-24,-2.2311041902867146e-12,"[9.98407529e-03 4.63351227e-18 0.00000000e+00 0.00000000e+00
 0.00000000e+00 7.84185044e-06 4.63351227e-18 9.97645556e-03
 0.00000000e+00 0.00000000e+00 0.00000000e+00 1.62464964e-14
 0.00000000e+00 0.00000000e+00 0.00000000e+00 0.00000000e+00
 0.00000000e+00 0.00000000e+00 0.00000000e+00 0.00000000e+00
 0.00000000e+00 0.00000000e+00 0.00000000e+00 0.00000000e+00
 0.00000000e+00 0.00000000e+00 0.00000000e+00 0.00000000e+00
 0.00000000e+00 0.00000000e+00 7.84185044e-06 1.62464964e-14
 0.00000000e+00 0.00000000e+00 0.00000000e+00 1.01357272e-02]"
1786901028.3704793,1.6246621214733065e-12,-1.4804781584620175e-24,-2.2430945989526663e-12,"[9.98387654e-03 4.70027022e-18 0.00000000e+00 0.00000000e+00
 0.00000000e+00 7.84216121e-06 4.70027022e-18 9.97625651e-03
 0.00000000e+00 0.00000000e+00 0.00000000e+00 1.63344539e-14
 0.00000000e+00 0.00000000e+00 0.00000000e+00 0.00000000e+00
 0.00000000e+00 0.00000000e+00 0.00000000e+00 0.00000000e+00
 0.00000000e+00 0.00000000e+00 0.00000000e+00 0.00000000e+00
 0.00000000e+00 0.00000000e+00 0.00000000e+00 0.00000000e+00
 0.00000000e+00 0.00000000e+00 7.84216121e-06 1.63344539e-14
 0.00000000e+00 0.00000000e+00 0.00000000e+00 1.01355344e-02]"
1786901028.4220989,1.630862386791117e-12,-1.494370603786267e-24,-2.2515322939398175e-12,"[9.98377743e-03 4.74750971e-18 0.00000000e+00 0.00000000e+00
 0.00000000e+00 7.84259446e-06 4.74750971e-18 9.97615698e-03
 0.00000000e+00 0.00000000e+00 0.00000000e+00 1.63971307e-14
 0.00000000e+00 0.00000000e+00 0.00000000e+00 0.00000000e+00
 0.00000000e+00 0.00000000e+00 0.00000000e+00 0.00000000e+00
 0.00000000e+00 0.00000000e+00 0.00000000e+00 0.00000000e+00
 0.00000000e+00 0.00000000e+00 0.00000000e+00 0.00000000e+00
 0.00000000e+00 0.00000000e+00 7.84259446e-06 1.63971307e-14
 0.00000000e+00 0.00000000e+00 0.00000000e+00 1.01354437e-02]"
1786901028.4720702,1.6400046935256294e-12,-1.5149517375337071e-24,-2.263522702605769e-12,"[9.98357871e-03 4.81760554e-18 0.00000000e+00 0.00000000e+00
 0.00000000e+00 7.84292283e-06 4.81760554e-18 9.97595794e-03
 0.00000000e+00 0.00000000e+00 0.00000000e+00 1.64894588e-14
 0.00000000e+00 0.00000000e+00 0.00000000e+00 0.00000000e+00
 0.00000000e+00 0.00000000e+00 0.00000000e+00 0.00000000e+00
 0.00000000e+00 0.00000000e+00 0.00000000e+00 0.00000000e+00
 0.00000000e+00 0.00000000e+00 0.00000000e+00 0.00000000e+00
 0.00000000e+00 0.00000000e+00 7.84292283e-06 1.64894588e-14
 0.00000000e+00 0.00000000e+00 0.00000000e+00 1.01352513e-02]"
1786901028.5243108,1.6453142461557736e-12,-1.5269543825942309e-24,-2.27062812996337e-12,"[9.98347946e-03 4.85819580e-18 0.00000000e+00 0.00000000e+00
 0.00000000e+00 7.84319885e-06 4.85819580e-18 9.97585842e-03
 0.00000000e+00 0.00000000e+00 0.00000000e+00 1.65431051e-14
 0.00000000e+00 0.00000000e+00 0.00000000e+00 0.00000000e+00
 0.00000000e+00 0.00000000e+00 0.00000000e+00 0.00000000e+00
 0.00000000e+00 0.00000000e+00 0.00000000e+00 0.00000000e+00
 0.00000000e+00 0.00000000e+00 0.00000000e+00 0.00000000e+00
 0.00000000e+00 0.00000000e+00 7.84319885e-06 1.65431051e-14
 0.00000000e+00 0.00000000e+00 0.00000000e+00 1.01351574e-02]"
1786901028.5737665,1.6517131936391785e-12,-1.5414681944792052e-24,-2.2790658249505213e-12,"[9.98338041e-03 4.90689624e-18 0.00000000e+00 0.00000000e+00
 0.00000000e+00 7.84367052e-06 4.90689624e-18 9.97575891e-03
 0.00000000e+00 0.00000000e+00 0.00000000e+00 1.66077910e-14
 0.00000000e+00 0.00000000e+00 0.00000000e+00 0.00000000e+00
 0.00000000e+00 0.00000000e+00 0.00000000e+00 0.00000000e+00
 0.00000000e+00 0.00000000e+00 0.00000000e+00 0.00000000e+00
 0.00000000e+00 0.00000000e+00 0.00000000e+00 0.00000000e+00
 0.00000000e+00 0.00000000e+00 7.84367052e-06 1.66077910e-14
 0.00000000e+00 0.00000000e+00 0.00000000e+00 1.01350675e-02]"
1786901028.6240187,1.6612340879435103e-12,-1.56316586601014e-24,-2.291944412036173e-12,"[9.98318175e-03 4.97982452e-18 0.00000000e+00 0.00000000e+00
 0.00000000e+00 7.84405431e-06 4.97982452e-18 9.97555988e-03
 0.00000000e+00 0.00000000e+00 0.00000000e+00 1.67039483e-14
 0.00000000e+00 0.00000000e+00 0.00000000e+00 0.00000000e+00
 0.00000000e+00 0.00000000e+00 0.00000000e+00 0.00000000e+00
 0.00000000e+00 0.00000000e+00 0.00000000e+00 0.00000000e+00
 0.00000000e+00 0.00000000e+00 0.00000000e+00 0.00000000e+00
 0.00000000e+00 0.00000000e+00 7.84405431e-06 1.67039483e-14
 0.00000000e+00 0.00000000e+00 0.00000000e+00 1.01348762e-02]"
1786901028.672664,1.671666178534469e-12,-1.5870795827406293e-24,-2.305711177541525e-12,"[9.98298324e-03 5.05958192e-18 0.00000000e+00 0.00000000e+00
 0.00000000e+00 7.84457738e-06 5.05958192e-18 9.97536086e-03
 0.00000000e+00 0.00000000e+00 0.00000000e+00 1.68093361e-14
 0.00000000e+00 0.00000000e+00 0.00000000e+00 0.00000000e+00
 0.00000000e+00 0.00000000e+00 0.00000000e+00 0.00000000e+00
 0.00000000e+00 0.00000000e+00 0.00000000e+00 0.00000000e+00
 0.00000000e+00 0.00000000e+00 0.00000000e+00 0.00000000e+00
 0.00000000e+00 0.00000000e+00 7.84457738e-06 1.68093361e-14
 0.00000000e+00 0.00000000e+00 0.00000000e+00 1.01346879e-02]"
1786901028.7282796,1.676913466831851e-12,-1.5991619276067944e-24,-2.312816604899126e-12,"[9.98288400e-03 5.09969085e-18 0.00000000e+00 0.00000000e+00
 0.00000000e+00 7.84484402e-06 5.09969085e-18 9.97526135e-03
 0.00000000e+00 0.00000000e+00 0.00000000e+00 1.68623452e-14
 0.00000000e+00 0.00000000e+00 0.00000000e+00 0.00000000e+00
 0.00000000e+00 0.00000000e+00 0.00000000e+00 0.00000000e+00
 0.00000000e+00 0.00000000e+00 0.00000000e+00 0.00000000e+00
 0.00000000e+00 0.00000000e+00 0.00000000e+00 0.00000000e+00
 0.00000000e+00 0.00000000e+00 7.84484402e-06 1.68623452e-14
 0.00000000e+00 0.00000000e+00 0.00000000e+00 1.01345938e-02]"
1786901028.7706022,1.6880880242384845e-12,-1.625014589927847e-24,-2.327471548824178e-12,"[9.98268562e-03 5.18497620e-18 0.00000000e+00 0.00000000e+00
 0.00000000e+00 7.84549270e-06 5.18497620e-18 9.97506234e-03
 0.00000000e+00 0.00000000e+00 0.00000000e+00 1.69752510e-14
 0.00000000e+00 0.00000000e+00 0.00000000e+00 0.00000000e+00
 0.00000000e+00 0.00000000e+00 0.00000000e+00 0.00000000e+00
 0.00000000e+00 0.00000000e+00 0.00000000e+00 0.00000000e+00
 0.00000000e+00 0.00000000e+00 0.00000000e+00 0.00000000e+00
 0.00000000e+00 0.00000000e+00 7.84549270e-06 1.69752510e-14
 0.00000000e+00 0.00000000e+00 0.00000000e+00 1.01344079e-02]"
1786901028.822838,1.6932856473267884e-12,-1.6370951353848518e-24,-2.334576976181779e-12,"[9.98258638e-03 5.22470490e-18 0.00000000e+00 0.00000000e+00
 0.00000000e+00 7.84575221e-06 5.22470490e-18 9.97496284e-03
 0.00000000e+00 0.00000000e+00 0.00000000e+00 1.70277536e-14
 0.00000000e+00 0.00000000e+00 0.00000000e+00 0.00000000e+00
 0.00000000e+00 0.00000000e+00 0.00000000e+00 0.00000000e+00
 0.00000000e+00 0.00000000e+00 0.00000000e+00 0.00000000e+00
 0.00000000e+00 0.00000000e+00 0.00000000e+00 0.00000000e+00
 0.00000000e+00 0.00000000e+00 7.84575221e-06 1.70277536e-14
 0.00000000e+00 0.00000000e+00 0.00000000e+00 1.01343137e-02]"
1786901028.868957,1.7035375713580664e-12,-1.6610304300702033e-24,-2.348343741687131e-12,"[9.98238787e-03 5.30307738e-18 0.00000000e+00 0.00000000e+00
 0.00000000e+00 7.84625068e-06 5.30307738e-18 9.97476385e-03
 0.00000000e+00 0.00000000e+00 0.00000000e+00 1.71313033e-14
 0.00000000e+00 0.00000000e+00 0.00000000e+00 0.00000000e+00
 0.00000000e+00 0.00000000e+00 0.00000000e+00 0.00000000e+00
 0.00000000e+00 0.00000000e+00 0.00000000e+00 0.00000000e+00
 0.00000000e+00 0.00000000e+00 0.00000000e+00 0.00000000e+00
 0.00000000e+00 0.00000000e+00 7.84625068e-06 1.71313033e-14
 0.00000000e+00 0.00000000e+00 0.00000000e+00 1.01341248e-02]"
1786901028.91919,1.7087065640102837e-12,-1.6731518660268722e-24,-2.355005079834882e-12,"[9.98228862e-03 5.34258193e-18 0.00000000e+00 0.00000000e+00
 0.00000000e+00 7.84650695e-06 5.34258193e-18 9.97466435e-03
 0.00000000e+00 0.00000000e+00 0.00000000e+00 1.71835126e-14
 0.00000000e+00 0.00000000e+00 0.00000000e+00 0.00000000e+00
 0.00000000e+00 0.00000000e+00 0.00000000e+00 0.00000000e+00
 0.00000000e+00 0.00000000e+00 0.00000000e+00 0.00000000e+00
 0.00000000e+00 0.00000000e+00 0.00000000e+00 0.00000000e+00
 0.00000000e+00 0.00000000e+00 7.84650695e-06 1.71835126e-14
 0.00000000e+00 0.00000000e+00 0.00000000e+00 1.01340305e-02]"
1786901028.968996,1.7197335548203593e-12,-1.6991249049085827e-24,-2.369660023759934e-12,"[9.98209025e-03 5.42671704e-18 0.00000000e+00 0.00000000e+00
 0.00000000e+00 7.84713881e-06 5.42671704e-18 9.97446537e-03
 0.00000000e+00 0.00000000e+00 0.00000000e+00 1.72949103e-14
 0.00000000e+00 0.00000000e+00 0.00000000e+00 0.00000000e+00
 0.00000000e+00 0.00000000e+00 0.00000000e+00 0.00000000e+00
 0.00000000e+00 0.00000000e+00 0.00000000e+00 0.00000000e+00
 0.00000000e+00 0.00000000e+00 0.00000000e+00 0.00000000e+00
 0.00000000e+00 0.00000000e+00 7.84713881e-06 1.72949103e-14
 0.00000000e+00 0.00000000e+00 0.00000000e+00 1.01338444e-02]"
1786901029.0190282,1.7246488038095375e-12,-1.710754853810811e-24,-2.376321361907685e-12,"[9.98199098e-03 5.46431105e-18 0.00000000e+00 0.00000000e+00
 0.00000000e+00 7.84735725e-06 5.46431105e-18 9.97436588e-03
 0.00000000e+00 0.00000000e+00 0.00000000e+00 1.73445453e-14
 0.00000000e+00 0.00000000e+00 0.00000000e+00 0.00000000e+00
 0.00000000e+00 0.00000000e+00 0.00000000e+00 0.00000000e+00
 0.00000000e+00 0.00000000e+00 0.00000000e+00 0.00000000e+00
 0.00000000e+00 0.00000000e+00 0.00000000e+00 0.00000000e+00
 0.00000000e+00 0.00000000e+00 7.84735725e-06 1.73445453e-14
 0.00000000e+00 0.00000000e+00 0.00000000e+00 1.01337493e-02]"
1786901029.0688028,1.7352817587168802e-12,-1.736024810070421e-24,-2.390532216622887e-12,"[9.98179256e-03 5.54548011e-18 0.00000000e+00 0.00000000e+00
 0.00000000e+00 7.84792794e-06 5.54548011e-18 9.97416691e-03
 0.00000000e+00 0.00000000e+00 0.00000000e+00 1.74519437e-14
 0.00000000e+00 0.00000000e+00 0.00000000e+00 0.00000000e+00
 0.00000000e+00 0.00000000e+00 0.00000000e+00 0.00000000e+00
 0.00000000e+00 0.00000000e+00 0.00000000e+00 0.00000000e+00
 0.00000000e+00 0.00000000e+00 0.00000000e+00 0.00000000e+00
 0.00000000e+00 0.00000000e+00 7.84792794e-06 1.74519437e-14
 0.00000000e+00 0.00000000e+00 0.00000000e+00 1.01335620e-02]"
1786901029.1196778,1.7405474191783635e-12,-1.748594626231229e-24,-2.397637643980488e-12,"[9.98169335e-03 5.58568621e-18 0.00000000e+00 0.00000000e+00
 0.00000000e+00 7.84820308e-06 5.58568621e-18 9.97406742e-03
 0.00000000e+00 0.00000000e+00 0.00000000e+00 1.75051265e-14
 0.00000000e+00 0.00000000e+00 0.00000000e+00 0.00000000e+00
 0.00000000e+00 0.00000000e+00 0.00000000e+00 0.00000000e+00
 0.00000000e+00 0.00000000e+00 0.00000000e+00 0.00000000e+00
 0.00000000e+00 0.00000000e+00 0.00000000e+00 0.00000000e+00
 0.00000000e+00 0.00000000e+00 7.84820308e-06 1.75051265e-14
 0.00000000e+00 0.00000000e+00 0.00000000e+00 1.01334681e-02]"
1786901029.189193,1.744184903764586e-12,-1.757273514507724e-24,-2.403854892918389e-12,"[9.98149483e-03 5.61220932e-18 0.00000000e+00 0.00000000e+00
 0.00000000e+00 7.84865795e-06 5.61220932e-18 9.97386846e-03
 0.00000000e+00 0.00000000e+00 0.00000000e+00 1.75416320e-14
 0.00000000e+00 0.00000000e+00 0.00000000e+00 0.00000000e+00
 0.00000000e+00 0.00000000e+00 0.00000000e+00 0.00000000e+00
 0.00000000e+00 0.00000000e+00 0.00000000e+00 0.00000000e+00
 0.00000000e+00 0.00000000e+00 0.00000000e+00 0.00000000e+00
 0.00000000e+00 0.00000000e+00 7.84865795e-06 1.75416320e-14
 0.00000000e+00 0.00000000e+00 0.00000000e+00 1.01332784e-02]"
1786901029.2186515,1.742970525716626e-12,-1.7543364757813826e-24,-2.403854892918389e-12,"[9.98139575e-03 5.60125437e-18 0.00000000e+00 0.00000000e+00
 0.00000000e+00 7.84906124e-06 5.60125437e-18 9.97376899e-03
 0.00000000e+00 0.00000000e+00 0.00000000e+00 1.75291486e-14
 0.00000000e+00 0.00000000e+00 0.00000000e+00 0.00000000e+00
 0.00000000e+00 0.00000000e+00 0.00000000e+00 0.00000000e+00
 0.00000000e+00 0.00000000e+00 0.00000000e+00 0.00000000e+00
 0.00000000e+00 0.00000000e+00 0.00000000e+00 0.00000000e+00
 0.00000000e+00 0.00000000e+00 7.84906124e-06 1.75291486e-14
 0.00000000e+00 0.00000000e+00 0.00000000e+00 1.01331871e-02]"
1786901029.2715771,1.7409480113358722e-12,-1.749439017177025e-24,-2.403854892918389e-12,"[9.98119725e-03 5.58333086e-18 0.00000000e+00 0.00000000e+00
 0.00000000e+00 7.84952600e-06 5.58333086e-18 9.97357004e-03
 0.00000000e+00 0.00000000e+00 0.00000000e+00 1.75082999e-14
 0.00000000e+00 0.00000000e+00 0.00000000e+00 0.00000000e+00
 0.00000000e+00 0.00000000e+00 0.00000000e+00 0.00000000e+00
 0.00000000e+00 0.00000000e+00 0.00000000e+00 0.00000000e+00
 0.00000000e+00 0.00000000e+00 0.00000000e+00 0.00000000e+00
 0.00000000e+00 0.00000000e+00 7.84952600e-06 1.75082999e-14
 0.00000000e+00 0.00000000e+00 0.00000000e+00 1.01329976e-02]"
1786901029.3308835,1.7398213847561179e-12,-1.7467129979138404e-24,-2.403854892918389e-12,"[9.98109810e-03 5.57324805e-18 0.00000000e+00 0.00000000e+00
 0.00000000e+00 7.84985058e-06 5.57324805e-18 9.97347057e-03
 0.00000000e+00 0.00000000e+00 0.00000000e+00 1.74967066e-14
 0.00000000e+00 0.00000000e+00 0.00000000e+00 0.00000000e+00
 0.00000000e+00 0.00000000e+00 0.00000000e+00 0.00000000e+00
 0.00000000e+00 0.00000000e+00 0.00000000e+00 0.00000000e+00
 0.00000000e+00 0.00000000e+00 0.00000000e+00 0.00000000e+00
 0.00000000e+00 0.00000000e+00 7.84985058e-06 1.74967066e-14
 0.00000000e+00 0.00000000e+00 0.00000000e+00 1.01329047e-02]"
1786901029.3716278,1.7377464902678242e-12,-1.74168979467899e-24,-2.403854892918389e-12,"[9.98089978e-03 5.55450976e-18 0.00000000e+00 0.00000000e+00
 0.00000000e+00 7.85048786e-06 5.55450976e-18 9.97327163e-03
 0.00000000e+00 0.00000000e+00 0.00000000e+00 1.74753280e-14
 0.00000000e+00 0.00000000e+00 0.00000000e+00 0.00000000e+00
 0.00000000e+00 0.00000000e+00 0.00000000e+00 0.00000000e+00
 0.00000000e+00 0.00000000e+00 0.00000000e+00 0.00000000e+00
 0.00000000e+00 0.00000000e+00 0.00000000e+00 0.00000000e+00
 0.00000000e+00 0.00000000e+00 7.85048786e-06 1.74753280e-14
 0.00000000e+00 0.00000000e+00 0.00000000e+00 1.01327187e-02]"
1786901029.4208696,1.7366597812953732e-12,-1.7390598095146497e-24,-2.403854892918389e-12,"[9.98080060e-03 5.54481898e-18 0.00000000e+00 0.00000000e+00
 0.00000000e+00 7.85077854e-06 5.54481898e-18 9.97317217e-03
 0.00000000e+00 0.00000000e+00 0.00000000e+00 1.74641399e-14
 0.00000000e+00 0.00000000e+00 0.00000000e+00 0.00000000e+00
 0.00000000e+00 0.00000000e+00 0.00000000e+00 0.00000000e+00
 0.00000000e+00 0.00000000e+00 0.00000000e+00 0.00000000e+00
 0.00000000e+00 0.00000000e+00 0.00000000e+00 0.00000000e+00
 0.00000000e+00 0.00000000e+00 7.85077854e-06 1.74641399e-14
 0.00000000e+00 0.00000000e+00 0.00000000e+00 1.01326251e-02]"
1786901029.4789243,1.7345557543646817e-12,-1.7339667213033527e-24,-2.403854892918389e-12,"[9.98060219e-03 5.52610757e-18 0.00000000e+00 0.00000000e+00
 0.00000000e+00 7.85130607e-06 5.52610757e-18 9.97297324e-03
 0.00000000e+00 0.00000000e+00 0.00000000e+00 1.74424676e-14
 0.00000000e+00 0.00000000e+00 0.00000000e+00 0.00000000e+00
 0.00000000e+00 0.00000000e+00 0.00000000e+00 0.00000000e+00
 0.00000000e+00 0.00000000e+00 0.00000000e+00 0.00000000e+00
 0.00000000e+00 0.00000000e+00 0.00000000e+00 0.00000000e+00
 0.00000000e+00 0.00000000e+00 7.85130607e-06 1.74424676e-14
 0.00000000e+00 0.00000000e+00 0.00000000e+00 1.01324369e-02]"
1786901029.518716,1.7324916981612538e-12,-1.7289698219189653e-24,-2.403854892918389e-12,"[9.98040376e-03 5.50779019e-18 0.00000000e+00 0.00000000e+00
