time,x,y,yaw,cov_prop,K_gain,innovation
1786944969.2676508,0.0,0.0,0.0,"[9.99750619e-03 0.00000000e+00 0.00000000e+00 0.00000000e+00
 0.00000000e+00 5.73091863e-09 0.00000000e+00 9.99750062e-03
 0.00000000e+00 0.00000000e+00 0.00000000e+00 0.00000000e+00
 0.00000000e+00 0.00000000e+00 0.00000000e+00 0.00000000e+00
 0.00000000e+00 0.00000000e+00 0.00000000e+00 0.00000000e+00
 0.00000000e+00 0.00000000e+00 0.00000000e+00 0.00000000e+00
 0.00000000e+00 0.00000000e+00 0.00000000e+00 0.00000000e+00
 0.00000000e+00 0.00000000e+00 5.73091863e-09 0.00000000e+00
 0.00000000e+00 0.00000000e+00 0.00000000e+00 9.99761702e-03]","[[9.99750619e-06 0.00000000e+00 5.73091863e-12]
 [0.00000000e+00 9.99750062e-06 0.00000000e+00]
 [5.73091863e-12 0.00000000e+00 9.99761702e-06]]",[0. 0. 0.]
1786944969.3249054,0.0,0.0,0.0,"[9.99730650e-03 0.00000000e+00 0.00000000e+00 0.00000000e+00
 0.00000000e+00 5.93908575e-09 0.00000000e+00 9.99730073e-03
 0.00000000e+00 0.00000000e+00 0.00000000e+00 0.00000000e+00
 0.00000000e+00 0.00000000e+00 0.00000000e+00 0.00000000e+00
 0.00000000e+00 0.00000000e+00 0.00000000e+00 0.00000000e+00
 0.00000000e+00 0.00000000e+00 0.00000000e+00 0.00000000e+00
 0.00000000e+00 0.00000000e+00 0.00000000e+00 0.00000000e+00
 0.00000000e+00 0.00000000e+00 5.93908575e-09 0.00000000e+00
 0.00000000e+00 0.00000000e+00 0.00000000e+00 9.99742135e-03]","[[9.99730650e-06 0.00000000e+00 5.93908575e-12]
 [0.00000000e+00 9.99730073e-06 0.00000000e+00]
 [5.93908575e-12 0.00000000e+00 9.99742135e-06]]",[0. 0. 0.]
1786944969.3680696,0.0,0.0,0.0,"[9.99700726e-03 0.00000000e+00 0.00000000e+00 0.00000000e+00
 0.00000000e+00 6.54360192e-09 0.00000000e+00 9.99700090e-03
 0.00000000e+00 0.00000000e+00 0.00000000e+00 0.00000000e+00
 0.00000000e+00 0.00000000e+00 0.00000000e+00 0.00000000e+00
 0.00000000e+00 0.00000000e+00 0.00000000e+00 0.00000000e+00
 0.00000000e+00 0.00000000e+00 0.00000000e+00 0.00000000e+00
 0.00000000e+00 0.00000000e+00 0.00000000e+00 0.00000000e+00
 0.00000000e+00 0.00000000e+00 6.54360192e-09 0.00000000e+00
 0.00000000e+00 0.00000000e+00 0.00000000e+00 9.99713380e-03]","[[9.99700726e-06 0.00000000e+00 6.54360192e-12]
 [0.00000000e+00 9.99700090e-06 0.00000000e+00]
 [6.54360192e-12 0.00000000e+00 9.99713380e-06]]",[0. 0. 0.]
1786944969.4171476,0.0,0.0,0.0,"[9.99670789e-03 0.00000000e+00 0.00000000e+00 0.00000000e+00
 0.00000000e+00 6.99893277e-09 0.00000000e+00 9.99670109e-03
 0.00000000e+00 0.00000000e+00 0.00000000e+00 0.00000000e+00
 0.00000000e+00 0.00000000e+00 0.00000000e+00 0.00000000e+00
 0.00000000e+00 0.00000000e+00 0.00000000e+00 0.00000000e+00
 0.00000000e+00 0.00000000e+00 0.00000000e+00 0.00000000e+00
 0.00000000e+00 0.00000000e+00 0.00000000e+00 0.00000000e+00
 0.00000000e+00 0.00000000e+00 6.99893277e-09 0.00000000e+00
 0.00000000e+00 0.00000000e+00 0.00000000e+00 9.99684324e-03]","[[9.99670789e-06 0.00000000e+00 6.99893277e-12]
 [0.00000000e+00 9.99670109e-06 0.00000000e+00]
 [6.99893277e-12 0.00000000e+00 9.99684324e-06]]",[0. 0. 0.]
1786944969.467205,0.0,0.0,0.0,"[9.99650834e-03 0.00000000e+00 0.00000000e+00 0.00000000e+00
 0.00000000e+00 7.32144790e-09 0.00000000e+00 9.99650122e-03
 0.00000000e+00 0.00000000e+00 0.00000000e+00 0.00000000e+00
 0.00000000e+00 0.00000000e+00 0.00000000e+00 0.00000000e+00
 0.00000000e+00 0.00000000e+00 0.00000000e+00 0.00000000e+00
 0.00000000e+00 0.00000000e+00 0.00000000e+00 0.00000000e+00
 0.00000000e+00 0.00000000e+00 0.00000000e+00 0.00000000e+00
 0.00000000e+00 0.00000000e+00 7.32144790e-09 0.00000000e+00
 0.00000000e+00 0.00000000e+00 0.00000000e+00 9.99664993e-03]","[[9.99650834e-06 0.00000000e+00 7.32144790e-12]
 [0.00000000e+00 9.99650122e-06 0.00000000e+00]
 [7.32144790e-12 0.00000000e+00 9.99664993e-06]]",[0. 0. 0.]
1786944969.516929,0.0,0.0,0.0,"[9.99620908e-03 0.00000000e+00 0.00000000e+00 0.00000000e+00
 0.00000000e+00 7.85906952e-09 0.00000000e+00 9.99620144e-03
 0.00000000e+00 0.00000000e+00 0.00000000e+00 0.00000000e+00
 0.00000000e+00 0.00000000e+00 0.00000000e+00 0.00000000e+00
 0.00000000e+00 0.00000000e+00 0.00000000e+00 0.00000000e+00
 0.00000000e+00 0.00000000e+00 0.00000000e+00 0.00000000e+00
 0.00000000e+00 0.00000000e+00 0.00000000e+00 0.00000000e+00
 0.00000000e+00 0.00000000e+00 7.85906952e-09 0.00000000e+00
 0.00000000e+00 0.00000000e+00 0.00000000e+00 9.99636106e-03]","[[9.99620908e-06 0.00000000e+00 7.85906952e-12]
 [0.00000000e+00 9.99620144e-06 0.00000000e+00]
 [7.85906952e-12 0.00000000e+00 9.99636106e-06]]",[0. 0. 0.]
1786944969.5676603,0.0,0.0,0.0,"[9.99600952e-03 0.00000000e+00 0.00000000e+00 0.00000000e+00
 0.00000000e+00 8.15300900e-09 0.00000000e+00 9.99600160e-03
 0.00000000e+00 0.00000000e+00 0.00000000e+00 0.00000000e+00
 0.00000000e+00 0.00000000e+00 0.00000000e+00 0.00000000e+00
 0.00000000e+00 0.00000000e+00 0.00000000e+00 0.00000000e+00
 0.00000000e+00 0.00000000e+00 0.00000000e+00 0.00000000e+00
 0.00000000e+00 0.00000000e+00 0.00000000e+00 0.00000000e+00
 0.00000000e+00 0.00000000e+00 8.15300900e-09 0.00000000e+00
 0.00000000e+00 0.00000000e+00 0.00000000e+00 9.99616719e-03]","[[9.99600952e-06 0.00000000e+00 8.15300900e-12]
 [0.00000000e+00 9.99600160e-06 0.00000000e+00]
 [8.15300900e-12 0.00000000e+00 9.99616719e-06]]",[0. 0. 0.]
1786944969.6174133,0.0,0.0,0.0,"[9.99571022e-03 0.00000000e+00 0.00000000e+00 0.00000000e+00
 0.00000000e+00 8.62046876e-09 0.00000000e+00 9.99570185e-03
 0.00000000e+00 0.00000000e+00 0.00000000e+00 0.00000000e+00
 0.00000000e+00 0.00000000e+00 0.00000000e+00 0.00000000e+00
 0.00000000e+00 0.00000000e+00 0.00000000e+00 0.00000000e+00
 0.00000000e+00 0.00000000e+00 0.00000000e+00 0.00000000e+00
 0.00000000e+00 0.00000000e+00 0.00000000e+00 0.00000000e+00
 0.00000000e+00 0.00000000e+00 8.62046876e-09 0.00000000e+00
 0.00000000e+00 0.00000000e+00 0.00000000e+00 9.99587693e-03]","[[9.99571022e-06 0.00000000e+00 8.62046876e-12]
 [0.00000000e+00 9.99570185e-06 0.00000000e+00]
 [8.62046876e-12 0.00000000e+00 9.99587693e-06]]",[0. 0. 0.]
1786944969.6690693,0.0,0.0,0.0,"[9.99551071e-03 0.00000000e+00 0.00000000e+00 0.00000000e+00
 0.00000000e+00 8.94357061e-09 0.00000000e+00 9.99550202e-03
 0.00000000e+00 0.00000000e+00 0.00000000e+00 0.00000000e+00
 0.00000000e+00 0.00000000e+00 0.00000000e+00 0.00000000e+00
 0.00000000e+00 0.00000000e+00 0.00000000e+00 0.00000000e+00
 0.00000000e+00 0.00000000e+00 0.00000000e+00 0.00000000e+00
 0.00000000e+00 0.00000000e+00 0.00000000e+00 0.00000000e+00
 0.00000000e+00 0.00000000e+00 8.94357061e-09 0.00000000e+00
 0.00000000e+00 0.00000000e+00 0.00000000e+00 9.99568367e-03]","[[9.99551071e-06 0.00000000e+00 8.94357061e-12]
 [0.00000000e+00 9.99550202e-06 0.00000000e+00]
 [8.94357061e-12 0.00000000e+00 9.99568367e-06]]",[0. 0. 0.]
1786944969.7172647,0.0,0.0,0.0,"[9.99531122e-03 0.00000000e+00 0.00000000e+00 0.00000000e+00
 0.00000000e+00 9.27438477e-09 0.00000000e+00 9.99530221e-03
 0.00000000e+00 0.00000000e+00 0.00000000e+00 0.00000000e+00
 0.00000000e+00 0.00000000e+00 0.00000000e+00 0.00000000e+00
 0.00000000e+00 0.00000000e+00 0.00000000e+00 0.00000000e+00
 0.00000000e+00 0.00000000e+00 0.00000000e+00 0.00000000e+00
 0.00000000e+00 0.00000000e+00 0.00000000e+00 0.00000000e+00
 0.00000000e+00 0.00000000e+00 9.27438477e-09 0.00000000e+00
 0.00000000e+00 0.00000000e+00 0.00000000e+00 9.99549057e-03]","[[9.99531122e-06 0.00000000e+00 9.27438477e-12]
 [0.00000000e+00 9.99530221e-06 0.00000000e+00]
 [9.27438477e-12 0.00000000e+00 9.99549057e-06]]",[0. 0. 0.]
1786944969.7686296,0.0,0.0,0.0,"[9.99501196e-03 0.00000000e+00 0.00000000e+00 0.00000000e+00
 0.00000000e+00 9.73733211e-09 0.00000000e+00 9.99500250e-03
 0.00000000e+00 0.00000000e+00 0.00000000e+00 0.00000000e+00
 0.00000000e+00 0.00000000e+00 0.00000000e+00 0.00000000e+00
 0.00000000e+00 0.00000000e+00 0.00000000e+00 0.00000000e+00
 0.00000000e+00 0.00000000e+00 0.00000000e+00 0.00000000e+00
 0.00000000e+00 0.00000000e+00 0.00000000e+00 0.00000000e+00
 0.00000000e+00 0.00000000e+00 9.73733211e-09 0.00000000e+00
 0.00000000e+00 0.00000000e+00 0.00000000e+00 9.99520027e-03]","[[9.99501196e-06 0.00000000e+00 9.73733211e-12]
 [0.00000000e+00 9.99500250e-06 0.00000000e+00]
 [9.73733211e-12 0.00000000e+00 9.99520027e-06]]",[0. 0. 0.]
1786944969.819009,0.0,0.0,0.0,"[9.99501196e-03 0.00000000e+00 0.00000000e+00 0.00000000e+00
 0.00000000e+00 9.73733211e-09 0.00000000e+00 9.99500250e-03
 0.00000000e+00 0.00000000e+00 0.00000000e+00 0.00000000e+00
 0.00000000e+00 0.00000000e+00 0.00000000e+00 0.00000000e+00
 0.00000000e+00 0.00000000e+00 0.00000000e+00 0.00000000e+00
 0.00000000e+00 0.00000000e+00 0.00000000e+00 0.00000000e+00
 0.00000000e+00 0.00000000e+00 0.00000000e+00 0.00000000e+00
 0.00000000e+00 0.00000000e+00 9.73733211e-09 0.00000000e+00
 0.00000000e+00 0.00000000e+00 0.00000000e+00 9.99520027e-03]","[[9.99501196e-06 0.00000000e+00 9.73733211e-12]
 [0.00000000e+00 9.99500250e-06 0.00000000e+00]
 [9.73733211e-12 0.00000000e+00 9.99520027e-06]]",[0. 0. 0.]
1786944969.8679314,0.0,0.0,0.0,"[9.99501196e-03 0.00000000e+00 0.00000000e+00 0.00000000e+00
 0.00000000e+00 9.73733211e-09 0.00000000e+00 9.99500250e-03
 0.00000000e+00 0.00000000e+00 0.00000000e+00 0.00000000e+00
 0.00000000e+00 0.00000000e+00 0.00000000e+00 0.00000000e+00
 0.00000000e+00 0.00000000e+00 0.00000000e+00 0.00000000e+00
 0.00000000e+00 0.00000000e+00 0.00000000e+00 0.00000000e+00
 0.00000000e+00 0.00000000e+00 0.00000000e+00 0.00000000e+00
 0.00000000e+00 0.00000000e+00 9.73733211e-09 0.00000000e+00
 0.00000000e+00 0.00000000e+00 0.00000000e+00 9.99520027e-03]","[[9.99501196e-06 0.00000000e+00 9.73733211e-12]
 [0.00000000e+00 9.99500250e-06 0.00000000e+00]
 [9.73733211e-12 0.00000000e+00 9.99520027e-06]]",[0. 0. 0.]
1786944969.9179182,0.0,0.0,0.0,"[9.99501196e-03 0.00000000e+00 0.00000000e+00 0.00000000e+00
 0.00000000e+00 9.73733211e-09 0.00000000e+00 9.99500250e-03
 0.00000000e+00 0.00000000e+00 0.00000000e+00 0.00000000e+00
 0.00000000e+00 0.00000000e+00 0.00000000e+00 0.00000000e+00
 0.00000000e+00 0.00000000e+00 0.00000000e+00 0.00000000e+00
 0.00000000e+00 0.00000000e+00 0.00000000e+00 0.00000000e+00
 0.00000000e+00 0.00000000e+00 0.00000000e+00 0.00000000e+00
 0.00000000e+00 0.00000000e+00 9.73733211e-09 0.00000000e+00
 0.00000000e+00 0.00000000e+00 0.00000000e+00 9.99520027e-03]","[[9.99501196e-06 0.00000000e+00 9.73733211e-12]
 [0.00000000e+00 9.99500250e-06 0.00000000e+00]
 [9.73733211e-12 0.00000000e+00 9.99520027e-06]]",[0. 0. 0.]
1786944969.9673953,0.0,0.0,0.0,"[9.99501196e-03 0.00000000e+00 0.00000000e+00 0.00000000e+00
 0.00000000e+00 9.73733211e-09 0.00000000e+00 9.99500250e-03
 0.00000000e+00 0.00000000e+00 0.00000000e+00 0.00000000e+00
 0.00000000e+00 0.00000000e+00 0.00000000e+00 0.00000000e+00
 0.00000000e+00 0.00000000e+00 0.00000000e+00 0.00000000e+00
 0.00000000e+00 0.00000000e+00 0.00000000e+00 0.00000000e+00
 0.00000000e+00 0.00000000e+00 0.00000000e+00 0.00000000e+00
 0.00000000e+00 0.00000000e+00 9.73733211e-09 0.00000000e+00
 0.00000000e+00 0.00000000e+00 0.00000000e+00 9.99520027e-03]","[[9.99501196e-06 0.00000000e+00 9.73733211e-12]
 [0.00000000e+00 9.99500250e-06 0.00000000e+00]
 [9.73733211e-12 0.00000000e+00 9.99520027e-06]]",[0. 0. 0.]
1786944970.0182095,0.0,0.0,0.0,"[9.99501196e-03 0.00000000e+00 0.00000000e+00 0.00000000e+00
 0.00000000e+00 9.73733211e-09 0.00000000e+00 9.99500250e-03
 0.00000000e+00 0.00000000e+00 0.00000000e+00 0.00000000e+00
 0.00000000e+00 0.00000000e+00 0.00000000e+00 0.00000000e+00
 0.00000000e+00 0.00000000e+00 0.00000000e+00 0.00000000e+00
 0.00000000e+00 0.00000000e+00 0.00000000e+00 0.00000000e+00
 0.00000000e+00 0.00000000e+00 0.00000000e+00 0.00000000e+00
 0.00000000e+00 0.00000000e+00 9.73733211e-09 0.00000000e+00
 0.00000000e+00 0.00000000e+00 0.00000000e+00 9.99520027e-03]","[[9.99501196e-06 0.00000000e+00 9.73733211e-12]
 [0.00000000e+00 9.99500250e-06 0.00000000e+00]
 [9.73733211e-12 0.00000000e+00 9.99520027e-06]]",[0. 0. 0.]
1786944970.067554,0.0,0.0,0.0,"[9.99501196e-03 0.00000000e+00 0.00000000e+00 0.00000000e+00
 0.00000000e+00 9.73733211e-09 0.00000000e+00 9.99500250e-03
 0.00000000e+00 0.00000000e+00 0.00000000e+00 0.00000000e+00
 0.00000000e+00 0.00000000e+00 0.00000000e+00 0.00000000e+00
 0.00000000e+00 0.00000000e+00 0.00000000e+00 0.00000000e+00
 0.00000000e+00 0.00000000e+00 0.00000000e+00 0.00000000e+00
 0.00000000e+00 0.00000000e+00 0.00000000e+00 0.00000000e+00
 0.00000000e+00 0.00000000e+00 9.73733211e-09 0.00000000e+00
 0.00000000e+00 0.00000000e+00 0.00000000e+00 9.99520027e-03]","[[9.99501196e-06 0.00000000e+00 9.73733211e-12]
 [0.00000000e+00 9.99500250e-06 0.00000000e+00]
 [9.73733211e-12 0.00000000e+00 9.99520027e-06]]",[0. 0. 0.]
1786944970.1199198,0.0,0.0,0.0,"[9.99485462e-03 0.00000000e+00 0.00000000e+00 0.00000000e+00
 0.00000000e+00 5.34374027e-08 0.00000000e+00 9.99480270e-03
 0.00000000e+00 0.00000000e+00 0.00000000e+00 0.00000000e+00
 0.00000000e+00 0.00000000e+00 0.00000000e+00 0.00000000e+00
 0.00000000e+00 0.00000000e+00 0.00000000e+00 0.00000000e+00
 0.00000000e+00 0.00000000e+00 0.00000000e+00 0.00000000e+00
 0.00000000e+00 0.00000000e+00 0.00000000e+00 0.00000000e+00
 0.00000000e+00 0.00000000e+00 5.34374027e-08 0.00000000e+00
 0.00000000e+00 0.00000000e+00 0.00000000e+00 9.99588804e-03]","[[9.99485462e-06 0.00000000e+00 5.34374027e-11]
 [0.00000000e+00 9.99480270e-06 0.00000000e+00]
 [5.34374027e-11 0.00000000e+00 9.99588804e-06]]",[0. 0. 0.]
1786944970.1676788,2.261474858608675e-21,-2.9617992739857943e-52,0.0,"[9.99455521e-03 1.21136860e-28 0.00000000e+00 0.00000000e+00
 0.00000000e+00 5.37118088e-08 1.21136860e-28 9.99450302e-03
 0.00000000e+00 0.00000000e+00 0.00000000e+00 2.26047777e-23
 0.00000000e+00 0.00000000e+00 0.00000000e+00 0.00000000e+00
 0.00000000e+00 0.00000000e+00 0.00000000e+00 0.00000000e+00
 0.00000000e+00 0.00000000e+00 0.00000000e+00 0.00000000e+00
 0.00000000e+00 0.00000000e+00 0.00000000e+00 0.00000000e+00
 0.00000000e+00 0.00000000e+00 5.37118088e-08 2.26047777e-23
 0.00000000e+00 0.00000000e+00 0.00000000e+00 9.99559393e-03]","[[9.99455521e-06 1.21136860e-31 5.37118088e-11]
 [1.21136860e-31 9.99450302e-06 2.26047777e-26]
 [5.37118088e-11 2.26047777e-26 9.99559393e-06]]",[-2.26149746e-21  2.22294489e-53  0.00000000e+00]
1786944970.2181585,8.205960358478733e-21,-4.797051764572999e-51,0.0,"[9.99425601e-03 4.42059072e-28 0.00000000e+00 0.00000000e+00
 0.00000000e+00 5.41856654e-08 4.42059072e-28 9.99420336e-03
 0.00000000e+00 0.00000000e+00 0.00000000e+00 8.20210150e-23
 0.00000000e+00 0.00000000e+00 0.00000000e+00 0.00000000e+00
 0.00000000e+00 0.00000000e+00 0.00000000e+00 0.00000000e+00
 0.00000000e+00 0.00000000e+00 0.00000000e+00 0.00000000e+00
 0.00000000e+00 0.00000000e+00 0.00000000e+00 0.00000000e+00
 0.00000000e+00 0.00000000e+00 5.41856654e-08 8.20210150e-23
 0.00000000e+00 0.00000000e+00 0.00000000e+00 9.99530390e-03]","[[9.99425601e-06 4.42059072e-31 5.41856654e-11]
 [4.42059072e-31 9.99420336e-06 8.20210150e-26]
 [5.41856654e-11 8.20210150e-26 9.99530390e-06]]",[-8.20604237e-21  1.16950798e-51  0.00000000e+00]
1786944970.2672632,5.137972724724215e-21,-1.2705412068035617e-50,0.0,"[9.99405654e-03 2.74725901e-28 0.00000000e+00 0.00000000e+00
 0.00000000e+00 5.44880383e-08 2.74725901e-28 9.99400360e-03
 0.00000000e+00 0.00000000e+00 0.00000000e+00 5.13544977e-23
 0.00000000e+00 0.00000000e+00 0.00000000e+00 0.00000000e+00
 0.00000000e+00 0.00000000e+00 0.00000000e+00 0.00000000e+00
 0.00000000e+00 0.00000000e+00 0.00000000e+00 0.00000000e+00
 0.00000000e+00 0.00000000e+00 0.00000000e+00 0.00000000e+00
 0.00000000e+00 0.00000000e+00 5.44880383e-08 5.13544977e-23
 0.00000000e+00 0.00000000e+00 0.00000000e+00 9.99511027e-03]","[[9.99405654e-06 2.74725901e-31 5.44880383e-11]
 [2.74725901e-31 9.99400360e-06 5.13544977e-26]
 [5.44880383e-11 5.13544977e-26 9.99511027e-06]]",[-5.13802407e-21  1.12939766e-50  0.00000000e+00]
1786944970.3173656,6.852185290500255e-21,-2.024715546603689e-50,0.0,"[9.99375735e-03 3.68118105e-28 0.00000000e+00 0.00000000e+00
 0.00000000e+00 5.49450880e-08 3.68118105e-28 9.99370397e-03
 0.00000000e+00 0.00000000e+00 0.00000000e+00 6.84861880e-23
 0.00000000e+00 0.00000000e+00 0.00000000e+00 0.00000000e+00
 0.00000000e+00 0.00000000e+00 0.00000000e+00 0.00000000e+00
 0.00000000e+00 0.00000000e+00 0.00000000e+00 0.00000000e+00
 0.00000000e+00 0.00000000e+00 0.00000000e+00 0.00000000e+00
 0.00000000e+00 0.00000000e+00 5.49450880e-08 6.84861880e-23
 0.00000000e+00 0.00000000e+00 0.00000000e+00 9.99481992e-03]","[[9.99375735e-06 3.68118105e-31 5.49450880e-11]
 [3.68118105e-31 9.99370397e-06 6.84861880e-26]
 [5.49450880e-11 6.84861880e-26 9.99481992e-06]]",[-6.85225377e-21  1.77248939e-50  0.00000000e+00]
1786944970.3678033,5.2845632336402255e-21,-2.256055680797186e-50,0.0,"[9.99355790e-03 2.82171385e-28 0.00000000e+00 0.00000000e+00
 0.00000000e+00 5.52474940e-08 2.82171385e-28 9.99350422e-03
 0.00000000e+00 0.00000000e+00 0.00000000e+00 5.28170360e-23
 0.00000000e+00 0.00000000e+00 0.00000000e+00 0.00000000e+00
 0.00000000e+00 0.00000000e+00 0.00000000e+00 0.00000000e+00
 0.00000000e+00 0.00000000e+00 0.00000000e+00 0.00000000e+00
 0.00000000e+00 0.00000000e+00 0.00000000e+00 0.00000000e+00
 0.00000000e+00 0.00000000e+00 5.52474940e-08 5.28170360e-23
 0.00000000e+00 0.00000000e+00 0.00000000e+00 9.99462632e-03]","[[9.99355790e-06 2.82171385e-31 5.52474940e-11]
 [2.82171385e-31 9.99350422e-06 5.28170360e-26]
 [5.52474940e-11 5.28170360e-26 9.99462632e-06]]",[-5.28461605e-21  2.10695999e-50  0.00000000e+00]
1786944970.4176292,3.994597878658389e-21,-2.504122509406902e-50,0.0,"[9.99325877e-03 2.10907791e-28 0.00000000e+00 0.00000000e+00
 0.00000000e+00 5.57338442e-08 2.10907791e-28 9.99320462e-03
 0.00000000e+00 0.00000000e+00 0.00000000e+00 3.99231176e-23
 0.00000000e+00 0.00000000e+00 0.00000000e+00 0.00000000e+00
 0.00000000e+00 0.00000000e+00 0.00000000e+00 0.00000000e+00
 0.00000000e+00 0.00000000e+00 0.00000000e+00 0.00000000e+00
 0.00000000e+00 0.00000000e+00 0.00000000e+00 0.00000000e+00
 0.00000000e+00 0.00000000e+00 5.57338442e-08 3.99231176e-23
 0.00000000e+00 0.00000000e+00 0.00000000e+00 9.99433660e-03]","[[9.99325877e-06 2.10907791e-31 5.57338442e-11]
 [2.10907791e-31 9.99320462e-06 3.99231176e-26]
 [5.57338442e-11 3.99231176e-26 9.99433660e-06]]",[-3.99463780e-21  2.41989667e-50  0.00000000e+00]
1786944970.4676282,2.814248385320844e-21,-2.8145614888196506e-50,0.0,"[9.99305933e-03 1.44514651e-28 0.00000000e+00 0.00000000e+00
 0.00000000e+00 5.60243064e-08 1.44514651e-28 9.99300490e-03
 0.00000000e+00 0.00000000e+00 0.00000000e+00 2.81257331e-23
 0.00000000e+00 0.00000000e+00 0.00000000e+00 0.00000000e+00
 0.00000000e+00 0.00000000e+00 0.00000000e+00 0.00000000e+00
 0.00000000e+00 0.00000000e+00 0.00000000e+00 0.00000000e+00
 0.00000000e+00 0.00000000e+00 0.00000000e+00 0.00000000e+00
 0.00000000e+00 0.00000000e+00 5.60243064e-08 2.81257331e-23
 0.00000000e+00 0.00000000e+00 0.00000000e+00 9.99414277e-03]","[[9.99305933e-06 1.44514651e-31 5.60243064e-11]
 [1.44514651e-31 9.99300490e-06 2.81257331e-26]
 [5.60243064e-11 2.81257331e-26 9.99414277e-06]]",[-2.81427651e-21  2.77391879e-50  0.00000000e+00]
1786944970.5206761,-1.4913787999729793e-21,-2.8308023829929445e-50,0.0,"[ 9.99276020e-03 -9.72746869e-29  0.00000000e+00  0.00000000e+00
  0.00000000e+00  5.64764851e-08 -9.72746869e-29  9.99270533e-03
  0.00000000e+00  0.00000000e+00  0.00000000e+00 -1.49048845e-23
  0.00000000e+00  0.00000000e+00  0.00000000e+00  0.00000000e+00
  0.00000000e+00  0.00000000e+00  0.00000000e+00  0.00000000e+00
  0.00000000e+00  0.00000000e+00  0.00000000e+00  0.00000000e+00
  0.00000000e+00  0.00000000e+00  0.00000000e+00  0.00000000e+00
  0.00000000e+00  0.00000000e+00  5.64764851e-08 -1.49048845e-23
  0.00000000e+00  0.00000000e+00  0.00000000e+00  9.99385239e-03]","[[ 9.99276020e-06 -9.72746869e-32  5.64764851e-11]
 [-9.72746869e-32  9.99270533e-06 -1.49048845e-26]
 [ 5.64764851e-11 -1.49048845e-26  9.99385239e-06]]",[1.49139370e-21 2.81632304e-50 0.00000000e+00]
1786944970.567426,-9.251167076396842e-21,-3.3852880824600803e-50,0.0,"[ 9.99256082e-03 -5.36576970e-28  0.00000000e+00  0.00000000e+00
  0.00000000e+00  5.68107269e-08 -5.36576970e-28  9.99250562e-03
  0.00000000e+00  0.00000000e+00  0.00000000e+00 -9.24532371e-23
  0.00000000e+00  0.00000000e+00  0.00000000e+00  0.00000000e+00
  0.00000000e+00  0.00000000e+00  0.00000000e+00  0.00000000e+00
  0.00000000e+00  0.00000000e+00  0.00000000e+00  0.00000000e+00
  0.00000000e+00  0.00000000e+00  0.00000000e+00  0.00000000e+00
  0.00000000e+00  0.00000000e+00  5.68107269e-08 -9.24532371e-23
  0.00000000e+00  0.00000000e+00  0.00000000e+00  9.99365947e-03]","[[ 9.99256082e-06 -5.36576970e-31  5.68107269e-11]
 [-5.36576970e-31  9.99250562e-06 -9.24532371e-26]
 [ 5.68107269e-11 -9.24532371e-26  9.99365947e-06]]",[9.25125952e-21 2.88891567e-50 0.00000000e+00]
1786944970.6177354,-1.5173658765524398e-20,-5.916067598354244e-50,0.0,"[ 9.99226170e-03 -8.74457087e-28  0.00000000e+00  0.00000000e+00
  0.00000000e+00  5.72466798e-08 -8.74457087e-28  9.99220608e-03
  0.00000000e+00  0.00000000e+00  0.00000000e+00 -1.51636086e-22
  0.00000000e+00  0.00000000e+00  0.00000000e+00  0.00000000e+00
  0.00000000e+00  0.00000000e+00  0.00000000e+00  0.00000000e+00
  0.00000000e+00  0.00000000e+00  0.00000000e+00  0.00000000e+00
  0.00000000e+00  0.00000000e+00  0.00000000e+00  0.00000000e+00
  0.00000000e+00  0.00000000e+00  5.72466798e-08 -1.51636086e-22
  0.00000000e+00  0.00000000e+00  0.00000000e+00  9.99336878e-03]","[[ 9.99226170e-06 -8.74457087e-31  5.72466798e-11]
 [-8.74457087e-31  9.99220608e-06 -1.51636086e-25]
 [ 5.72466798e-11 -1.51636086e-25  9.99336878e-06]]",[1.51738104e-20 4.58922885e-50 0.00000000e+00]
1786944970.6673715,-1.494519260859709e-20,-7.203341816400278e-50,0.0,"[ 9.99216208e-03 -8.61360909e-28  0.00000000e+00  0.00000000e+00
  0.00000000e+00  5.74762975e-08 -8.61360909e-28  9.99210624e-03
  0.00000000e+00  0.00000000e+00  0.00000000e+00 -1.49351447e-22
  0.00000000e+00  0.00000000e+00  0.00000000e+00  0.00000000e+00
  0.00000000e+00  0.00000000e+00  0.00000000e+00  0.00000000e+00
  0.00000000e+00  0.00000000e+00  0.00000000e+00  0.00000000e+00
  0.00000000e+00  0.00000000e+00  0.00000000e+00  0.00000000e+00
  0.00000000e+00  0.00000000e+00  5.74762975e-08 -1.49351447e-22
  0.00000000e+00  0.00000000e+00  0.00000000e+00  9.99327360e-03]","[[ 9.99216208e-06 -8.61360909e-31  5.74762975e-11]
 [-8.61360909e-31  9.99210624e-06 -1.49351447e-25]
 [ 5.74762975e-11 -1.49351447e-25  9.99327360e-06]]",[1.49453419e-20 5.91606760e-50 0.00000000e+00]
1786944970.7226932,-1.4292427496718005e-20,-1.0925436770078688e-49,0.0,"[ 9.99176331e-03 -8.24632551e-28  0.00000000e+00  0.00000000e+00
  0.00000000e+00  5.80741932e-08 -8.24632551e-28  9.99170688e-03
  0.00000000e+00  0.00000000e+00  0.00000000e+00 -1.42822495e-22
  0.00000000e+00  0.00000000e+00  0.00000000e+00  0.00000000e+00
  0.00000000e+00  0.00000000e+00  0.00000000e+00  0.00000000e+00
  0.00000000e+00  0.00000000e+00  0.00000000e+00  0.00000000e+00
  0.00000000e+00  0.00000000e+00  0.00000000e+00  0.00000000e+00
  0.00000000e+00  0.00000000e+00  5.80741932e-08 -1.42822495e-22
  0.00000000e+00  0.00000000e+00  0.00000000e+00  9.99288640e-03]","[[ 9.99176331e-06 -8.24632551e-31  5.80741932e-11]
 [-8.24632551e-31  9.99170688e-06 -1.42822495e-25]
 [ 5.80741932e-11 -1.42822495e-25  9.99288640e-06]]",[1.42925703e-20 9.74692229e-50 0.00000000e+00]
1786944970.7738137,-1.5658194839097847e-20,-1.3771621431373029e-49,0.0,"[ 9.99156401e-03 -9.03897438e-28  0.00000000e+00  0.00000000e+00
  0.00000000e+00  5.84513512e-08 -9.03897438e-28  9.99150722e-03
  0.00000000e+00  0.00000000e+00  0.00000000e+00 -1.56467325e-22
  0.00000000e+00  0.00000000e+00  0.00000000e+00  0.00000000e+00
  0.00000000e+00  0.00000000e+00  0.00000000e+00  0.00000000e+00
  0.00000000e+00  0.00000000e+00  0.00000000e+00  0.00000000e+00
  0.00000000e+00  0.00000000e+00  0.00000000e+00  0.00000000e+00
  0.00000000e+00  0.00000000e+00  5.84513512e-08 -1.56467325e-22
  0.00000000e+00  0.00000000e+00  0.00000000e+00  9.99269439e-03]","[[ 9.99156401e-06 -9.03897438e-31  5.84513512e-11]
 [-9.03897438e-31  9.99150722e-06 -1.56467325e-25]
 [ 5.84513512e-11 -1.56467325e-25  9.99269439e-06]]",[1.56583513e-20 1.23563905e-49 0.00000000e+00]
1786944970.8218222,-1.810613447301536e-20,-1.756163463587672e-49,0.0,"[ 9.99136460e-03 -1.04694135e-27  0.00000000e+00  0.00000000e+00
  0.00000000e+00  5.87070571e-08 -1.04694135e-27  9.99130756e-03
  0.00000000e+00  0.00000000e+00  0.00000000e+00 -1.80925222e-22
  0.00000000e+00  0.00000000e+00  0.00000000e+00  0.00000000e+00
  0.00000000e+00  0.00000000e+00  0.00000000e+00  0.00000000e+00
  0.00000000e+00  0.00000000e+00  0.00000000e+00  0.00000000e+00
  0.00000000e+00  0.00000000e+00  0.00000000e+00  0.00000000e+00
  0.00000000e+00  0.00000000e+00  5.87070571e-08 -1.80925222e-22
  0.00000000e+00  0.00000000e+00  0.00000000e+00  9.99249993e-03]","[[ 9.99136460e-06 -1.04694135e-30  5.87070571e-11]
 [-1.04694135e-30  9.99130756e-06 -1.80925222e-25]
 [ 5.87070571e-11 -1.80925222e-25  9.99249993e-06]]",[1.81063154e-20 1.56661661e-49 0.00000000e+00]
1786944970.8671675,-3.185655125541024e-20,-3.083096783647606e-49,0.0,"[ 9.99106561e-03 -1.85663963e-27  0.00000000e+00  0.00000000e+00
  0.00000000e+00  5.91922054e-08 -1.85663963e-27  9.99100809e-03
  0.00000000e+00  0.00000000e+00  0.00000000e+00 -3.18316771e-22
  0.00000000e+00  0.00000000e+00  0.00000000e+00  0.00000000e+00
  0.00000000e+00  0.00000000e+00  0.00000000e+00  0.00000000e+00
  0.00000000e+00  0.00000000e+00  0.00000000e+00  0.00000000e+00
  0.00000000e+00  0.00000000e+00  0.00000000e+00  0.00000000e+00
  0.00000000e+00  0.00000000e+00  5.91922054e-08 -3.18316771e-22
  0.00000000e+00  0.00000000e+00  0.00000000e+00  9.99221031e-03]","[[ 9.99106561e-06 -1.85663963e-30  5.91922054e-11]
 [-1.85663963e-30  9.99100809e-06 -3.18316771e-25]
 [ 5.91922054e-11 -3.18316771e-25  9.99221031e-06]]",[3.18568695e-20 2.49165441e-49 0.00000000e+00]
1786944970.9218276,-3.371000829157734e-20,-4.455925520070178e-49,0.0,"[ 9.99086626e-03 -1.96609675e-27  0.00000000e+00  0.00000000e+00
  0.00000000e+00  5.94930262e-08 -1.96609675e-27  9.99080846e-03
  0.00000000e+00  0.00000000e+00  0.00000000e+00 -3.36830168e-22
  0.00000000e+00  0.00000000e+00  0.00000000e+00  0.00000000e+00
  0.00000000e+00  0.00000000e+00  0.00000000e+00  0.00000000e+00
  0.00000000e+00  0.00000000e+00  0.00000000e+00  0.00000000e+00
  0.00000000e+00  0.00000000e+00  0.00000000e+00  0.00000000e+00
  0.00000000e+00  0.00000000e+00  5.94930262e-08 -3.36830168e-22
  0.00000000e+00  0.00000000e+00  0.00000000e+00  9.99201679e-03]","[[ 9.99086626e-06 -1.96609675e-30  5.94930262e-11]
 [-1.96609675e-30  9.99080846e-06 -3.36830168e-25]
 [ 5.94930262e-11 -3.36830168e-25  9.99201679e-06]]",[3.37103451e-20 3.79318542e-49 0.00000000e+00]
1786944970.9690406,-3.685178154875574e-20,-6.5555544968793355e-49,0.0,"[ 9.99056727e-03 -2.15394147e-27  0.00000000e+00  0.00000000e+00
  0.00000000e+00  5.99555748e-08 -2.15394147e-27  9.99050902e-03
  0.00000000e+00  0.00000000e+00  0.00000000e+00 -3.68211804e-22
  0.00000000e+00  0.00000000e+00  0.00000000e+00  0.00000000e+00
  0.00000000e+00  0.00000000e+00  0.00000000e+00  0.00000000e+00
  0.00000000e+00  0.00000000e+00  0.00000000e+00  0.00000000e+00
  0.00000000e+00  0.00000000e+00  0.00000000e+00  0.00000000e+00
  0.00000000e+00  0.00000000e+00  5.99555748e-08 -3.68211804e-22
  0.00000000e+00  0.00000000e+00  0.00000000e+00  9.99172674e-03]","[[ 9.99056727e-06 -2.15394147e-30  5.99555748e-11]
 [-2.15394147e-30  9.99050902e-06 -3.68211804e-25]
 [ 5.99555748e-11 -3.68211804e-25  9.99172674e-06]]",[3.68521497e-20 5.76183833e-49 0.00000000e+00]
1786944971.0203955,-3.708294120724947e-20,-8.147750861079263e-49,0.0,"[ 9.99036796e-03 -2.16777997e-27  0.00000000e+00  0.00000000e+00
  0.00000000e+00  6.02663258e-08 -2.16777997e-27  9.99030940e-03
  0.00000000e+00  0.00000000e+00  0.00000000e+00 -3.70514085e-22
  0.00000000e+00  0.00000000e+00  0.00000000e+00  0.00000000e+00
  0.00000000e+00  0.00000000e+00  0.00000000e+00  0.00000000e+00
  0.00000000e+00  0.00000000e+00  0.00000000e+00  0.00000000e+00
  0.00000000e+00  0.00000000e+00  0.00000000e+00  0.00000000e+00
  0.00000000e+00  0.00000000e+00  6.02663258e-08 -3.70514085e-22
  0.00000000e+00  0.00000000e+00  0.00000000e+00  9.99153344e-03]","[[ 9.99036796e-06 -2.16777997e-30  6.02663258e-11]
 [-2.16777997e-30  9.99030940e-06 -3.70514085e-25]
 [ 6.02663258e-11 -3.70514085e-25  9.99153344e-06]]",[3.70833117e-20 7.34393963e-49 0.00000000e+00]
1786944971.0688224,-3.684813190741802e-20,-1.0534164912640168e-48,0.0,"[ 9.99006903e-03 -2.15375559e-27  0.00000000e+00  0.00000000e+00
  0.00000000e+00  6.07606703e-08 -2.15375559e-27  9.99000999e-03
  0.00000000e+00  0.00000000e+00  0.00000000e+00 -3.68156950e-22
  0.00000000e+00  0.00000000e+00  0.00000000e+00  0.00000000e+00
  0.00000000e+00  0.00000000e+00  0.00000000e+00  0.00000000e+00
  0.00000000e+00  0.00000000e+00  0.00000000e+00  0.00000000e+00
  0.00000000e+00  0.00000000e+00  0.00000000e+00  0.00000000e+00
  0.00000000e+00  0.00000000e+00  6.07606703e-08 -3.68156950e-22
  0.00000000e+00  0.00000000e+00  0.00000000e+00  9.99124407e-03]","[[ 9.99006903e-06 -2.15375559e-30  6.07606703e-11]
 [-2.15375559e-30  9.99000999e-06 -3.68156950e-25]
 [ 6.07606703e-11 -3.68156950e-25  9.99124407e-06]]",[3.68485000e-20 9.74063559e-49 0.00000000e+00]
1786944971.1241996,-3.81573719535872e-20,-1.2235210527239884e-48,0.0,"[ 9.98986973e-03 -2.23322846e-27  0.00000000e+00  0.00000000e+00
  0.00000000e+00  6.10696851e-08 -2.23322846e-27  9.98981039e-03
  0.00000000e+00  0.00000000e+00  0.00000000e+00 -3.81230269e-22
  0.00000000e+00  0.00000000e+00  0.00000000e+00  0.00000000e+00
  0.00000000e+00  0.00000000e+00  0.00000000e+00  0.00000000e+00
  0.00000000e+00  0.00000000e+00  0.00000000e+00  0.00000000e+00
  0.00000000e+00  0.00000000e+00  0.00000000e+00  0.00000000e+00
  0.00000000e+00  0.00000000e+00  6.10696851e-08 -3.81230269e-22
  0.00000000e+00  0.00000000e+00  0.00000000e+00  9.99105075e-03]","[[ 9.98986973e-06 -2.23322846e-30  6.10696851e-11]
 [-2.23322846e-30  9.98981039e-06 -3.81230269e-25]
 [ 6.10696851e-11 -3.81230269e-25  9.99105075e-06]]",[3.81577531e-20 1.13831744e-48 0.00000000e+00]
1786944971.1696117,-3.852932924091407e-20,-1.4505474767198708e-48,0.0,"[ 9.98957089e-03 -2.25772429e-27  0.00000000e+00  0.00000000e+00
  0.00000000e+00  6.16200583e-08 -2.25772429e-27  9.98951101e-03
  0.00000000e+00  0.00000000e+00  0.00000000e+00 -3.84935015e-22
  0.00000000e+00  0.00000000e+00  0.00000000e+00  0.00000000e+00
  0.00000000e+00  0.00000000e+00  0.00000000e+00  0.00000000e+00
  0.00000000e+00  0.00000000e+00  0.00000000e+00  0.00000000e+00
  0.00000000e+00  0.00000000e+00  0.00000000e+00  0.00000000e+00
  0.00000000e+00  0.00000000e+00  6.16200583e-08 -3.84935015e-22
  0.00000000e+00  0.00000000e+00  0.00000000e+00  9.99076254e-03]","[[ 9.98957089e-06 -2.25772429e-30  6.16200583e-11]
 [-2.25772429e-30  9.98951101e-06 -3.84935015e-25]
 [ 6.16200583e-11 -3.84935015e-25  9.99076254e-06]]",[3.85297141e-20 1.36357163e-48 0.00000000e+00]
1786944971.2211752,-3.825488377014751e-20,-1.7085576808160407e-48,0.0,"[ 9.98927197e-03 -2.24064486e-27  0.00000000e+00  0.00000000e+00
  0.00000000e+00  6.20792139e-08 -2.24064486e-27  9.98921165e-03
  0.00000000e+00  0.00000000e+00  0.00000000e+00 -3.82181640e-22
  0.00000000e+00  0.00000000e+00  0.00000000e+00  0.00000000e+00
  0.00000000e+00  0.00000000e+00  0.00000000e+00  0.00000000e+00
  0.00000000e+00  0.00000000e+00  0.00000000e+00  0.00000000e+00
  0.00000000e+00  0.00000000e+00  0.00000000e+00  0.00000000e+00
  0.00000000e+00  0.00000000e+00  6.20792139e-08 -3.82181640e-22
  0.00000000e+00  0.00000000e+00  0.00000000e+00  9.99047251e-03]","[[ 9.98937160e-06 -2.29685077e-30  6.19234737e-11]
 [-2.29685077e-30  9.98931144e-06 -3.91246337e-25]
 [ 6.19234737e-11 -3.91246337e-25  9.99056913e-06]]",[3.91622182e-20 1.53292297e-48 0.00000000e+00]
1786944971.2675102,-4.235541310369592e-20,-1.922708645217508e-48,0.0,"[ 9.98907281e-03 -2.49502046e-27  0.00000000e+00  0.00000000e+00
  0.00000000e+00  6.24988782e-08 -2.49502046e-27  9.98901209e-03
  0.00000000e+00  0.00000000e+00  0.00000000e+00 -4.23139409e-22
  0.00000000e+00  0.00000000e+00  0.00000000e+00  0.00000000e+00
  0.00000000e+00  0.00000000e+00  0.00000000e+00  0.00000000e+00
  0.00000000e+00  0.00000000e+00  0.00000000e+00  0.00000000e+00
  0.00000000e+00  0.00000000e+00  0.00000000e+00  0.00000000e+00
  0.00000000e+00  0.00000000e+00  6.24988782e-08 -4.23139409e-22
  0.00000000e+00  0.00000000e+00  0.00000000e+00  9.99028147e-03]","[[ 9.98907281e-06 -2.49502046e-30  6.24988782e-11]
 [-2.49502046e-30  9.98901209e-06 -4.23139409e-25]
 [ 6.24988782e-11 -4.23139409e-25  9.99028147e-06]]",[4.23558362e-20 1.81704812e-48 0.00000000e+00]
1786944971.316952,-4.463893633315878e-20,-2.2706475682699527e-48,0.0,"[ 9.98877384e-03 -2.63768702e-27  0.00000000e+00  0.00000000e+00
  0.00000000e+00  6.28705145e-08 -2.63768702e-27  9.98871275e-03
  0.00000000e+00  0.00000000e+00  0.00000000e+00 -4.45939086e-22
  0.00000000e+00  0.00000000e+00  0.00000000e+00  0.00000000e+00
  0.00000000e+00  0.00000000e+00  0.00000000e+00  0.00000000e+00
  0.00000000e+00  0.00000000e+00  0.00000000e+00  0.00000000e+00
  0.00000000e+00  0.00000000e+00  0.00000000e+00  0.00000000e+00
  0.00000000e+00  0.00000000e+00  6.28705145e-08 -4.45939086e-22
  0.00000000e+00  0.00000000e+00  0.00000000e+00  9.98998968e-03]","[[ 9.98877384e-06 -2.63768702e-30  6.28705145e-11]
 [-2.63768702e-30  9.98871275e-06 -4.45939086e-25]
 [ 6.28705145e-11 -4.45939086e-25  9.98998968e-06]]",[4.46393822e-20 2.15292435e-48 0.00000000e+00]
1786944971.3679724,-5.085537554517585e-20,-2.5481428940285248e-48,0.0,"[ 9.98857460e-03 -3.02919113e-27  0.00000000e+00  0.00000000e+00
  0.00000000e+00  6.31864412e-08 -3.02919113e-27  9.98851321e-03
  0.00000000e+00  0.00000000e+00  0.00000000e+00 -5.08031115e-22
  0.00000000e+00  0.00000000e+00  0.00000000e+00  0.00000000e+00
  0.00000000e+00  0.00000000e+00  0.00000000e+00  0.00000000e+00
  0.00000000e+00  0.00000000e+00  0.00000000e+00  0.00000000e+00
  0.00000000e+00  0.00000000e+00  0.00000000e+00  0.00000000e+00
  0.00000000e+00  0.00000000e+00  6.31864412e-08 -5.08031115e-22
  0.00000000e+00  0.00000000e+00  0.00000000e+00  9.98979655e-03]","[[ 9.98857460e-06 -3.02919113e-30  6.31864412e-11]
 [-3.02919113e-30  9.98851321e-06 -5.08031115e-25]
 [ 6.31864412e-11 -5.08031115e-25  9.98979655e-06]]",[5.08558835e-20 2.39411462e-48 0.00000000e+00]
1786944971.4172587,-5.426479956114832e-20,-2.7241843599111346e-48,0.0,"[ 9.98847498e-03 -3.24455560e-27  0.00000000e+00  0.00000000e+00
  0.00000000e+00  6.33332824e-08 -3.24455560e-27  9.98841344e-03
  0.00000000e+00  0.00000000e+00  0.00000000e+00 -5.42085152e-22
  0.00000000e+00  0.00000000e+00  0.00000000e+00  0.00000000e+00
  0.00000000e+00  0.00000000e+00  0.00000000e+00  0.00000000e+00
  0.00000000e+00  0.00000000e+00  0.00000000e+00  0.00000000e+00
  0.00000000e+00  0.00000000e+00  0.00000000e+00  0.00000000e+00
  0.00000000e+00  0.00000000e+00  6.33332824e-08 -5.42085152e-22
  0.00000000e+00  0.00000000e+00  0.00000000e+00  9.98969977e-03]","[[ 9.98847498e-06 -3.24455560e-30  6.33332824e-11]
 [-3.24455560e-30  9.98841344e-06 -5.42085152e-25]
 [ 6.33332824e-11 -5.42085152e-25  9.98969977e-06]]",[5.42653416e-20 2.54814289e-48 0.00000000e+00]
1786944971.4678798,-6.499872719608996e-20,-3.4811892434967544e-48,0.0,"[ 9.98817659e-03 -3.92597522e-27  0.00000000e+00  0.00000000e+00
  0.00000000e+00  6.42715403e-08 -3.92597522e-27  9.98811414e-03
  0.00000000e+00  0.00000000e+00  0.00000000e+00 -6.49294446e-22
  0.00000000e+00  0.00000000e+00  0.00000000e+00  0.00000000e+00
  0.00000000e+00  0.00000000e+00  0.00000000e+00  0.00000000e+00
  0.00000000e+00  0.00000000e+00  0.00000000e+00  0.00000000e+00
  0.00000000e+00  0.00000000e+00  0.00000000e+00  0.00000000e+00
  0.00000000e+00  0.00000000e+00  6.42715403e-08 -6.49294446e-22
  0.00000000e+00  0.00000000e+00  0.00000000e+00  9.98941953e-03]","[[ 9.98817659e-06 -3.92597522e-30  6.42715403e-11]
 [-3.92597522e-30  9.98811414e-06 -6.49294446e-25]
 [ 6.42715403e-11 -6.49294446e-25  9.98941953e-06]]",[6.49993764e-20 3.22603552e-48 0.00000000e+00]
1786944971.5170593,-7.09993283729605e-20,-4.4003319926527416e-48,0.0,"[ 9.98787778e-03 -4.31123933e-27  0.00000000e+00  0.00000000e+00
  0.00000000e+00  6.47494102e-08 -4.31123933e-27  9.98781487e-03
  0.00000000e+00  0.00000000e+00  0.00000000e+00 -7.09215711e-22
  0.00000000e+00  0.00000000e+00  0.00000000e+00  0.00000000e+00
  0.00000000e+00  0.00000000e+00  0.00000000e+00  0.00000000e+00
  0.00000000e+00  0.00000000e+00  0.00000000e+00  0.00000000e+00
  0.00000000e+00  0.00000000e+00  0.00000000e+00  0.00000000e+00
  0.00000000e+00  0.00000000e+00  6.47494102e-08 -7.09215711e-22
  0.00000000e+00  0.00000000e+00  0.00000000e+00  9.98912995e-03]","[[ 9.98787778e-06 -4.31123933e-30  6.47494102e-11]
 [-4.31123933e-30  9.98781487e-06 -7.09215711e-25]
 [ 6.47494102e-11 -7.09215711e-25  9.98912995e-06]]",[7.10000375e-20 4.09427473e-48 0.00000000e+00]
1786944971.5676727,-7.671570444137049e-20,-5.1295802523937354e-48,0.0,"[ 9.98767855e-03 -4.68101415e-27  0.00000000e+00  0.00000000e+00
  0.00000000e+00  6.50382810e-08 -4.68101415e-27  9.98761536e-03
  0.00000000e+00  0.00000000e+00  0.00000000e+00 -7.66302022e-22
  0.00000000e+00  0.00000000e+00  0.00000000e+00  0.00000000e+00
  0.00000000e+00  0.00000000e+00  0.00000000e+00  0.00000000e+00
  0.00000000e+00  0.00000000e+00  0.00000000e+00  0.00000000e+00
  0.00000000e+00  0.00000000e+00  0.00000000e+00  0.00000000e+00
  0.00000000e+00  0.00000000e+00  6.50382810e-08 -7.66302022e-22
  0.00000000e+00  0.00000000e+00  0.00000000e+00  9.98893631e-03]","[[ 9.98767855e-06 -4.68101415e-30  6.50382810e-11]
 [-4.68101415e-30  9.98761536e-06 -7.66302022e-25]
 [ 6.50382810e-11 -7.66302022e-25  9.98893631e-06]]",[7.67164707e-20 4.77051701e-48 0.00000000e+00]
1786944971.617082,-8.489550157668827e-20,-6.413411998539294e-48,0.0,"[ 9.98737977e-03 -5.21351582e-27  0.00000000e+00  0.00000000e+00
  0.00000000e+00  6.55191274e-08 -5.21351582e-27  9.98731611e-03
  0.00000000e+00  0.00000000e+00  0.00000000e+00 -8.47984100e-22
  0.00000000e+00  0.00000000e+00  0.00000000e+00  0.00000000e+00
  0.00000000e+00  0.00000000e+00  0.00000000e+00  0.00000000e+00
  0.00000000e+00  0.00000000e+00  0.00000000e+00  0.00000000e+00
  0.00000000e+00  0.00000000e+00  0.00000000e+00  0.00000000e+00
  0.00000000e+00  0.00000000e+00  6.55191274e-08 -8.47984100e-22
  0.00000000e+00  0.00000000e+00  0.00000000e+00  9.98864683e-03]","[[ 9.98747935e-06 -5.20564997e-30  6.53466511e-11]
 [-5.20564997e-30  9.98741586e-06 -8.46774273e-25]
 [ 6.53466511e-11 -8.46774273e-25  9.98874307e-06]]",[8.47743812e-20 5.52961264e-48 0.00000000e+00]
1786944971.6676424,-8.575853521453688e-20,-7.317545443256746e-48,0.0,"[ 9.98718057e-03 -5.26984541e-27  0.00000000e+00  0.00000000e+00
  0.00000000e+00  6.58136274e-08 -5.26984541e-27  9.98711662e-03
  0.00000000e+00  0.00000000e+00  0.00000000e+00 -8.56587526e-22
  0.00000000e+00  0.00000000e+00  0.00000000e+00  0.00000000e+00
  0.00000000e+00  0.00000000e+00  0.00000000e+00  0.00000000e+00
  0.00000000e+00  0.00000000e+00  0.00000000e+00  0.00000000e+00
  0.00000000e+00  0.00000000e+00  0.00000000e+00  0.00000000e+00
  0.00000000e+00  0.00000000e+00  6.58136274e-08 -8.56587526e-22
  0.00000000e+00  0.00000000e+00  0.00000000e+00  9.98845332e-03]","[[ 9.98718057e-06 -5.26984541e-30  6.58136274e-11]
 [-5.26984541e-30  9.98711662e-06 -8.56587526e-25]
 [ 6.58136274e-11 -8.56587526e-25  9.98845332e-06]]",[8.57593917e-20 6.86567527e-48 0.00000000e+00]
1786944971.7190483,-8.840901993208437e-20,-8.689026348714763e-48,0.0,"[ 9.98688181e-03 -5.44511210e-27  0.00000000e+00  0.00000000e+00
  0.00000000e+00  6.62880730e-08 -5.44511210e-27  9.98681740e-03
  0.00000000e+00  0.00000000e+00  0.00000000e+00 -8.83035333e-22
  0.00000000e+00  0.00000000e+00  0.00000000e+00  0.00000000e+00
  0.00000000e+00  0.00000000e+00  0.00000000e+00  0.00000000e+00
  0.00000000e+00  0.00000000e+00  0.00000000e+00  0.00000000e+00
  0.00000000e+00  0.00000000e+00  0.00000000e+00  0.00000000e+00
  0.00000000e+00  0.00000000e+00  6.62880730e-08 -8.83035333e-22
  0.00000000e+00  0.00000000e+00  0.00000000e+00  9.98816374e-03]","[[ 9.98688181e-06 -5.44511210e-30  6.62880730e-11]
 [-5.44511210e-30  9.98681740e-06 -8.83035333e-25]
 [ 6.62880730e-11 -8.83035333e-25  9.98816374e-06]]",[8.84099029e-20 8.20770649e-48 0.00000000e+00]
1786944971.7684045,-8.737030891836091e-20,-9.618565966913688e-48,0.0,"[ 9.98668265e-03 -5.37621237e-27  0.00000000e+00  0.00000000e+00
  0.00000000e+00  6.66093645e-08 -5.37621237e-27  9.98661793e-03
  0.00000000e+00  0.00000000e+00  0.00000000e+00 -8.72643089e-22
  0.00000000e+00  0.00000000e+00  0.00000000e+00  0.00000000e+00
  0.00000000e+00  0.00000000e+00  0.00000000e+00  0.00000000e+00
  0.00000000e+00  0.00000000e+00  0.00000000e+00  0.00000000e+00
  0.00000000e+00  0.00000000e+00  0.00000000e+00  0.00000000e+00
  0.00000000e+00  0.00000000e+00  6.66093645e-08 -8.72643089e-22
  0.00000000e+00  0.00000000e+00  0.00000000e+00  9.98797080e-03]","[[ 9.98668265e-06 -5.37621237e-30  6.66093645e-11]
 [-5.37621237e-30  9.98661793e-06 -8.72643089e-25]
 [ 6.66093645e-11 -8.72643089e-25  9.98797080e-06]]",[8.73711815e-20 9.14893131e-48 0.00000000e+00]
1786944971.818964,-9.659004049695382e-20,-1.124246048778399e-47,0.0,"[ 9.98638390e-03 -5.99143632e-27  0.00000000e+00  0.00000000e+00
  0.00000000e+00  6.70606972e-08 -5.99143632e-27  9.98631874e-03
  0.00000000e+00  0.00000000e+00  0.00000000e+00 -9.64700622e-22
  0.00000000e+00  0.00000000e+00  0.00000000e+00  0.00000000e+00
  0.00000000e+00  0.00000000e+00  0.00000000e+00  0.00000000e+00
  0.00000000e+00  0.00000000e+00  0.00000000e+00  0.00000000e+00
  0.00000000e+00  0.00000000e+00  0.00000000e+00  0.00000000e+00
  0.00000000e+00  0.00000000e+00  6.70606972e-08 -9.64700622e-22
  0.00000000e+00  0.00000000e+00  0.00000000e+00  9.98768078e-03]","[[ 9.98638390e-06 -5.99143632e-30  6.70606972e-11]
 [-5.99143632e-30  9.98631874e-06 -9.64700622e-25]
 [ 6.70606972e-11 -9.64700622e-25  9.98768078e-06]]",[9.65910051e-20 1.06638481e-47 0.00000000e+00]
1786944971.8681393,-1.0033889972842015e-19,-1.2446104332557565e-47,0.0,"[ 9.98618477e-03 -6.24355954e-27  0.00000000e+00  0.00000000e+00
  0.00000000e+00  6.73903575e-08 -6.24355954e-27  9.98611929e-03
  0.00000000e+00  0.00000000e+00  0.00000000e+00 -1.00212303e-21
  0.00000000e+00  0.00000000e+00  0.00000000e+00  0.00000000e+00
  0.00000000e+00  0.00000000e+00  0.00000000e+00  0.00000000e+00
  0.00000000e+00  0.00000000e+00  0.00000000e+00  0.00000000e+00
  0.00000000e+00  0.00000000e+00  0.00000000e+00  0.00000000e+00
  0.00000000e+00  0.00000000e+00  6.73903575e-08 -1.00212303e-21
  0.00000000e+00  0.00000000e+00  0.00000000e+00  9.98748802e-03]","[[ 9.98618477e-06 -6.24355954e-30  6.73903575e-11]
 [-6.24355954e-30  9.98611929e-06 -1.00212303e-24]
 [ 6.73903575e-11 -1.00212303e-24  9.98748802e-06]]",[1.00339902e-19 1.18197442e-47 0.00000000e+00]
1786944971.9228885,-1.0588017516016661e-19,-1.380505113848418e-47,0.0,"[ 9.98598567e-03 -6.61724336e-27  0.00000000e+00  0.00000000e+00
  0.00000000e+00  6.77399515e-08 -6.61724336e-27  9.98591985e-03
  0.00000000e+00  0.00000000e+00  0.00000000e+00 -1.05744534e-21
  0.00000000e+00  0.00000000e+00  0.00000000e+00  0.00000000e+00
  0.00000000e+00  0.00000000e+00  0.00000000e+00  0.00000000e+00
  0.00000000e+00  0.00000000e+00  0.00000000e+00  0.00000000e+00
  0.00000000e+00  0.00000000e+00  0.00000000e+00  0.00000000e+00
  0.00000000e+00  0.00000000e+00  6.77399515e-08 -1.05744534e-21
  0.00000000e+00  0.00000000e+00  0.00000000e+00  9.98729568e-03]","[[ 9.98598567e-06 -6.61724336e-30  6.77399515e-11]
 [-6.61724336e-30  9.98591985e-06 -1.05744534e-24]
 [ 6.77399515e-11 -1.05744534e-24  9.98729568e-06]]",[1.05881232e-19 1.31045401e-47 0.00000000e+00]
1786944971.967811,-1.0825509591030107e-19,-1.5900701657514782e-47,0.0,"[ 9.98568695e-03 -6.77912303e-27  0.00000000e+00  0.00000000e+00
  0.00000000e+00  6.81728382e-08 -6.77912303e-27  9.98562071e-03
  0.00000000e+00  0.00000000e+00  0.00000000e+00 -1.08113202e-21
  0.00000000e+00  0.00000000e+00  0.00000000e+00  0.00000000e+00
  0.00000000e+00  0.00000000e+00  0.00000000e+00  0.00000000e+00
  0.00000000e+00  0.00000000e+00  0.00000000e+00  0.00000000e+00
  0.00000000e+00  0.00000000e+00  0.00000000e+00  0.00000000e+00
  0.00000000e+00  0.00000000e+00  6.81728382e-08 -1.08113202e-21
  0.00000000e+00  0.00000000e+00  0.00000000e+00  9.98700533e-03]","[[ 9.98568695e-06 -6.77912303e-30  6.81728382e-11]
 [-6.77912303e-30  9.98562071e-06 -1.08113202e-24]
 [ 6.81728382e-11 -1.08113202e-24  9.98700533e-06]]",[1.08256177e-19 1.51669712e-47 0.00000000e+00]
1786944972.0184112,-1.0979307332343095e-19,-1.8204839710728988e-47,0.0,"[ 9.98538826e-03 -6.88313248e-27  0.00000000e+00  0.00000000e+00
  0.00000000e+00  6.86279123e-08 -6.88313248e-27  9.98532158e-03
  0.00000000e+00  0.00000000e+00  0.00000000e+00 -1.09645895e-21
  0.00000000e+00  0.00000000e+00  0.00000000e+00  0.00000000e+00
  0.00000000e+00  0.00000000e+00  0.00000000e+00  0.00000000e+00
  0.00000000e+00  0.00000000e+00  0.00000000e+00  0.00000000e+00
  0.00000000e+00  0.00000000e+00  0.00000000e+00  0.00000000e+00
  0.00000000e+00  0.00000000e+00  6.86279123e-08 -1.09645895e-21
  0.00000000e+00  0.00000000e+00  0.00000000e+00  9.98671544e-03]","[[ 9.98538826e-06 -6.88313248e-30  6.86279123e-11]
 [-6.88313248e-30  9.98532158e-06 -1.09645895e-24]
 [ 6.86279123e-11 -1.09645895e-24  9.98671544e-06]]",[1.09794170e-19 1.74492861e-47 0.00000000e+00]
1786944972.0689209,-1.0930878376108376e-19,-1.96822612839927e-47,0.0,"[ 9.98518915e-03 -6.84985436e-27  0.00000000e+00  0.00000000e+00
  0.00000000e+00  6.89362938e-08 -6.84985436e-27  9.98512217e-03
  0.00000000e+00  0.00000000e+00  0.00000000e+00 -1.09160069e-21
  0.00000000e+00  0.00000000e+00  0.00000000e+00  0.00000000e+00
  0.00000000e+00  0.00000000e+00  0.00000000e+00  0.00000000e+00
  0.00000000e+00  0.00000000e+00  0.00000000e+00  0.00000000e+00
  0.00000000e+00  0.00000000e+00  0.00000000e+00  0.00000000e+00
  0.00000000e+00  0.00000000e+00  6.89362938e-08 -1.09160069e-21
  0.00000000e+00  0.00000000e+00  0.00000000e+00  9.98652229e-03]","[[ 9.98518915e-06 -6.84985436e-30  6.89362938e-11]
 [-6.84985436e-30  9.98512217e-06 -1.09160069e-24]
 [ 6.89362938e-11 -1.09160069e-24  9.98652229e-06]]",[1.09309875e-19 1.89336936e-47 0.00000000e+00]
1786944972.117226,-1.203980299725012e-19,-2.1436232415248922e-47,0.0,"[ 9.98499006e-03 -7.61478250e-27  0.00000000e+00  0.00000000e+00
  0.00000000e+00  6.92522320e-08 -7.61478250e-27  9.98492277e-03
  0.00000000e+00  0.00000000e+00  0.00000000e+00 -1.20231969e-21
  0.00000000e+00  0.00000000e+00  0.00000000e+00  0.00000000e+00
  0.00000000e+00  0.00000000e+00  0.00000000e+00  0.00000000e+00
  0.00000000e+00  0.00000000e+00  0.00000000e+00  0.00000000e+00
  0.00000000e+00  0.00000000e+00  0.00000000e+00  0.00000000e+00
  0.00000000e+00  0.00000000e+00  6.92522320e-08 -1.20231969e-21
  0.00000000e+00  0.00000000e+00  0.00000000e+00  9.98632931e-03]","[[ 9.98499006e-06 -7.61478250e-30  6.92522320e-11]
 [-7.61478250e-30  9.98492277e-06 -1.20231969e-24]
 [ 6.92522320e-11 -1.20231969e-24  9.98632931e-06]]",[1.20399232e-19 2.05196233e-47 0.00000000e+00]
1786944972.1675296,-1.2128496645706478e-19,-2.422395223185472e-47,0.0,"[ 9.98469143e-03 -7.67579966e-27  0.00000000e+00  0.00000000e+00
  0.00000000e+00  6.97306013e-08 -7.67579966e-27  9.98462368e-03
  0.00000000e+00  0.00000000e+00  0.00000000e+00 -1.21114065e-21
  0.00000000e+00  0.00000000e+00  0.00000000e+00  0.00000000e+00
  0.00000000e+00  0.00000000e+00  0.00000000e+00  0.00000000e+00
  0.00000000e+00  0.00000000e+00  0.00000000e+00  0.00000000e+00
  0.00000000e+00  0.00000000e+00  0.00000000e+00  0.00000000e+00
  0.00000000e+00  0.00000000e+00  6.97306013e-08 -1.21114065e-21
  0.00000000e+00  0.00000000e+00  0.00000000e+00  9.98603994e-03]","[[ 9.98469143e-06 -7.67579966e-30  6.97306013e-11]
 [-7.67579966e-30  9.98462368e-06 -1.21114065e-24]
 [ 6.97306013e-11 -1.21114065e-24  9.98603994e-06]]",[1.21286177e-19 2.32932164e-47 0.00000000e+00]
1786944972.2219124,-1.2748660436214287e-19,-2.6201365476014245e-47,0.0,"[ 9.98449251e-03 -8.10904915e-27  0.00000000e+00  0.00000000e+00
  0.00000000e+00  7.01981291e-08 -8.10904915e-27  9.98442430e-03
  0.00000000e+00  0.00000000e+00  0.00000000e+00 -1.27304505e-21
  0.00000000e+00  0.00000000e+00  0.00000000e+00  0.00000000e+00
  0.00000000e+00  0.00000000e+00  0.00000000e+00  0.00000000e+00
  0.00000000e+00  0.00000000e+00  0.00000000e+00  0.00000000e+00
  0.00000000e+00  0.00000000e+00  0.00000000e+00  0.00000000e+00
  0.00000000e+00  0.00000000e+00  7.01981291e-08 -1.27304505e-21
  0.00000000e+00  0.00000000e+00  0.00000000e+00  9.98585005e-03]","[[ 9.98449251e-06 -8.10904915e-30  7.01981291e-11]
 [-8.10904915e-30  9.98442430e-06 -1.27304505e-24]
 [ 7.01981291e-11 -1.27304505e-24  9.98585005e-06]]",[1.27487877e-19 2.51678113e-47 0.00000000e+00]
1786944972.2674255,-1.3324890789209876e-19,-2.952447686135241e-47,0.0,"[ 9.98419377e-03 -8.51344599e-27  0.00000000e+00  0.00000000e+00
  0.00000000e+00  7.05340369e-08 -8.51344599e-27  9.98412524e-03
  0.00000000e+00  0.00000000e+00  0.00000000e+00 -1.33054670e-21
  0.00000000e+00  0.00000000e+00  0.00000000e+00  0.00000000e+00
  0.00000000e+00  0.00000000e+00  0.00000000e+00  0.00000000e+00
  0.00000000e+00  0.00000000e+00  0.00000000e+00  0.00000000e+00
  0.00000000e+00  0.00000000e+00  0.00000000e+00  0.00000000e+00
  0.00000000e+00  0.00000000e+00  7.05340369e-08 -1.33054670e-21
  0.00000000e+00  0.00000000e+00  0.00000000e+00  9.98555782e-03]","[[ 9.98419377e-06 -8.51344599e-30  7.05340369e-11]
 [-8.51344599e-30  9.98412524e-06 -1.33054670e-24]
 [ 7.05340369e-11 -1.33054670e-24  9.98555782e-06]]",[1.33250238e-19 2.83903416e-47 0.00000000e+00]
1786944972.3177788,-1.375607894677494e-19,-3.3077487735009735e-47,0.0,"[ 9.98389516e-03 -8.81773740e-27  0.00000000e+00  0.00000000e+00
  0.00000000e+00  7.09714215e-08 -8.81773740e-27  9.98382620e-03
  0.00000000e+00  0.00000000e+00  0.00000000e+00 -1.37356211e-21
  0.00000000e+00  0.00000000e+00  0.00000000e+00  0.00000000e+00
  0.00000000e+00  0.00000000e+00  0.00000000e+00  0.00000000e+00
  0.00000000e+00  0.00000000e+00  0.00000000e+00  0.00000000e+00
  0.00000000e+00  0.00000000e+00  0.00000000e+00  0.00000000e+00
  0.00000000e+00  0.00000000e+00  7.09714215e-08 -1.37356211e-21
  0.00000000e+00  0.00000000e+00  0.00000000e+00  9.98526766e-03]","[[ 9.98389516e-06 -8.81773740e-30  7.09714215e-11]
 [-8.81773740e-30  9.98382620e-06 -1.37356211e-24]
 [ 7.09714215e-11 -1.37356211e-24  9.98526766e-06]]",[1.37562163e-19 3.18648188e-47 0.00000000e+00]
1786944972.3683264,-1.4144694152737319e-19,-3.557049263186351e-47,0.0,"[ 9.98369610e-03 -9.09378356e-27  0.00000000e+00  0.00000000e+00
  0.00000000e+00  7.12698854e-08 -9.09378356e-27  9.98362685e-03
  0.00000000e+00  0.00000000e+00  0.00000000e+00 -1.41233819e-21
  0.00000000e+00  0.00000000e+00  0.00000000e+00  0.00000000e+00
  0.00000000e+00  0.00000000e+00  0.00000000e+00  0.00000000e+00
  0.00000000e+00  0.00000000e+00  0.00000000e+00  0.00000000e+00
  0.00000000e+00  0.00000000e+00  0.00000000e+00  0.00000000e+00
  0.00000000e+00  0.00000000e+00  7.12698854e-08 -1.41233819e-21
  0.00000000e+00  0.00000000e+00  0.00000000e+00  9.98507437e-03]","[[ 9.98369610e-06 -9.09378356e-30  7.12698854e-11]
 [-9.09378356e-30  9.98362685e-06 -1.41233819e-24]
 [ 7.12698854e-11 -1.41233819e-24  9.98507437e-06]]",[1.41448354e-19 3.42845342e-47 0.00000000e+00]
1786944972.4173417,-1.5745364305976755e-19,-4.0298125499041684e-47,0.0,"[ 9.98339761e-03 -1.02354467e-26  0.00000000e+00  0.00000000e+00
  0.00000000e+00  7.18004092e-08 -1.02354467e-26  9.98332784e-03
  0.00000000e+00  0.00000000e+00  0.00000000e+00 -1.57211923e-21
  0.00000000e+00  0.00000000e+00  0.00000000e+00  0.00000000e+00
  0.00000000e+00  0.00000000e+00  0.00000000e+00  0.00000000e+00
  0.00000000e+00  0.00000000e+00  0.00000000e+00  0.00000000e+00
  0.00000000e+00  0.00000000e+00  0.00000000e+00  0.00000000e+00
  0.00000000e+00  0.00000000e+00  7.18004092e-08 -1.57211923e-21
  0.00000000e+00  0.00000000e+00  0.00000000e+00  9.98478614e-03]","[[ 9.98339761e-06 -1.02354467e-29  7.18004092e-11]
 [-1.02354467e-29  9.98332784e-06 -1.57211923e-24]
 [ 7.18004092e-11 -1.57211923e-24  9.98478614e-06]]",[1.57455215e-19 3.86868873e-47 0.00000000e+00]
1786944972.46892,-1.5728228806668535e-19,-4.3526753097840616e-47,0.0,"[ 9.98319861e-03 -1.02226331e-26  0.00000000e+00  0.00000000e+00
  0.00000000e+00  7.21394933e-08 -1.02226331e-26  9.98312851e-03
  0.00000000e+00  0.00000000e+00  0.00000000e+00 -1.57037693e-21
  0.00000000e+00  0.00000000e+00  0.00000000e+00  0.00000000e+00
  0.00000000e+00  0.00000000e+00  0.00000000e+00  0.00000000e+00
  0.00000000e+00  0.00000000e+00  0.00000000e+00  0.00000000e+00
  0.00000000e+00  0.00000000e+00  0.00000000e+00  0.00000000e+00
  0.00000000e+00  0.00000000e+00  7.21394933e-08 -1.57037693e-21
  0.00000000e+00  0.00000000e+00  0.00000000e+00  9.98459370e-03]","[[ 9.98319861e-06 -1.02226331e-29  7.21394933e-11]
 [-1.02226331e-29  9.98312851e-06 -1.57037693e-24]
 [ 7.21394933e-11 -1.57037693e-24  9.98459370e-06]]",[1.57283858e-19 4.19193164e-47 0.00000000e+00]
1786944972.5190027,-1.612084902346997e-19,-4.680023562839617e-47,0.0,"[ 9.98299956e-03 -1.05061750e-26  0.00000000e+00  0.00000000e+00
  0.00000000e+00  7.24182504e-08 -1.05061750e-26  9.98292919e-03
  0.00000000e+00  0.00000000e+00  0.00000000e+00 -1.60954633e-21
  0.00000000e+00  0.00000000e+00  0.00000000e+00  0.00000000e+00
  0.00000000e+00  0.00000000e+00  0.00000000e+00  0.00000000e+00
  0.00000000e+00  0.00000000e+00  0.00000000e+00  0.00000000e+00
  0.00000000e+00  0.00000000e+00  0.00000000e+00  0.00000000e+00
  0.00000000e+00  0.00000000e+00  7.24182504e-08 -1.60954633e-21
  0.00000000e+00  0.00000000e+00  0.00000000e+00  9.98440004e-03]","[[ 9.98299956e-06 -1.05061750e-29  7.24182504e-11]
 [-1.05061750e-29  9.98292919e-06 -1.60954633e-24]
 [ 7.24182504e-11 -1.60954633e-24  9.98440004e-06]]",[1.61210100e-19 4.51069844e-47 0.00000000e+00]
1786944972.5684345,-1.6383242320939497e-19,-5.194385199888403e-47,0.0,"[ 9.98270105e-03 -1.06964013e-26  0.00000000e+00  0.00000000e+00
  0.00000000e+00  7.28906891e-08 -1.06964013e-26  9.98263022e-03
  0.00000000e+00  0.00000000e+00  0.00000000e+00 -1.63569575e-21
  0.00000000e+00  0.00000000e+00  0.00000000e+00  0.00000000e+00
  0.00000000e+00  0.00000000e+00  0.00000000e+00  0.00000000e+00
  0.00000000e+00  0.00000000e+00  0.00000000e+00  0.00000000e+00
  0.00000000e+00  0.00000000e+00  0.00000000e+00  0.00000000e+00
  0.00000000e+00  0.00000000e+00  7.28906891e-08 -1.63569575e-21
  0.00000000e+00  0.00000000e+00  0.00000000e+00  9.98411066e-03]","[[ 9.98270105e-06 -1.06964013e-29  7.28906891e-11]
 [-1.06964013e-29  9.98263022e-06 -1.63569575e-24]
 [ 7.28906891e-11 -1.63569575e-24  9.98411066e-06]]",[1.63834059e-19 5.01919182e-47 0.00000000e+00]
1786944972.6173487,-1.616121921342896e-19,-5.535738019962727e-47,0.0,"[ 9.98250203e-03 -1.05340854e-26  0.00000000e+00  0.00000000e+00
  0.00000000e+00  7.31860316e-08 -1.05340854e-26  9.98243092e-03
  0.00000000e+00  0.00000000e+00  0.00000000e+00 -1.61349650e-21
  0.00000000e+00  0.00000000e+00  0.00000000e+00  0.00000000e+00
  0.00000000e+00  0.00000000e+00  0.00000000e+00  0.00000000e+00
  0.00000000e+00  0.00000000e+00  0.00000000e+00  0.00000000e+00
  0.00000000e+00  0.00000000e+00  0.00000000e+00  0.00000000e+00
  0.00000000e+00  0.00000000e+00  7.31860316e-08 -1.61349650e-21
  0.00000000e+00  0.00000000e+00  0.00000000e+00  9.98391736e-03]","[[ 9.98250203e-06 -1.05340854e-29  7.31860316e-11]
 [-1.05340854e-29  9.98243092e-06 -1.61349650e-24]
 [ 7.31860316e-11 -1.61349650e-24  9.98391736e-06]]",[1.61613805e-19 5.36554622e-47 0.00000000e+00]
1786944972.6725373,-1.6895460906358817e-19,-5.894231350465341e-47,0.0,"[ 9.98230305e-03 -1.10722633e-26  0.00000000e+00  0.00000000e+00
  0.00000000e+00  7.35034247e-08 -1.10722633e-26  9.98223163e-03
  0.00000000e+00  0.00000000e+00  0.00000000e+00 -1.68676893e-21
  0.00000000e+00  0.00000000e+00  0.00000000e+00  0.00000000e+00
  0.00000000e+00  0.00000000e+00  0.00000000e+00  0.00000000e+00
  0.00000000e+00  0.00000000e+00  0.00000000e+00  0.00000000e+00
  0.00000000e+00  0.00000000e+00  0.00000000e+00  0.00000000e+00
  0.00000000e+00  0.00000000e+00  7.35034247e-08 -1.68676893e-21
  0.00000000e+00  0.00000000e+00  0.00000000e+00  9.98372451e-03]","[[ 9.98230305e-06 -1.10722633e-29  7.35034247e-11]
 [-1.10722633e-29  9.98223163e-06 -1.68676893e-24]
 [ 7.35034247e-11 -1.68676893e-24  9.98372451e-06]]",[1.68956296e-19 5.70721546e-47 0.00000000e+00]
1786944972.718155,-1.684630475005579e-19,-6.45629736009737e-47,0.0,"[ 9.98200500e-03 -1.10341741e-26  0.00000000e+00  0.00000000e+00
  0.00000000e+00  7.44129378e-08 -1.10341741e-26  9.98193270e-03
  0.00000000e+00  0.00000000e+00  0.00000000e+00 -1.68181092e-21
  0.00000000e+00  0.00000000e+00  0.00000000e+00  0.00000000e+00
  0.00000000e+00  0.00000000e+00  0.00000000e+00  0.00000000e+00
  0.00000000e+00  0.00000000e+00  0.00000000e+00  0.00000000e+00
  0.00000000e+00  0.00000000e+00  0.00000000e+00  0.00000000e+00
  0.00000000e+00  0.00000000e+00  7.44129378e-08 -1.68181092e-21
  0.00000000e+00  0.00000000e+00  0.00000000e+00  9.98344406e-03]","[[ 9.98200500e-06 -1.10341741e-29  7.44129378e-11]
 [-1.10341741e-29  9.98193270e-06 -1.68181092e-24]
 [ 7.44129378e-11 -1.68181092e-24  9.98344406e-06]]",[1.68464729e-19 6.27047304e-47 0.00000000e+00]
1786944972.7731984,-1.7474599593433543e-19,-6.853092524107454e-47,0.0,"[ 9.98180602e-03 -1.15015990e-26  0.00000000e+00  0.00000000e+00
  0.00000000e+00  7.47119043e-08 -1.15015990e-26  9.98173343e-03
  0.00000000e+00  0.00000000e+00  0.00000000e+00 -1.74450156e-21
  0.00000000e+00  0.00000000e+00  0.00000000e+00  0.00000000e+00
  0.00000000e+00  0.00000000e+00  0.00000000e+00  0.00000000e+00
  0.00000000e+00  0.00000000e+00  0.00000000e+00  0.00000000e+00
  0.00000000e+00  0.00000000e+00  0.00000000e+00  0.00000000e+00
  0.00000000e+00  0.00000000e+00  7.47119043e-08 -1.74450156e-21
  0.00000000e+00  0.00000000e+00  0.00000000e+00  9.98325086e-03]","[[ 9.98180602e-06 -1.15015990e-29  7.47119043e-11]
 [-1.15015990e-29  9.98173343e-06 -1.74450156e-24]
 [ 7.47119043e-11 -1.74450156e-24  9.98325086e-06]]",[1.74747740e-19 6.65217108e-47 0.00000000e+00]
1786944972.819505,-1.7759176060604597e-19,-7.470951448585476e-47,0.0,"[ 9.98150761e-03 -1.17138626e-26  0.00000000e+00  0.00000000e+00
  0.00000000e+00  7.52120536e-08 -1.17138626e-26  9.98143453e-03
  0.00000000e+00  0.00000000e+00  0.00000000e+00 -1.77285845e-21
  0.00000000e+00  0.00000000e+00  0.00000000e+00  0.00000000e+00
  0.00000000e+00  0.00000000e+00  0.00000000e+00  0.00000000e+00
  0.00000000e+00  0.00000000e+00  0.00000000e+00  0.00000000e+00
  0.00000000e+00  0.00000000e+00  0.00000000e+00  0.00000000e+00
  0.00000000e+00  0.00000000e+00  7.52120536e-08 -1.77285845e-21
  0.00000000e+00  0.00000000e+00  0.00000000e+00  9.98296212e-03]","[[ 9.98150761e-06 -1.17138626e-29  7.52120536e-11]
 [-1.17138626e-29  9.98143453e-06 -1.77285845e-24]
 [ 7.52120536e-11 -1.77285845e-24  9.98296212e-06]]",[1.77593533e-19 7.26299332e-47 0.00000000e+00]
1786944972.8686626,-1.8103295401365557e-19,-7.893681932581964e-47,0.0,"[ 9.98130868e-03 -1.19728563e-26  0.00000000e+00  0.00000000e+00
  0.00000000e+00  7.55417947e-08 -1.19728563e-26  9.98123528e-03
  0.00000000e+00  0.00000000e+00  0.00000000e+00 -1.80717569e-21
  0.00000000e+00  0.00000000e+00  0.00000000e+00  0.00000000e+00
  0.00000000e+00  0.00000000e+00  0.00000000e+00  0.00000000e+00
  0.00000000e+00  0.00000000e+00  0.00000000e+00  0.00000000e+00
  0.00000000e+00  0.00000000e+00  0.00000000e+00  0.00000000e+00
  0.00000000e+00  0.00000000e+00  7.55417947e-08 -1.80717569e-21
  0.00000000e+00  0.00000000e+00  0.00000000e+00  9.98276956e-03]","[[ 9.98130868e-06 -1.19728563e-29  7.55417947e-11]
 [-1.19728563e-29  9.98123528e-06 -1.80717569e-24]
 [ 7.55417947e-11 -1.80717569e-24  9.98276956e-06]]",[1.81034761e-19 7.67700824e-47 0.00000000e+00]
1786944972.928052,-1.75676569741185e-19,-8.29880053563492e-47,0.0,"[ 9.98110971e-03 -1.15678250e-26  0.00000000e+00  0.00000000e+00
  0.00000000e+00  7.58310122e-08 -1.15678250e-26  9.98103603e-03
  0.00000000e+00  0.00000000e+00  0.00000000e+00 -1.75366913e-21
  0.00000000e+00  0.00000000e+00  0.00000000e+00  0.00000000e+00
  0.00000000e+00  0.00000000e+00  0.00000000e+00  0.00000000e+00
  0.00000000e+00  0.00000000e+00  0.00000000e+00  0.00000000e+00
  0.00000000e+00  0.00000000e+00  0.00000000e+00  0.00000000e+00
  0.00000000e+00  0.00000000e+00  7.58310122e-08 -1.75366913e-21
  0.00000000e+00  0.00000000e+00  0.00000000e+00  9.98257619e-03]","[[ 9.98110971e-06 -1.15678250e-29  7.58310122e-11]
 [-1.15678250e-29  9.98103603e-06 -1.75366913e-24]
 [ 7.58310122e-11 -1.75366913e-24  9.98257619e-06]]",[1.75678323e-19 8.09565973e-47 0.00000000e+00]
1786944972.9681056,-1.74512731119977e-19,-8.897702290657855e-47,0.0,"[ 9.98081140e-03 -1.14789689e-26  0.00000000e+00  0.00000000e+00
  0.00000000e+00  7.63903836e-08 -1.14789689e-26  9.98073718e-03
  0.00000000e+00  0.00000000e+00  0.00000000e+00 -1.74199885e-21
  0.00000000e+00  0.00000000e+00  0.00000000e+00  0.00000000e+00
  0.00000000e+00  0.00000000e+00  0.00000000e+00  0.00000000e+00
  0.00000000e+00  0.00000000e+00  0.00000000e+00  0.00000000e+00
  0.00000000e+00  0.00000000e+00  0.00000000e+00  0.00000000e+00
  0.00000000e+00  0.00000000e+00  7.63903836e-08 -1.74199885e-21
  0.00000000e+00  0.00000000e+00  0.00000000e+00  9.98228870e-03]","[[ 9.98081140e-06 -1.14789689e-29  7.63903836e-11]
 [-1.14789689e-29  9.98073718e-06 -1.74199885e-24]
 [ 7.63903836e-11 -1.74199885e-24  9.98228870e-06]]",[1.74514473e-19 8.69746448e-47 0.00000000e+00]
1786944973.0180662,-1.7627907511412367e-19,-9.495855393130497e-47,0.0,"[ 9.98051300e-03 -1.16141782e-26  0.00000000e+00  0.00000000e+00
  0.00000000e+00  7.68397229e-08 -1.16141782e-26  9.98043834e-03
  0.00000000e+00  0.00000000e+00  0.00000000e+00 -1.75957834e-21
  0.00000000e+00  0.00000000e+00  0.00000000e+00  0.00000000e+00
  0.00000000e+00  0.00000000e+00  0.00000000e+00  0.00000000e+00
  0.00000000e+00  0.00000000e+00  0.00000000e+00  0.00000000e+00
  0.00000000e+00  0.00000000e+00  0.00000000e+00  0.00000000e+00
  0.00000000e+00  0.00000000e+00  7.68397229e-08 -1.75957834e-21
  0.00000000e+00  0.00000000e+00  0.00000000e+00  9.98199899e-03]","[[ 9.98051300e-06 -1.16141782e-29  7.68397229e-11]
 [-1.16141782e-29  9.98043834e-06 -1.75957834e-24]
 [ 7.68397229e-11 -1.75957834e-24  9.98199899e-06]]",[1.76280834e-19 9.29121242e-47 0.00000000e+00]
1786944973.068449,-1.7656949340362612e-19,-9.91028911304299e-47,0.0,"[ 9.98031424e-03 -1.16357873e-26  0.00000000e+00  0.00000000e+00
  0.00000000e+00  7.73092824e-08 -1.16357873e-26  9.98023913e-03
  0.00000000e+00  0.00000000e+00  0.00000000e+00 -1.76244210e-21
  0.00000000e+00  0.00000000e+00  0.00000000e+00  0.00000000e+00
  0.00000000e+00  0.00000000e+00  0.00000000e+00  0.00000000e+00
  0.00000000e+00  0.00000000e+00  0.00000000e+00  0.00000000e+00
  0.00000000e+00  0.00000000e+00  0.00000000e+00  0.00000000e+00
  0.00000000e+00  0.00000000e+00  7.73092824e-08 -1.76244210e-21
  0.00000000e+00  0.00000000e+00  0.00000000e+00  9.98180931e-03]","[[ 9.98031424e-06 -1.16357873e-29  7.73092824e-11]
 [-1.16357873e-29  9.98023913e-06 -1.76244210e-24]
 [ 7.73092824e-11 -1.76244210e-24  9.98180931e-06]]",[1.76571256e-19 9.70493141e-47 0.00000000e+00]
1786944973.118066,-1.7693541194840887e-19,-1.0323000660242287e-46,0.0,"[ 9.98011522e-03 -1.16636063e-26  0.00000000e+00  0.00000000e+00
  0.00000000e+00  7.75000184e-08 -1.16636063e-26  9.98003992e-03
  0.00000000e+00  0.00000000e+00  0.00000000e+00 -1.76605938e-21
  0.00000000e+00  0.00000000e+00  0.00000000e+00  0.00000000e+00
  0.00000000e+00  0.00000000e+00  0.00000000e+00  0.00000000e+00
  0.00000000e+00  0.00000000e+00  0.00000000e+00  0.00000000e+00
  0.00000000e+00  0.00000000e+00  0.00000000e+00  0.00000000e+00
  0.00000000e+00  0.00000000e+00  7.75000184e-08 -1.76605938e-21
  0.00000000e+00  0.00000000e+00  0.00000000e+00  9.98161398e-03]","[[ 9.98011522e-06 -1.16636063e-29  7.75000184e-11]
 [-1.16636063e-29  9.98003992e-06 -1.76605938e-24]
 [ 7.75000184e-11 -1.76605938e-24  9.98161398e-06]]",[1.76937178e-19 1.01167291e-46 0.00000000e+00]
1786944973.1671772,-1.7898702828444243e-19,-1.095904939304435e-46,0.0,"[ 9.97981696e-03 -1.18219120e-26  0.00000000e+00  0.00000000e+00
  0.00000000e+00  7.80484852e-08 -1.18219120e-26  9.97974113e-03
  0.00000000e+00  0.00000000e+00  0.00000000e+00 -1.78648432e-21
  0.00000000e+00  0.00000000e+00  0.00000000e+00  0.00000000e+00
  0.00000000e+00  0.00000000e+00  0.00000000e+00  0.00000000e+00
  0.00000000e+00  0.00000000e+00  0.00000000e+00  0.00000000e+00
  0.00000000e+00  0.00000000e+00  0.00000000e+00  0.00000000e+00
  0.00000000e+00  0.00000000e+00  7.80484852e-08 -1.78648432e-21
  0.00000000e+00  0.00000000e+00  0.00000000e+00  9.98132632e-03]","[[ 9.97981696e-06 -1.18219120e-29  7.80484852e-11]
 [-1.18219120e-29  9.97974113e-06 -1.78648432e-24]
 [ 7.80484852e-11 -1.78648432e-24  9.98132632e-06]]",[1.78988815e-19 1.07475576e-46 0.00000000e+00]
1786944973.218034,-1.8691709132706737e-19,-1.1633747664416316e-46,0.0,"[ 9.97951863e-03 -1.24414161e-26  0.00000000e+00  0.00000000e+00
  0.00000000e+00  7.85083271e-08 -1.24414161e-26  9.97944235e-03
  0.00000000e+00  0.00000000e+00  0.00000000e+00 -1.86558104e-21
  0.00000000e+00  0.00000000e+00  0.00000000e+00  0.00000000e+00
  0.00000000e+00  0.00000000e+00  0.00000000e+00  0.00000000e+00
  0.00000000e+00  0.00000000e+00  0.00000000e+00  0.00000000e+00
  0.00000000e+00  0.00000000e+00  0.00000000e+00  0.00000000e+00
  0.00000000e+00  0.00000000e+00  7.85083271e-08 -1.86558104e-21
  0.00000000e+00  0.00000000e+00  0.00000000e+00  9.98103689e-03]","[[ 9.97961807e-06 -1.21366455e-29  7.83575601e-11]
 [-1.21366455e-29  9.97954194e-06 -1.82674652e-24]
 [ 7.83575601e-11 -1.82674652e-24  9.98113341e-06]]",[1.83026260e-19 1.11792869e-46 0.00000000e+00]
1786944973.2676404,-1.785697251017927e-19,-1.2060002638226277e-46,0.0,"[ 9.97931979e-03 -1.17850648e-26  0.00000000e+00  0.00000000e+00
  0.00000000e+00  7.88500889e-08 -1.17850648e-26  9.97924317e-03
  0.00000000e+00  0.00000000e+00  0.00000000e+00 -1.78223008e-21
  0.00000000e+00  0.00000000e+00  0.00000000e+00  0.00000000e+00
  0.00000000e+00  0.00000000e+00  0.00000000e+00  0.00000000e+00
  0.00000000e+00  0.00000000e+00  0.00000000e+00  0.00000000e+00
  0.00000000e+00  0.00000000e+00  0.00000000e+00  0.00000000e+00
  0.00000000e+00  0.00000000e+00  7.88500889e-08 -1.78223008e-21
  0.00000000e+00  0.00000000e+00  0.00000000e+00  9.98084465e-03]","[[ 9.97931979e-06 -1.17850648e-29  7.88500889e-11]
 [-1.17850648e-29  9.97924317e-06 -1.78223008e-24]
 [ 7.88500889e-11 -1.78223008e-24  9.98084465e-06]]",[1.78571507e-19 1.18496732e-46 0.00000000e+00]
1786944973.3189566,-1.7676168181265807e-19,-1.2674275840541947e-46,0.0,"[ 9.97902149e-03 -1.16421108e-26  0.00000000e+00  0.00000000e+00
  0.00000000e+00  7.93127726e-08 -1.16421108e-26  9.97894443e-03
  0.00000000e+00  0.00000000e+00  0.00000000e+00 -1.76413147e-21
  0.00000000e+00  0.00000000e+00  0.00000000e+00  0.00000000e+00
  0.00000000e+00  0.00000000e+00  0.00000000e+00  0.00000000e+00
  0.00000000e+00  0.00000000e+00  0.00000000e+00  0.00000000e+00
  0.00000000e+00  0.00000000e+00  0.00000000e+00  0.00000000e+00
  0.00000000e+00  0.00000000e+00  7.93127726e-08 -1.76413147e-21
  0.00000000e+00  0.00000000e+00  0.00000000e+00  9.98055530e-03]","[[ 9.97902149e-06 -1.16421108e-29  7.93127726e-11]
 [-1.16421108e-29  9.97894443e-06 -1.76413147e-24]
 [ 7.93127726e-11 -1.76413147e-24  9.98055530e-06]]",[1.76763446e-19 1.24686103e-46 0.00000000e+00]
1786944973.3727047,-1.7668923786201514e-19,-1.3089252134891247e-46,0.0,"[ 9.97882264e-03 -1.16355731e-26  0.00000000e+00  0.00000000e+00
  0.00000000e+00  7.96257322e-08 -1.16355731e-26  9.97874527e-03
  0.00000000e+00  0.00000000e+00  0.00000000e+00 -1.76337323e-21
  0.00000000e+00  0.00000000e+00  0.00000000e+00  0.00000000e+00
  0.00000000e+00  0.00000000e+00  0.00000000e+00  0.00000000e+00
  0.00000000e+00  0.00000000e+00  0.00000000e+00  0.00000000e+00
  0.00000000e+00  0.00000000e+00  0.00000000e+00  0.00000000e+00
  0.00000000e+00  0.00000000e+00  7.96257322e-08 -1.76337323e-21
  0.00000000e+00  0.00000000e+00  0.00000000e+00  9.98036251e-03]","[[ 9.97882264e-06 -1.16355731e-29  7.96257322e-11]
 [-1.16355731e-29  9.97874527e-06 -1.76337323e-24]
 [ 7.96257322e-11 -1.76337323e-24  9.98036251e-06]]",[1.76691001e-19 1.28837906e-46 0.00000000e+00]
1786944973.418476,-1.8313175441046796e-19,-1.3530174199167113e-46,0.0,"[ 9.97862382e-03 -1.21484488e-26  0.00000000e+00  0.00000000e+00
  0.00000000e+00  7.99597219e-08 -1.21484488e-26  9.97854613e-03
  0.00000000e+00  0.00000000e+00  0.00000000e+00 -1.82763541e-21
  0.00000000e+00  0.00000000e+00  0.00000000e+00  0.00000000e+00
  0.00000000e+00  0.00000000e+00  0.00000000e+00  0.00000000e+00
  0.00000000e+00  0.00000000e+00  0.00000000e+00  0.00000000e+00
  0.00000000e+00  0.00000000e+00  0.00000000e+00  0.00000000e+00
  0.00000000e+00  0.00000000e+00  7.99597219e-08 -1.82763541e-21
  0.00000000e+00  0.00000000e+00  0.00000000e+00  9.98017014e-03]","[[ 9.97862382e-06 -1.21484488e-29  7.99597219e-11]
 [-1.21484488e-29  9.97854613e-06 -1.82763541e-24]
 [ 7.99597219e-11 -1.82763541e-24  9.98017014e-06]]",[1.83133582e-19 1.33078281e-46 0.00000000e+00]
1786944973.4691906,-1.9101758311776425e-19,-1.4234553424525402e-46,0.0,"[ 9.97832559e-03 -1.27800639e-26  0.00000000e+00  0.00000000e+00
  0.00000000e+00  8.04541258e-08 -1.27800639e-26  9.97824742e-03
  0.00000000e+00  0.00000000e+00  0.00000000e+00 -1.90628029e-21
  0.00000000e+00  0.00000000e+00  0.00000000e+00  0.00000000e+00
  0.00000000e+00  0.00000000e+00  0.00000000e+00  0.00000000e+00
  0.00000000e+00  0.00000000e+00  0.00000000e+00  0.00000000e+00
  0.00000000e+00  0.00000000e+00  0.00000000e+00  0.00000000e+00
  0.00000000e+00  0.00000000e+00  8.04541258e-08 -1.90628029e-21
  0.00000000e+00  0.00000000e+00  0.00000000e+00  9.97988148e-03]","[[ 9.97832559e-06 -1.27800639e-29  8.04541258e-11]
 [-1.27800639e-29  9.97824742e-06 -1.90628029e-24]
 [ 8.04541258e-11 -1.90628029e-24  9.97988148e-06]]",[1.91019489e-19 1.39905689e-46 0.00000000e+00]
1786944973.520923,-1.952185945389724e-19,-1.4751631234550543e-46,0.0,"[ 9.97812673e-03 -1.31172975e-26  0.00000000e+00  0.00000000e+00
  0.00000000e+00  8.07288793e-08 -1.31172975e-26  9.97804829e-03
  0.00000000e+00  0.00000000e+00  0.00000000e+00 -1.94816699e-21
  0.00000000e+00  0.00000000e+00  0.00000000e+00  0.00000000e+00
  0.00000000e+00  0.00000000e+00  0.00000000e+00  0.00000000e+00
  0.00000000e+00  0.00000000e+00  0.00000000e+00  0.00000000e+00
  0.00000000e+00  0.00000000e+00  0.00000000e+00  0.00000000e+00
  0.00000000e+00  0.00000000e+00  8.07288793e-08 -1.94816699e-21
  0.00000000e+00  0.00000000e+00  0.00000000e+00  9.97968793e-03]","[[ 9.97812673e-06 -1.31172975e-29  8.07288793e-11]
 [-1.31172975e-29  9.97804829e-06 -1.94816699e-24]
 [ 8.07288793e-11 -1.94816699e-24  9.97968793e-06]]",[1.95220542e-19 1.44956993e-46 0.00000000e+00]
1786944973.5776536,-2.0356939185636867e-19,-1.5561394499077948e-46,0.0,"[ 9.97782859e-03 -1.37925600e-26  0.00000000e+00  0.00000000e+00
  0.00000000e+00  8.12732375e-08 -1.37925600e-26  9.97774962e-03
  0.00000000e+00  0.00000000e+00  0.00000000e+00 -2.03144457e-21
  0.00000000e+00  0.00000000e+00  0.00000000e+00  0.00000000e+00
  0.00000000e+00  0.00000000e+00  0.00000000e+00  0.00000000e+00
  0.00000000e+00  0.00000000e+00  0.00000000e+00  0.00000000e+00
  0.00000000e+00  0.00000000e+00  0.00000000e+00  0.00000000e+00
  0.00000000e+00  0.00000000e+00  8.12732375e-08 -2.03144457e-21
  0.00000000e+00  0.00000000e+00  0.00000000e+00  9.97940031e-03]","[[ 9.97792807e-06 -1.36499172e-29  8.11933437e-11]
 [-1.36499172e-29  9.97784917e-06 -2.01389871e-24]
 [ 8.11933437e-11 -2.01389871e-24  9.97949825e-06]]",[2.01811184e-19 1.50054490e-46 0.00000000e+00]
1786944973.6183825,-2.0208475273156156e-19,-1.639412504358646e-46,0.0,"[ 9.97753033e-03 -1.36709173e-26  0.00000000e+00  0.00000000e+00
  0.00000000e+00  8.16903126e-08 -1.36709173e-26  9.97745096e-03
  0.00000000e+00  0.00000000e+00  0.00000000e+00 -2.01656838e-21
  0.00000000e+00  0.00000000e+00  0.00000000e+00  0.00000000e+00
  0.00000000e+00  0.00000000e+00  0.00000000e+00  0.00000000e+00
  0.00000000e+00  0.00000000e+00  0.00000000e+00  0.00000000e+00
  0.00000000e+00  0.00000000e+00  0.00000000e+00  0.00000000e+00
  0.00000000e+00  0.00000000e+00  8.16903126e-08 -2.01656838e-21
  0.00000000e+00  0.00000000e+00  0.00000000e+00  9.97911013e-03]","[[ 9.97753033e-06 -1.36709173e-29  8.16903126e-11]
 [-1.36709173e-29  9.97745096e-06 -2.01656838e-24]
 [ 8.16903126e-11 -2.01656838e-24  9.97911013e-06]]",[2.02086769e-19 1.61180147e-46 0.00000000e+00]
1786944973.6717324,-2.0570090982805696e-19,-1.696883808096946e-46,0.0,"[ 9.97733159e-03 -1.39657249e-26  0.00000000e+00  0.00000000e+00
  0.00000000e+00  8.20545843e-08 -1.39657249e-26  9.97725187e-03
  0.00000000e+00  0.00000000e+00  0.00000000e+00 -2.05261345e-21
  0.00000000e+00  0.00000000e+00  0.00000000e+00  0.00000000e+00
  0.00000000e+00  0.00000000e+00  0.00000000e+00  0.00000000e+00
  0.00000000e+00  0.00000000e+00  0.00000000e+00  0.00000000e+00
  0.00000000e+00  0.00000000e+00  0.00000000e+00  0.00000000e+00
  0.00000000e+00  0.00000000e+00  8.20545843e-08 -2.05261345e-21
  0.00000000e+00  0.00000000e+00  0.00000000e+00  9.97891843e-03]","[[ 9.97733159e-06 -1.39657249e-29  8.20545843e-11]
 [-1.39657249e-29  9.97725187e-06 -2.05261345e-24]
 [ 8.20545843e-11 -2.05261345e-24  9.97891843e-06]]",[2.05702962e-19 1.66817254e-46 0.00000000e+00]
1786944973.7186937,-2.0472618787275332e-19,-1.7549035810782573e-46,0.0,"[ 9.97713278e-03 -1.38847346e-26  0.00000000e+00  0.00000000e+00
  0.00000000e+00  8.23349228e-08 -1.38847346e-26  9.97705278e-03
  0.00000000e+00  0.00000000e+00  0.00000000e+00 -2.04284600e-21
  0.00000000e+00  0.00000000e+00  0.00000000e+00  0.00000000e+00
  0.00000000e+00  0.00000000e+00  0.00000000e+00  0.00000000e+00
  0.00000000e+00  0.00000000e+00  0.00000000e+00  0.00000000e+00
  0.00000000e+00  0.00000000e+00  0.00000000e+00  0.00000000e+00
  0.00000000e+00  0.00000000e+00  8.23349228e-08 -2.04284600e-21
  0.00000000e+00  0.00000000e+00  0.00000000e+00  9.97872504e-03]","[[ 9.97713278e-06 -1.38847346e-29  8.23349228e-11]
 [-1.38847346e-29  9.97705278e-06 -2.04284600e-24]
 [ 8.23349228e-11 -2.04284600e-24  9.97872504e-06]]",[2.04728230e-19 1.72649483e-46 0.00000000e+00]
1786944973.7677796,-2.0804722518608064e-19,-1.839129643957223e-46,0.0,"[ 9.97683459e-03 -1.41594707e-26  0.00000000e+00  0.00000000e+00
  0.00000000e+00  8.27787689e-08 -1.41594707e-26  9.97675416e-03
  0.00000000e+00  0.00000000e+00  0.00000000e+00 -2.07592362e-21
  0.00000000e+00  0.00000000e+00  0.00000000e+00  0.00000000e+00
  0.00000000e+00  0.00000000e+00  0.00000000e+00  0.00000000e+00
  0.00000000e+00  0.00000000e+00  0.00000000e+00  0.00000000e+00
  0.00000000e+00  0.00000000e+00  0.00000000e+00  0.00000000e+00
  0.00000000e+00  0.00000000e+00  8.27787689e-08 -2.07592362e-21
  0.00000000e+00  0.00000000e+00  0.00000000e+00  9.97843544e-03]","[[ 9.97683459e-06 -1.41594707e-29  8.27787689e-11]
 [-1.41594707e-29  9.97675416e-06 -2.07592362e-24]
 [ 8.27787689e-11 -2.07592362e-24  9.97843544e-06]]",[2.08049301e-19 1.80968902e-46 0.00000000e+00]
1786944973.8315618,-2.0095999352786404e-19,-1.9237316785917352e-46,0.0,"[ 9.97653646e-03 -1.35704603e-26  0.00000000e+00  0.00000000e+00
  0.00000000e+00  8.32529068e-08 -1.35704603e-26  9.97645556e-03
  0.00000000e+00  0.00000000e+00  0.00000000e+00 -2.00514408e-21
  0.00000000e+00  0.00000000e+00  0.00000000e+00  0.00000000e+00
  0.00000000e+00  0.00000000e+00  0.00000000e+00  0.00000000e+00
  0.00000000e+00  0.00000000e+00  0.00000000e+00  0.00000000e+00
  0.00000000e+00  0.00000000e+00  0.00000000e+00  0.00000000e+00
  0.00000000e+00  0.00000000e+00  8.32529068e-08 -2.00514408e-21
  0.00000000e+00  0.00000000e+00  0.00000000e+00  9.97814647e-03]","[[ 9.97653646e-06 -1.35704603e-29  8.32529068e-11]
 [-1.35704603e-29  9.97645556e-06 -2.00514408e-24]
 [ 8.32529068e-11 -2.00514408e-24  9.97814647e-06]]",[2.00961998e-19 1.89647913e-46 0.00000000e+00]
1786944973.8687377,-1.995619631547194e-19,-1.9765535671884964e-46,0.0,"[ 9.97633774e-03 -1.34539245e-26  0.00000000e+00  0.00000000e+00
  0.00000000e+00  8.35976105e-08 -1.34539245e-26  9.97625651e-03
  0.00000000e+00  0.00000000e+00  0.00000000e+00 -1.99115460e-21
  0.00000000e+00  0.00000000e+00  0.00000000e+00  0.00000000e+00
  0.00000000e+00  0.00000000e+00  0.00000000e+00  0.00000000e+00
  0.00000000e+00  0.00000000e+00  0.00000000e+00  0.00000000e+00
  0.00000000e+00  0.00000000e+00  0.00000000e+00  0.00000000e+00
  0.00000000e+00  0.00000000e+00  8.35976105e-08 -1.99115460e-21
  0.00000000e+00  0.00000000e+00  0.00000000e+00  9.97795441e-03]","[[ 9.97633774e-06 -1.34539245e-29  8.35976105e-11]
 [-1.34539245e-29  9.97625651e-06 -1.99115460e-24]
 [ 8.35976105e-11 -1.99115460e-24  9.97795441e-06]]",[1.99563954e-19 1.94972383e-46 0.00000000e+00]
1786944973.9182858,-2.0030179193959678e-19,-2.0303750935749328e-46,0.0,"[ 9.97613894e-03 -1.35153312e-26  0.00000000e+00  0.00000000e+00
  0.00000000e+00  8.38540404e-08 -1.35153312e-26  9.97605746e-03
  0.00000000e+00  0.00000000e+00  0.00000000e+00 -1.99849670e-21
  0.00000000e+00  0.00000000e+00  0.00000000e+00  0.00000000e+00
  0.00000000e+00  0.00000000e+00  0.00000000e+00  0.00000000e+00
  0.00000000e+00  0.00000000e+00  0.00000000e+00  0.00000000e+00
  0.00000000e+00  0.00000000e+00  0.00000000e+00  0.00000000e+00
  0.00000000e+00  0.00000000e+00  8.38540404e-08 -1.99849670e-21
  0.00000000e+00  0.00000000e+00  0.00000000e+00  9.97776057e-03]","[[ 9.97613894e-06 -1.35153312e-29  8.38540404e-11]
 [-1.35153312e-29  9.97605746e-06 -1.99849670e-24]
 [ 8.38540404e-11 -1.99849670e-24  9.97776057e-06]]",[2.00303790e-19 2.00332336e-46 0.00000000e+00]
1786944973.9702146,-1.9371244224000147e-19,-2.1075869952567057e-46,0.0,"[ 9.97584085e-03 -1.29609025e-26  0.00000000e+00  0.00000000e+00
  0.00000000e+00  8.43385897e-08 -1.29609025e-26  9.97575891e-03
  0.00000000e+00  0.00000000e+00  0.00000000e+00 -1.93269188e-21
  0.00000000e+00  0.00000000e+00  0.00000000e+00  0.00000000e+00
  0.00000000e+00  0.00000000e+00  0.00000000e+00  0.00000000e+00
  0.00000000e+00  0.00000000e+00  0.00000000e+00  0.00000000e+00
  0.00000000e+00  0.00000000e+00  0.00000000e+00  0.00000000e+00
  0.00000000e+00  0.00000000e+00  8.43385897e-08 -1.93269188e-21
  0.00000000e+00  0.00000000e+00  0.00000000e+00  9.97747186e-03]","[[ 9.97584085e-06 -1.29609025e-29  8.43385897e-11]
 [-1.29609025e-29  9.97575891e-06 -1.93269188e-24]
 [ 8.43385897e-11 -1.93269188e-24  9.97747186e-06]]",[1.93714375e-19 2.08250064e-46 0.00000000e+00]
1786944974.0201619,-2.0022531800772488e-19,-2.1621408032052792e-46,0.0,"[ 9.97564219e-03 -1.35091288e-26  0.00000000e+00  0.00000000e+00
  0.00000000e+00  8.47144987e-08 -1.35091288e-26  9.97555988e-03
  0.00000000e+00  0.00000000e+00  0.00000000e+00 -1.99763404e-21
  0.00000000e+00  0.00000000e+00  0.00000000e+00  0.00000000e+00
  0.00000000e+00  0.00000000e+00  0.00000000e+00  0.00000000e+00
  0.00000000e+00  0.00000000e+00  0.00000000e+00  0.00000000e+00
  0.00000000e+00  0.00000000e+00  0.00000000e+00  0.00000000e+00
  0.00000000e+00  0.00000000e+00  8.47144987e-08 -1.99763404e-21
  0.00000000e+00  0.00000000e+00  0.00000000e+00  9.97728047e-03]","[[ 9.97564219e-06 -1.35091288e-29  8.47144987e-11]
 [-1.35091288e-29  9.97555988e-06 -1.99763404e-24]
 [ 8.47144987e-11 -1.99763404e-24  9.97728047e-06]]",[2.00227315e-19 2.13511314e-46 0.00000000e+00]
1786944974.0806537,-2.0175946285869557e-19,-2.217998537546285e-46,0.0,"[ 9.97544350e-03 -1.36381776e-26  0.00000000e+00  0.00000000e+00
  0.00000000e+00  8.50501295e-08 -1.36381776e-26  9.97536086e-03
  0.00000000e+00  0.00000000e+00  0.00000000e+00 -2.01290046e-21
  0.00000000e+00  0.00000000e+00  0.00000000e+00  0.00000000e+00
  0.00000000e+00  0.00000000e+00  0.00000000e+00  0.00000000e+00
  0.00000000e+00  0.00000000e+00  0.00000000e+00  0.00000000e+00
  0.00000000e+00  0.00000000e+00  0.00000000e+00  0.00000000e+00
  0.00000000e+00  0.00000000e+00  8.50501295e-08 -2.01290046e-21
  0.00000000e+00  0.00000000e+00  0.00000000e+00  9.97708826e-03]","[[ 9.97544350e-06 -1.36381776e-29  8.50501295e-11]
 [-1.36381776e-29  9.97536086e-06 -2.01290046e-24]
 [ 8.50501295e-11 -2.01290046e-24  9.97708826e-06]]",[2.01761476e-19 2.19050380e-46 0.00000000e+00]
1786944974.1176748,-2.0865227175588795e-19,-2.3056768922052477e-46,0.0,"[ 9.97514543e-03 -1.42240204e-26  0.00000000e+00  0.00000000e+00
  0.00000000e+00  8.55062024e-08 -1.42240204e-26  9.97506234e-03
  0.00000000e+00  0.00000000e+00  0.00000000e+00 -2.08160833e-21
  0.00000000e+00  0.00000000e+00  0.00000000e+00  0.00000000e+00
  0.00000000e+00  0.00000000e+00  0.00000000e+00  0.00000000e+00
  0.00000000e+00  0.00000000e+00  0.00000000e+00  0.00000000e+00
  0.00000000e+00  0.00000000e+00  0.00000000e+00  0.00000000e+00
  0.00000000e+00  0.00000000e+00  8.55062024e-08 -2.08160833e-21
  0.00000000e+00  0.00000000e+00  0.00000000e+00  9.97679901e-03]","[[ 9.97514543e-06 -1.42240204e-29  8.55062024e-11]
 [-1.42240204e-29  9.97506234e-06 -2.08160833e-24]
 [ 8.55062024e-11 -2.08160833e-24  9.97679901e-06]]",[2.08654353e-19 2.27602056e-46 0.00000000e+00]
1786944974.167264,-2.1733775214429694e-19,-2.4006606213093796e-46,0.0,"[ 9.97484744e-03 -1.49675791e-26  0.00000000e+00  0.00000000e+00
  0.00000000e+00  8.60323268e-08 -1.49675791e-26  9.97476385e-03
  0.00000000e+00  0.00000000e+00  0.00000000e+00 -2.16819677e-21
  0.00000000e+00  0.00000000e+00  0.00000000e+00  0.00000000e+00
  0.00000000e+00  0.00000000e+00  0.00000000e+00  0.00000000e+00
  0.00000000e+00  0.00000000e+00  0.00000000e+00  0.00000000e+00
  0.00000000e+00  0.00000000e+00  0.00000000e+00  0.00000000e+00
  0.00000000e+00  0.00000000e+00  8.60323268e-08 -2.16819677e-21
  0.00000000e+00  0.00000000e+00  0.00000000e+00  9.97651120e-03]","[[ 9.97484744e-06 -1.49675791e-29  8.60323268e-11]
 [-1.49675791e-29  9.97476385e-06 -2.16819677e-24]
 [ 8.60323268e-11 -2.16819677e-24  9.97651120e-06]]",[2.17339920e-19 2.36815372e-46 0.00000000e+00]
1786944974.2181425,-2.2446605360602893e-19,-2.503375957784865e-46,0.0,"[ 9.97454939e-03 -1.55809210e-26  0.00000000e+00  0.00000000e+00
  0.00000000e+00  8.64697984e-08 -1.55809210e-26  9.97446537e-03
  0.00000000e+00  0.00000000e+00  0.00000000e+00 -2.23924535e-21
  0.00000000e+00  0.00000000e+00  0.00000000e+00  0.00000000e+00
  0.00000000e+00  0.00000000e+00  0.00000000e+00  0.00000000e+00
  0.00000000e+00  0.00000000e+00  0.00000000e+00  0.00000000e+00
  0.00000000e+00  0.00000000e+00  0.00000000e+00  0.00000000e+00
  0.00000000e+00  0.00000000e+00  8.64697984e-08 -2.23924535e-21
  0.00000000e+00  0.00000000e+00  0.00000000e+00  9.97622161e-03]","[[ 9.97454939e-06 -1.55809210e-29  8.64697984e-11]
 [-1.55809210e-29  9.97446537e-06 -2.23924535e-24]
 [ 8.64697984e-11 -2.23924535e-24  9.97622161e-06]]",[2.24468293e-19 2.46842635e-46 0.00000000e+00]
1786944974.2685523,-2.237210599515278e-19,-2.5380643228346482e-46,0.0,"[ 9.97445005e-03 -1.55161916e-26  0.00000000e+00  0.00000000e+00
  0.00000000e+00  8.66230060e-08 -1.55161916e-26  9.97436588e-03
  0.00000000e+00  0.00000000e+00  0.00000000e+00 -2.23179086e-21
  0.00000000e+00  0.00000000e+00  0.00000000e+00  0.00000000e+00
  0.00000000e+00  0.00000000e+00  0.00000000e+00  0.00000000e+00
  0.00000000e+00  0.00000000e+00  0.00000000e+00  0.00000000e+00
  0.00000000e+00  0.00000000e+00  0.00000000e+00  0.00000000e+00
  0.00000000e+00  0.00000000e+00  8.66230060e-08 -2.23179086e-21
  0.00000000e+00  0.00000000e+00  0.00000000e+00  9.97612523e-03]","[[ 9.97445005e-06 -1.55161916e-29  8.66230060e-11]
 [-1.55161916e-29  9.97436588e-06 -2.23179086e-24]
 [ 8.66230060e-11 -2.23179086e-24  9.97612523e-06]]",[2.23723291e-19 2.50337596e-46 0.00000000e+00]
1786944974.3212845,-2.2954315628738435e-19,-2.6817047201276523e-46,0.0,"[ 9.97405281e-03 -1.60213996e-26  0.00000000e+00  0.00000000e+00
  0.00000000e+00  8.73416427e-08 -1.60213996e-26  9.97396794e-03
  0.00000000e+00  0.00000000e+00  0.00000000e+00 -2.28978150e-21
  0.00000000e+00  0.00000000e+00  0.00000000e+00  0.00000000e+00
  0.00000000e+00  0.00000000e+00  0.00000000e+00  0.00000000e+00
  0.00000000e+00  0.00000000e+00  0.00000000e+00  0.00000000e+00
  0.00000000e+00  0.00000000e+00  0.00000000e+00  0.00000000e+00
  0.00000000e+00  0.00000000e+00  8.73416427e-08 -2.28978150e-21
  0.00000000e+00  0.00000000e+00  0.00000000e+00  9.97574189e-03]","[[ 9.97405281e-06 -1.60213996e-29  8.73416427e-11]
 [-1.60213996e-29  9.97396794e-06 -2.28978150e-24]
 [ 8.73416427e-11 -2.28978150e-24  9.97574189e-06]]",[2.29545446e-19 2.64495471e-46 0.00000000e+00]
1786944974.3673713,-2.4040109915109005e-19,-2.760550739826843e-46,0.0,"[ 9.97385413e-03 -1.69700597e-26  0.00000000e+00  0.00000000e+00
  0.00000000e+00  8.76281020e-08 -1.69700597e-26  9.97376899e-03
  0.00000000e+00  0.00000000e+00  0.00000000e+00 -2.39804972e-21
  0.00000000e+00  0.00000000e+00  0.00000000e+00  0.00000000e+00
  0.00000000e+00  0.00000000e+00  0.00000000e+00  0.00000000e+00
  0.00000000e+00  0.00000000e+00  0.00000000e+00  0.00000000e+00
  0.00000000e+00  0.00000000e+00  0.00000000e+00  0.00000000e+00
  0.00000000e+00  0.00000000e+00  8.76281020e-08 -2.39804972e-21
  0.00000000e+00  0.00000000e+00  0.00000000e+00  9.97554875e-03]","[[ 9.97385413e-06 -1.69700597e-29  8.76281020e-11]
 [-1.69700597e-29  9.97376899e-06 -2.39804972e-24]
 [ 8.76281020e-11 -2.39804972e-24  9.97554875e-06]]",[2.40403497e-19 2.71978125e-46 0.00000000e+00]
1786944974.4194174,-2.392635189572176e-19,-2.8412770766855896e-46,0.0,"[ 9.97365552e-03 -1.68696754e-26  0.00000000e+00  0.00000000e+00
  0.00000000e+00  8.79761647e-08 -1.68696754e-26  9.97357004e-03
  0.00000000e+00  0.00000000e+00  0.00000000e+00 -2.38665411e-21
  0.00000000e+00  0.00000000e+00  0.00000000e+00  0.00000000e+00
  0.00000000e+00  0.00000000e+00  0.00000000e+00  0.00000000e+00
  0.00000000e+00  0.00000000e+00  0.00000000e+00  0.00000000e+00
  0.00000000e+00  0.00000000e+00  0.00000000e+00  0.00000000e+00
  0.00000000e+00  0.00000000e+00  8.79761647e-08 -2.38665411e-21
  0.00000000e+00  0.00000000e+00  0.00000000e+00  9.97535687e-03]","[[ 9.97365552e-06 -1.68696754e-29  8.79761647e-11]
 [-1.68696754e-29  9.97357004e-06 -2.38665411e-24]
 [ 8.79761647e-11 -2.38665411e-24  9.97535687e-06]]",[2.39265905e-19 2.80094163e-46 0.00000000e+00]
1786944974.4674582,-2.4132898620242883e-19,-2.9646135519681936e-46,0.0,"[ 9.97335767e-03 -1.70506569e-26  0.00000000e+00  0.00000000e+00
  0.00000000e+00  8.85469480e-08 -1.70506569e-26  9.97327163e-03
  0.00000000e+00  0.00000000e+00  0.00000000e+00 -2.40718586e-21
  0.00000000e+00  0.00000000e+00  0.00000000e+00  0.00000000e+00
  0.00000000e+00  0.00000000e+00  0.00000000e+00  0.00000000e+00
  0.00000000e+00  0.00000000e+00  0.00000000e+00  0.00000000e+00
  0.00000000e+00  0.00000000e+00  0.00000000e+00  0.00000000e+00
  0.00000000e+00  0.00000000e+00  8.85469480e-08 -2.40718586e-21
  0.00000000e+00  0.00000000e+00  0.00000000e+00  9.97507006e-03]","[[ 9.97335767e-06 -1.70506569e-29  8.85469480e-11]
 [-1.70506569e-29  9.97327163e-06 -2.40718586e-24]
 [ 8.85469480e-11 -2.40718586e-24  9.97507006e-06]]",[2.41331393e-19 2.92349412e-46 0.00000000e+00]
1786944974.5171983,-2.474606997535766e-19,-3.0934814670261408e-46,0.0,"[ 9.97305975e-03 -1.75932838e-26  0.00000000e+00  0.00000000e+00
  0.00000000e+00  8.90304341e-08 -1.75932838e-26  9.97297324e-03
  0.00000000e+00  0.00000000e+00  0.00000000e+00 -2.46827628e-21
  0.00000000e+00  0.00000000e+00  0.00000000e+00  0.00000000e+00
  0.00000000e+00  0.00000000e+00  0.00000000e+00  0.00000000e+00
  0.00000000e+00  0.00000000e+00  0.00000000e+00  0.00000000e+00
  0.00000000e+00  0.00000000e+00  0.00000000e+00  0.00000000e+00
  0.00000000e+00  0.00000000e+00  8.90304341e-08 -2.46827628e-21
  0.00000000e+00  0.00000000e+00  0.00000000e+00  9.97478149e-03]","[[ 9.97305975e-06 -1.75932838e-29  8.90304341e-11]
 [-1.75932838e-29  9.97297324e-06 -2.46827628e-24]
 [ 8.90304341e-11 -2.46827628e-24  9.97478149e-06]]",[2.47463168e-19 3.04997499e-46 0.00000000e+00]
1786944974.570247,-2.4849171452040474e-19,-3.1811387935108824e-46,0.0,"[ 9.97286111e-03 -1.76844261e-26  0.00000000e+00  0.00000000e+00
  0.00000000e+00  8.93179505e-08 -1.76844261e-26  9.97277433e-03
  0.00000000e+00  0.00000000e+00  0.00000000e+00 -2.47851099e-21
  0.00000000e+00  0.00000000e+00  0.00000000e+00  0.00000000e+00
  0.00000000e+00  0.00000000e+00  0.00000000e+00  0.00000000e+00
  0.00000000e+00  0.00000000e+00  0.00000000e+00  0.00000000e+00
  0.00000000e+00  0.00000000e+00  0.00000000e+00  0.00000000e+00
  0.00000000e+00  0.00000000e+00  8.93179505e-08 -2.47851099e-21
  0.00000000e+00  0.00000000e+00  0.00000000e+00  9.97458841e-03]","[[ 9.97286111e-06 -1.76844261e-29  8.93179505e-11]
 [-1.76844261e-29  9.97277433e-06 -2.47851099e-24]
 [ 8.93179505e-11 -2.47851099e-24  9.97458841e-06]]",[2.48494193e-19 3.13722531e-46 0.00000000e+00]
1786944974.6186264,-2.465437276850961e-19,-3.308878674163441e-46,0.0,"[ 9.97256320e-03 -1.75100122e-26  0.00000000e+00  0.00000000e+00
  0.00000000e+00  8.97802089e-08 -1.75100122e-26  9.97247597e-03
  0.00000000e+00  0.00000000e+00  0.00000000e+00 -2.45900706e-21
  0.00000000e+00  0.00000000e+00  0.00000000e+00  0.00000000e+00
  0.00000000e+00  0.00000000e+00  0.00000000e+00  0.00000000e+00
  0.00000000e+00  0.00000000e+00  0.00000000e+00  0.00000000e+00
  0.00000000e+00  0.00000000e+00  0.00000000e+00  0.00000000e+00
  0.00000000e+00  0.00000000e+00  8.97802089e-08 -2.45900706e-21
  0.00000000e+00  0.00000000e+00  0.00000000e+00  9.97429944e-03]","[[ 9.97256320e-06 -1.75100122e-29  8.97802089e-11]
 [-1.75100122e-29  9.97247597e-06 -2.45900706e-24]
 [ 8.97802089e-11 -2.45900706e-24  9.97429944e-06]]",[2.46546186e-19 3.26574097e-46 0.00000000e+00]
1786944974.6727457,-2.4860579778609126e-19,-3.396184389039006e-46,0.0,"[ 9.97236461e-03 -1.76946703e-26  0.00000000e+00  0.00000000e+00
  0.00000000e+00  9.00947215e-08 -1.76946703e-26  9.97227707e-03
  0.00000000e+00  0.00000000e+00  0.00000000e+00 -2.47952530e-21
  0.00000000e+00  0.00000000e+00  0.00000000e+00  0.00000000e+00
  0.00000000e+00  0.00000000e+00  0.00000000e+00  0.00000000e+00
  0.00000000e+00  0.00000000e+00  0.00000000e+00  0.00000000e+00
  0.00000000e+00  0.00000000e+00  0.00000000e+00  0.00000000e+00
  0.00000000e+00  0.00000000e+00  9.00947215e-08 -2.47952530e-21
  0.00000000e+00  0.00000000e+00  0.00000000e+00  9.97410693e-03]","[[ 9.97236461e-06 -1.76946703e-29  9.00947215e-11]
 [-1.76946703e-29  9.97227707e-06 -2.47952530e-24]
 [ 9.00947215e-11 -2.47952530e-24  9.97410693e-06]]",[2.48608277e-19 3.35222740e-46 0.00000000e+00]
1786944974.7177505,-2.491612293629188e-19,-3.4842676311296272e-46,0.0,"[ 9.97216604e-03 -1.77440974e-26  0.00000000e+00  0.00000000e+00
  0.00000000e+00  9.04260096e-08 -1.77440974e-26  9.97207818e-03
  0.00000000e+00  0.00000000e+00  0.00000000e+00 -2.48501567e-21
  0.00000000e+00  0.00000000e+00  0.00000000e+00  0.00000000e+00
  0.00000000e+00  0.00000000e+00  0.00000000e+00  0.00000000e+00
  0.00000000e+00  0.00000000e+00  0.00000000e+00  0.00000000e+00
  0.00000000e+00  0.00000000e+00  0.00000000e+00  0.00000000e+00
  0.00000000e+00  0.00000000e+00  9.04260096e-08 -2.48501567e-21
  0.00000000e+00  0.00000000e+00  0.00000000e+00  9.97391477e-03]","[[ 9.97216604e-06 -1.77440974e-29  9.04260096e-11]
 [-1.77440974e-29  9.97207818e-06 -2.48501567e-24]
 [ 9.04260096e-11 -2.48501567e-24  9.97391477e-06]]",[2.49163714e-19 3.44009008e-46 0.00000000e+00]
1786944974.7681427,-2.594594445826956e-19,-3.624935081231293e-46,0.0,"[ 9.97186823e-03 -1.86756793e-26  0.00000000e+00  0.00000000e+00
  0.00000000e+00  9.09500552e-08 -1.86756793e-26  9.97177986e-03
  0.00000000e+00  0.00000000e+00  0.00000000e+00 -2.58765180e-21
  0.00000000e+00  0.00000000e+00  0.00000000e+00  0.00000000e+00
  0.00000000e+00  0.00000000e+00  0.00000000e+00  0.00000000e+00
  0.00000000e+00  0.00000000e+00  0.00000000e+00  0.00000000e+00
  0.00000000e+00  0.00000000e+00  0.00000000e+00  0.00000000e+00
  0.00000000e+00  0.00000000e+00  9.09500552e-08 -2.58765180e-21
  0.00000000e+00  0.00000000e+00  0.00000000e+00  9.97362710e-03]","[[ 9.97186823e-06 -1.86756793e-29  9.09500552e-11]
 [-1.86756793e-29  9.97177986e-06 -2.58765180e-24]
 [ 9.09500552e-11 -2.58765180e-24  9.97362710e-06]]",[2.59462032e-19 3.57651445e-46 0.00000000e+00]
1786944974.8195639,-2.592912331881162e-19,-3.7209596534896355e-46,0.0,"[ 9.97166959e-03 -1.86597820e-26  0.00000000e+00  0.00000000e+00
  0.00000000e+00  9.11858094e-08 -1.86597820e-26  9.97158099e-03
  0.00000000e+00  0.00000000e+00  0.00000000e+00 -2.58592254e-21
  0.00000000e+00  0.00000000e+00  0.00000000e+00  0.00000000e+00
  0.00000000e+00  0.00000000e+00  0.00000000e+00  0.00000000e+00
  0.00000000e+00  0.00000000e+00  0.00000000e+00  0.00000000e+00
  0.00000000e+00  0.00000000e+00  0.00000000e+00  0.00000000e+00
  0.00000000e+00  0.00000000e+00  9.11858094e-08 -2.58592254e-21
  0.00000000e+00  0.00000000e+00  0.00000000e+00  9.97343302e-03]","[[ 9.97166959e-06 -1.86597820e-29  9.11858094e-11]
 [-1.86597820e-29  9.97158099e-06 -2.58592254e-24]
 [ 9.11858094e-11 -2.58592254e-24  9.97343302e-06]]",[2.59293819e-19 3.67261261e-46 0.00000000e+00]
1786944974.8676183,-2.6110611717771525e-19,-3.869383180877062e-46,0.0,"[ 9.97137177e-03 -1.88237855e-26  0.00000000e+00  0.00000000e+00
  0.00000000e+00  9.16683214e-08 -1.88237855e-26  9.97128271e-03
  0.00000000e+00  0.00000000e+00  0.00000000e+00 -2.60394525e-21
  0.00000000e+00  0.00000000e+00  0.00000000e+00  0.00000000e+00
  0.00000000e+00  0.00000000e+00  0.00000000e+00  0.00000000e+00
  0.00000000e+00  0.00000000e+00  0.00000000e+00  0.00000000e+00
  0.00000000e+00  0.00000000e+00  0.00000000e+00  0.00000000e+00
  0.00000000e+00  0.00000000e+00  9.16683214e-08 -2.60394525e-21
  0.00000000e+00  0.00000000e+00  0.00000000e+00  9.97314453e-03]","[[ 9.97137177e-06 -1.88237855e-29  9.16683214e-11]
 [-1.88237855e-29  9.97128271e-06 -2.60394525e-24]
 [ 9.16683214e-11 -2.60394525e-24  9.97314453e-06]]",[2.61108721e-19 3.82027073e-46 0.00000000e+00]
1786944974.917711,-2.699962333719236e-19,-4.025263342582123e-46,0.0,"[ 9.97107392e-03 -1.96383912e-26  0.00000000e+00  0.00000000e+00
  0.00000000e+00  9.20997645e-08 -1.96383912e-26  9.97098444e-03
  0.00000000e+00  0.00000000e+00  0.00000000e+00 -2.69252713e-21
  0.00000000e+00  0.00000000e+00  0.00000000e+00  0.00000000e+00
  0.00000000e+00  0.00000000e+00  0.00000000e+00  0.00000000e+00
  0.00000000e+00  0.00000000e+00  0.00000000e+00  0.00000000e+00
  0.00000000e+00  0.00000000e+00  0.00000000e+00  0.00000000e+00
  0.00000000e+00  0.00000000e+00  9.20997645e-08 -2.69252713e-21
  0.00000000e+00  0.00000000e+00  0.00000000e+00  9.97285502e-03]","[[ 9.97117319e-06 -1.95873772e-29  9.19413127e-11]
 [-1.95873772e-29  9.97108386e-06 -2.68697791e-24]
 [ 9.19413127e-11 -2.68697791e-24  9.97295122e-06]]",[2.69439801e-19 3.91954240e-46 0.00000000e+00]
1786944974.9677553,-2.702915610322487e-19,-4.130941754517958e-46,0.0,"[ 9.97087538e-03 -1.96649827e-26  0.00000000e+00  0.00000000e+00
  0.00000000e+00  9.23979385e-08 -1.96649827e-26  9.97078560e-03
  0.00000000e+00  0.00000000e+00  0.00000000e+00 -2.69541863e-21
  0.00000000e+00  0.00000000e+00  0.00000000e+00  0.00000000e+00
  0.00000000e+00  0.00000000e+00  0.00000000e+00  0.00000000e+00
  0.00000000e+00  0.00000000e+00  0.00000000e+00  0.00000000e+00
  0.00000000e+00  0.00000000e+00  0.00000000e+00  0.00000000e+00
  0.00000000e+00  0.00000000e+00  9.23979385e-08 -2.69541863e-21
  0.00000000e+00  0.00000000e+00  0.00000000e+00  9.97266224e-03]","[[ 9.97087538e-06 -1.96649827e-29  9.23979385e-11]
 [-1.96649827e-29  9.97078560e-06 -2.69541863e-24]
 [ 9.23979385e-11 -2.69541863e-24  9.97266224e-06]]",[2.70294256e-19 4.07782909e-46 0.00000000e+00]
1786944975.0178723,-2.7038096495125367e-19,-4.2906398633677385e-46,0.0,"[ 9.97057762e-03 -1.96719787e-26  0.00000000e+00  0.00000000e+00
  0.00000000e+00  9.29006592e-08 -1.96719787e-26  9.97048736e-03
  0.00000000e+00  0.00000000e+00  0.00000000e+00 -2.69622956e-21
  0.00000000e+00  0.00000000e+00  0.00000000e+00  0.00000000e+00
  0.00000000e+00  0.00000000e+00  0.00000000e+00  0.00000000e+00
  0.00000000e+00  0.00000000e+00  0.00000000e+00  0.00000000e+00
  0.00000000e+00  0.00000000e+00  0.00000000e+00  0.00000000e+00
  0.00000000e+00  0.00000000e+00  9.29006592e-08 -2.69622956e-21
  0.00000000e+00  0.00000000e+00  0.00000000e+00  9.97237421e-03]","[[ 9.97057762e-06 -1.96719787e-29  9.29006592e-11]
 [-1.96719787e-29  9.97048736e-06 -2.69622956e-24]
 [ 9.29006592e-11 -2.69622956e-24  9.97237421e-06]]",[2.70383661e-19 4.23749230e-46 0.00000000e+00]
1786944975.0680451,-2.76775530059507e-19,-4.4009561560803135e-46,0.0,"[ 9.97037914e-03 -2.02658969e-26  0.00000000e+00  0.00000000e+00
  0.00000000e+00  9.32443668e-08 -2.02658969e-26  9.97028854e-03
  0.00000000e+00  0.00000000e+00  0.00000000e+00 -2.75994353e-21
  0.00000000e+00  0.00000000e+00  0.00000000e+00  0.00000000e+00
  0.00000000e+00  0.00000000e+00  0.00000000e+00  0.00000000e+00
  0.00000000e+00  0.00000000e+00  0.00000000e+00  0.00000000e+00
  0.00000000e+00  0.00000000e+00  0.00000000e+00  0.00000000e+00
  0.00000000e+00  0.00000000e+00  9.32443668e-08 -2.75994353e-21
  0.00000000e+00  0.00000000e+00  0.00000000e+00  9.97218237e-03]","[[ 9.97037914e-06 -2.02658969e-29  9.32443668e-11]
 [-2.02658969e-29  9.97028854e-06 -2.75994353e-24]
 [ 9.32443668e-11 -2.75994353e-24  9.97218237e-06]]",[2.76778290e-19 4.34490787e-46 0.00000000e+00]
1786944975.1171803,-2.789747739476905e-19,-4.5699896859604514e-46,0.0,"[ 9.97008133e-03 -2.04702765e-26  0.00000000e+00  0.00000000e+00
  0.00000000e+00  9.36526845e-08 -2.04702765e-26  9.96999033e-03
  0.00000000e+00  0.00000000e+00  0.00000000e+00 -2.78179159e-21
  0.00000000e+00  0.00000000e+00  0.00000000e+00  0.00000000e+00
  0.00000000e+00  0.00000000e+00  0.00000000e+00  0.00000000e+00
  0.00000000e+00  0.00000000e+00  0.00000000e+00  0.00000000e+00
  0.00000000e+00  0.00000000e+00  0.00000000e+00  0.00000000e+00
  0.00000000e+00  0.00000000e+00  9.36526845e-08 -2.78179159e-21
  0.00000000e+00  0.00000000e+00  0.00000000e+00  9.97189246e-03]","[[ 9.97008133e-06 -2.04702765e-29  9.36526845e-11]
 [-2.04702765e-29  9.96999033e-06 -2.78179159e-24]
 [ 9.36526845e-11 -2.78179159e-24  9.97189246e-06]]",[2.78977555e-19 4.51292720e-46 0.00000000e+00]
1786944975.167421,-2.803424672043326e-19,-4.683673421474895e-46,0.0,"[ 9.96988283e-03 -2.05980688e-26  0.00000000e+00  0.00000000e+00
  0.00000000e+00  9.39589752e-08 -2.05980688e-26  9.96979153e-03
  0.00000000e+00  0.00000000e+00  0.00000000e+00 -2.79537434e-21
  0.00000000e+00  0.00000000e+00  0.00000000e+00  0.00000000e+00
  0.00000000e+00  0.00000000e+00  0.00000000e+00  0.00000000e+00
  0.00000000e+00  0.00000000e+00  0.00000000e+00  0.00000000e+00
  0.00000000e+00  0.00000000e+00  0.00000000e+00  0.00000000e+00
  0.00000000e+00  0.00000000e+00  9.39589752e-08 -2.79537434e-21
  0.00000000e+00  0.00000000e+00  0.00000000e+00  9.97169988e-03]","[[ 9.96988283e-06 -2.05980688e-29  9.39589752e-11]
 [-2.05980688e-29  9.96979153e-06 -2.79537434e-24]
 [ 9.39589752e-11 -2.79537434e-24  9.97169988e-06]]",[2.80345262e-19 4.62597383e-46 0.00000000e+00]
1786944975.2174444,-2.8167569962513e-19,-4.857787987752885e-46,0.0,"[ 9.96958511e-03 -2.07223408e-26  0.00000000e+00  0.00000000e+00
  0.00000000e+00  9.44379908e-08 -2.07223408e-26  9.96949335e-03
  0.00000000e+00  0.00000000e+00  0.00000000e+00 -2.80858492e-21
  0.00000000e+00  0.00000000e+00  0.00000000e+00  0.00000000e+00
  0.00000000e+00  0.00000000e+00  0.00000000e+00  0.00000000e+00
  0.00000000e+00  0.00000000e+00  0.00000000e+00  0.00000000e+00
  0.00000000e+00  0.00000000e+00  0.00000000e+00  0.00000000e+00
  0.00000000e+00  0.00000000e+00  9.44379908e-08 -2.80858492e-21
  0.00000000e+00  0.00000000e+00  0.00000000e+00  9.97141143e-03]","[[ 9.96958511e-06 -2.07223408e-29  9.44379908e-11]
 [-2.07223408e-29  9.96949335e-06 -2.80858492e-24]
 [ 9.44379908e-11 -2.80858492e-24  9.97141143e-06]]",[2.81678508e-19 4.79946546e-46 0.00000000e+00]
1786944975.267379,-2.8526825889148486e-19,-4.976475805014607e-46,0.0,"[ 9.96938664e-03 -2.10611317e-26  0.00000000e+00  0.00000000e+00
  0.00000000e+00  9.47572673e-08 -2.10611317e-26  9.96929457e-03
  0.00000000e+00  0.00000000e+00  0.00000000e+00 -2.84435109e-21
  0.00000000e+00  0.00000000e+00  0.00000000e+00  0.00000000e+00
  0.00000000e+00  0.00000000e+00  0.00000000e+00  0.00000000e+00
  0.00000000e+00  0.00000000e+00  0.00000000e+00  0.00000000e+00
  0.00000000e+00  0.00000000e+00  0.00000000e+00  0.00000000e+00
  0.00000000e+00  0.00000000e+00  9.47572673e-08 -2.84435109e-21
  0.00000000e+00  0.00000000e+00  0.00000000e+00  9.97121913e-03]","[[ 9.96938664e-06 -2.10611317e-29  9.47572673e-11]
 [-2.10611317e-29  9.96929457e-06 -2.84435109e-24]
 [ 9.47572673e-11 -2.84435109e-24  9.97121913e-06]]",[2.85271103e-19 4.91644350e-46 0.00000000e+00]
1786944975.318166,-2.9008149732465184e-19,-5.164595856509196e-46,0.0,"[ 9.96908892e-03 -2.15154656e-26  0.00000000e+00  0.00000000e+00
  0.00000000e+00  9.51990194e-08 -2.15154656e-26  9.96899642e-03
  0.00000000e+00  0.00000000e+00  0.00000000e+00 -2.89225843e-21
  0.00000000e+00  0.00000000e+00  0.00000000e+00  0.00000000e+00
  0.00000000e+00  0.00000000e+00  0.00000000e+00  0.00000000e+00
  0.00000000e+00  0.00000000e+00  0.00000000e+00  0.00000000e+00
  0.00000000e+00  0.00000000e+00  0.00000000e+00  0.00000000e+00
  0.00000000e+00  0.00000000e+00  9.51990194e-08 -2.89225843e-21
  0.00000000e+00  0.00000000e+00  0.00000000e+00  9.97092995e-03]","[[ 9.96918823e-06 -2.17059309e-29  9.51202642e-11]
 [-2.17059309e-29  9.96909580e-06 -2.91220788e-24]
 [ 9.51202642e-11 -2.91220788e-24  9.97102774e-06]]",[2.92082259e-19 5.03888477e-46 0.00000000e+00]
1786944975.369787,-2.8958727004077845e-19,-5.28878995317796e-46,0.0,"[ 9.96889046e-03 -2.14675707e-26  0.00000000e+00  0.00000000e+00
  0.00000000e+00  9.55035360e-08 -2.14675707e-26  9.96879766e-03
  0.00000000e+00  0.00000000e+00  0.00000000e+00 -2.88727295e-21
  0.00000000e+00  0.00000000e+00  0.00000000e+00  0.00000000e+00
  0.00000000e+00  0.00000000e+00  0.00000000e+00  0.00000000e+00
  0.00000000e+00  0.00000000e+00  0.00000000e+00  0.00000000e+00
  0.00000000e+00  0.00000000e+00  0.00000000e+00  0.00000000e+00
  0.00000000e+00  0.00000000e+00  9.55035360e-08 -2.88727295e-21
  0.00000000e+00  0.00000000e+00  0.00000000e+00  9.97073738e-03]","[[ 9.96889046e-06 -2.14675707e-29  9.55035360e-11]
 [-2.14675707e-29  9.96879766e-06 -2.88727295e-24]
 [ 9.55035360e-11 -2.88727295e-24  9.97073738e-06]]",[2.89590157e-19 5.22667409e-46 0.00000000e+00]
1786944975.4172802,-2.9795454205201005e-19,-5.4834723406899004e-46,0.0,"[ 9.96859277e-03 -2.22666079e-26  0.00000000e+00  0.00000000e+00
  0.00000000e+00  9.59535556e-08 -2.22666079e-26  9.96849954e-03
  0.00000000e+00  0.00000000e+00  0.00000000e+00 -2.97061199e-21
  0.00000000e+00  0.00000000e+00  0.00000000e+00  0.00000000e+00
  0.00000000e+00  0.00000000e+00  0.00000000e+00  0.00000000e+00
  0.00000000e+00  0.00000000e+00  0.00000000e+00  0.00000000e+00
  0.00000000e+00  0.00000000e+00  0.00000000e+00  0.00000000e+00
  0.00000000e+00  0.00000000e+00  9.59535556e-08 -2.97061199e-21
  0.00000000e+00  0.00000000e+00  0.00000000e+00  9.97044840e-03]","[[ 9.96869200e-06 -2.19918968e-29  9.58006404e-11]
 [-2.19918968e-29  9.96859891e-06 -2.94200453e-24]
 [ 9.58006404e-11 -2.94200453e-24  9.97054467e-06]]",[2.95085316e-19 5.35233981e-46 0.00000000e+00]
1786944975.4829092,-2.900756323325519e-19,-5.6090241852950826e-46,0.0,"[ 9.96839439e-03 -2.15092118e-26  0.00000000e+00  0.00000000e+00
  0.00000000e+00  9.63166175e-08 -2.15092118e-26  9.96830080e-03
  0.00000000e+00  0.00000000e+00  0.00000000e+00 -2.89199805e-21
  0.00000000e+00  0.00000000e+00  0.00000000e+00  0.00000000e+00
  0.00000000e+00  0.00000000e+00  0.00000000e+00  0.00000000e+00
  0.00000000e+00  0.00000000e+00  0.00000000e+00  0.00000000e+00
  0.00000000e+00  0.00000000e+00  0.00000000e+00  0.00000000e+00
  0.00000000e+00  0.00000000e+00  9.63166175e-08 -2.89199805e-21
  0.00000000e+00  0.00000000e+00  0.00000000e+00  9.97025704e-03]","[[ 9.96839439e-06 -2.15092118e-29  9.63166175e-11]
 [-2.15092118e-29  9.96830080e-06 -2.89199805e-24]
 [ 9.63166175e-11 -2.89199805e-24  9.97025704e-06]]",[2.90078524e-19 5.54668587e-46 0.00000000e+00]
1786944975.51715,-2.9357791824979817e-19,-5.736311779162435e-46,0.0,"[ 9.96819603e-03 -2.18462848e-26  0.00000000e+00  0.00000000e+00
  0.00000000e+00  9.66950547e-08 -2.18462848e-26  9.96810207e-03
  0.00000000e+00  0.00000000e+00  0.00000000e+00 -2.92685840e-21
  0.00000000e+00  0.00000000e+00  0.00000000e+00  0.00000000e+00
  0.00000000e+00  0.00000000e+00  0.00000000e+00  0.00000000e+00
  0.00000000e+00  0.00000000e+00  0.00000000e+00  0.00000000e+00
  0.00000000e+00  0.00000000e+00  0.00000000e+00  0.00000000e+00
  0.00000000e+00  0.00000000e+00  9.66950547e-08 -2.92685840e-21
  0.00000000e+00  0.00000000e+00  0.00000000e+00  9.97006599e-03]","[[ 9.96819603e-06 -2.18462848e-29  9.66950547e-11]
 [-2.18462848e-29  9.96810207e-06 -2.92685840e-24]
 [ 9.66950547e-11 -2.92685840e-24  9.97006599e-06]]",[2.93580845e-19 5.67223181e-46 0.00000000e+00]
1786944975.5686736,-2.89093958215286e-19,-5.861238557831456e-46,0.0,"[ 9.96799769e-03 -2.14113718e-26  0.00000000e+00  0.00000000e+00
  0.00000000e+00  9.70962211e-08 -2.14113718e-26  9.96790335e-03
  0.00000000e+00  0.00000000e+00  0.00000000e+00 -2.88209554e-21
  0.00000000e+00  0.00000000e+00  0.00000000e+00  0.00000000e+00
  0.00000000e+00  0.00000000e+00  0.00000000e+00  0.00000000e+00
  0.00000000e+00  0.00000000e+00  0.00000000e+00  0.00000000e+00
  0.00000000e+00  0.00000000e+00  0.00000000e+00  0.00000000e+00
  0.00000000e+00  0.00000000e+00  9.70962211e-08 -2.88209554e-21
  0.00000000e+00  0.00000000e+00  0.00000000e+00  9.96987542e-03]","[[ 9.96799769e-06 -2.14113718e-29  9.70962211e-11]
 [-2.14113718e-29  9.96790335e-06 -2.88209554e-24]
 [ 9.70962211e-11 -2.88209554e-24  9.96987542e-06]]",[2.89096840e-19 5.79939677e-46 0.00000000e+00]
1786944975.621156,-2.9652103171565265e-19,-6.053662192187263e-46,0.0,"[ 9.96770001e-03 -2.21320766e-26  0.00000000e+00  0.00000000e+00
  0.00000000e+00  9.74887320e-08 -2.21320766e-26  9.96760528e-03
  0.00000000e+00  0.00000000e+00  0.00000000e+00 -2.95605415e-21
  0.00000000e+00  0.00000000e+00  0.00000000e+00  0.00000000e+00
  0.00000000e+00  0.00000000e+00  0.00000000e+00  0.00000000e+00
  0.00000000e+00  0.00000000e+00  0.00000000e+00  0.00000000e+00
  0.00000000e+00  0.00000000e+00  0.00000000e+00  0.00000000e+00
  0.00000000e+00  0.00000000e+00  9.74887320e-08 -2.95605415e-21
  0.00000000e+00  0.00000000e+00  0.00000000e+00  9.96958532e-03]","[[ 9.96770001e-06 -2.21320766e-29  9.74887320e-11]
 [-2.21320766e-29  9.96760528e-06 -2.95605415e-24]
 [ 9.74887320e-11 -2.95605415e-24  9.96958532e-06]]",[2.96523987e-19 5.98809496e-46 0.00000000e+00]
1786944975.6682096,-3.076479712862277e-19,-6.191633750056298e-46,0.0,"[ 9.96750169e-03 -2.32174596e-26  0.00000000e+00  0.00000000e+00
  0.00000000e+00  9.78813031e-08 -2.32174596e-26  9.96740658e-03
  0.00000000e+00  0.00000000e+00  0.00000000e+00 -3.06692400e-21
  0.00000000e+00  0.00000000e+00  0.00000000e+00  0.00000000e+00
  0.00000000e+00  0.00000000e+00  0.00000000e+00  0.00000000e+00
  0.00000000e+00  0.00000000e+00  0.00000000e+00  0.00000000e+00
  0.00000000e+00  0.00000000e+00  0.00000000e+00  0.00000000e+00
  0.00000000e+00  0.00000000e+00  9.78813031e-08 -3.06692400e-21
  0.00000000e+00  0.00000000e+00  0.00000000e+00  9.96939459e-03]","[[ 9.96750169e-06 -2.32174596e-29  9.78813031e-11]
 [-2.32174596e-29  9.96740658e-06 -3.06692400e-24]
 [ 9.78813031e-11 -3.06692400e-24  9.96939459e-06]]",[3.07651038e-19 6.12026600e-46 0.00000000e+00]
1786944975.7184398,-3.1025023119103447e-19,-6.409547593488151e-46,0.0,"[ 9.96720417e-03 -2.34708026e-26  0.00000000e+00  0.00000000e+00
  0.00000000e+00  9.84224459e-08 -2.34708026e-26  9.96710854e-03
  0.00000000e+00  0.00000000e+00  0.00000000e+00 -3.09277447e-21
  0.00000000e+00  0.00000000e+00  0.00000000e+00  0.00000000e+00
  0.00000000e+00  0.00000000e+00  0.00000000e+00  0.00000000e+00
  0.00000000e+00  0.00000000e+00  0.00000000e+00  0.00000000e+00
  0.00000000e+00  0.00000000e+00  0.00000000e+00  0.00000000e+00
  0.00000000e+00  0.00000000e+00  9.84224459e-08 -3.09277447e-21
  0.00000000e+00  0.00000000e+00  0.00000000e+00  9.96910754e-03]","[[ 9.96720417e-06 -2.34708026e-29  9.84224459e-11]
 [-2.34708026e-29  9.96710854e-06 -3.09277447e-24]
 [ 9.84224459e-11 -3.09277447e-24  9.96910754e-06]]",[3.10253324e-19 6.33679181e-46 0.00000000e+00]
1786944975.7702742,-3.160981327746959e-19,-6.637375049076521e-46,0.0,"[ 9.96690661e-03 -2.40450625e-26  0.00000000e+00  0.00000000e+00
  0.00000000e+00  9.88972581e-08 -2.40450625e-26  9.96681052e-03
  0.00000000e+00  0.00000000e+00  0.00000000e+00 -3.15097860e-21
  0.00000000e+00  0.00000000e+00  0.00000000e+00  0.00000000e+00
  0.00000000e+00  0.00000000e+00  0.00000000e+00  0.00000000e+00
  0.00000000e+00  0.00000000e+00  0.00000000e+00  0.00000000e+00
  0.00000000e+00  0.00000000e+00  0.00000000e+00  0.00000000e+00
  0.00000000e+00  0.00000000e+00  9.88972581e-08 -3.15097860e-21
  0.00000000e+00  0.00000000e+00  0.00000000e+00  9.96881917e-03]","[[ 9.96690661e-06 -2.40450625e-29  9.88972581e-11]
 [-2.40450625e-29  9.96681052e-06 -3.15097860e-24]
 [ 9.88972581e-11 -3.15097860e-24  9.96881917e-06]]",[3.16101283e-19 6.56143369e-46 0.00000000e+00]
1786944975.818801,-3.111784652421184e-19,-6.783274481893077e-46,0.0,"[ 9.96670823e-03 -2.35577425e-26  0.00000000e+00  0.00000000e+00
  0.00000000e+00  9.91961774e-08 -2.35577425e-26  9.96661185e-03
  0.00000000e+00  0.00000000e+00  0.00000000e+00 -3.10187348e-21
  0.00000000e+00  0.00000000e+00  0.00000000e+00  0.00000000e+00
  0.00000000e+00  0.00000000e+00  0.00000000e+00  0.00000000e+00
  0.00000000e+00  0.00000000e+00  0.00000000e+00  0.00000000e+00
  0.00000000e+00  0.00000000e+00  0.00000000e+00  0.00000000e+00
  0.00000000e+00  0.00000000e+00  9.91961774e-08 -3.10187348e-21
  0.00000000e+00  0.00000000e+00  0.00000000e+00  9.96862657e-03]","[[ 9.96670823e-06 -2.35577425e-29  9.91961774e-11]
 [-2.35577425e-29  9.96661185e-06 -3.10187348e-24]
 [ 9.91961774e-11 -3.10187348e-24  9.96862657e-06]]",[3.11181567e-19 6.71003401e-46 0.00000000e+00]
1786944975.8673434,-3.0866674005223316e-19,-6.927291943885712e-46,0.0,"[ 9.96650989e-03 -2.33075654e-26  0.00000000e+00  0.00000000e+00
  0.00000000e+00  9.95279669e-08 -2.33075654e-26  9.96641319e-03
  0.00000000e+00  0.00000000e+00  0.00000000e+00 -3.07677369e-21
  0.00000000e+00  0.00000000e+00  0.00000000e+00  0.00000000e+00
  0.00000000e+00  0.00000000e+00  0.00000000e+00  0.00000000e+00
  0.00000000e+00  0.00000000e+00  0.00000000e+00  0.00000000e+00
  0.00000000e+00  0.00000000e+00  0.00000000e+00  0.00000000e+00
  0.00000000e+00  0.00000000e+00  9.95279669e-08 -3.07677369e-21
  0.00000000e+00  0.00000000e+00  0.00000000e+00  9.96843464e-03]","[[ 9.96650989e-06 -2.33075654e-29  9.95279669e-11]
 [-2.33075654e-29  9.96641319e-06 -3.07677369e-24]
 [ 9.95279669e-11 -3.07677369e-24  9.96843464e-06]]",[3.08669816e-19 6.85541685e-46 0.00000000e+00]
1786944975.9232044,-3.1420147427939195e-19,-7.148292437354345e-46,0.0,"[ 9.96621234e-03 -2.38579150e-26  0.00000000e+00  0.00000000e+00
  0.00000000e+00  9.99653840e-08 -2.38579150e-26  9.96611521e-03
  0.00000000e+00  0.00000000e+00  0.00000000e+00 -3.13185269e-21
  0.00000000e+00  0.00000000e+00  0.00000000e+00  0.00000000e+00
  0.00000000e+00  0.00000000e+00  0.00000000e+00  0.00000000e+00
  0.00000000e+00  0.00000000e+00  0.00000000e+00  0.00000000e+00
  0.00000000e+00  0.00000000e+00  0.00000000e+00  0.00000000e+00
  0.00000000e+00  0.00000000e+00  9.99653840e-08 -3.13185269e-21
  0.00000000e+00  0.00000000e+00  0.00000000e+00  9.96814555e-03]","[[ 9.96621234e-06 -2.38579150e-29  9.99653840e-11]
 [-2.38579150e-29  9.96611521e-06 -3.13185269e-24]
 [ 9.99653840e-11 -3.13185269e-24  9.96814555e-06]]",[3.14204606e-19 7.07340026e-46 0.00000000e+00]
1786944975.973254,-3.1833311632980855e-19,-7.301759133904961e-46,0.0,"[ 9.96601414e-03 -2.42704943e-26  0.00000000e+00  0.00000000e+00
  0.00000000e+00  1.00422327e-07 -2.42704943e-26  9.96591657e-03
  0.00000000e+00  0.00000000e+00  0.00000000e+00 -3.17297426e-21
  0.00000000e+00  0.00000000e+00  0.00000000e+00  0.00000000e+00
  0.00000000e+00  0.00000000e+00  0.00000000e+00  0.00000000e+00
  0.00000000e+00  0.00000000e+00  0.00000000e+00  0.00000000e+00
  0.00000000e+00  0.00000000e+00  0.00000000e+00  0.00000000e+00
  0.00000000e+00  0.00000000e+00  1.00422327e-07 -3.17297426e-21
  0.00000000e+00  0.00000000e+00  0.00000000e+00  9.96795619e-03]","[[ 9.96601414e-06 -2.42704943e-29  1.00422327e-10]
 [-2.42704943e-29  9.96591657e-06 -3.17297426e-24]
 [ 1.00422327e-10 -3.17297426e-24  9.96795619e-06]]",[3.18336289e-19 7.22456934e-46 0.00000000e+00]
1786944976.0172577,-3.2326692106707527e-19,-7.618952548538362e-46,0.0,"[ 9.96561739e-03 -2.47644791e-26  0.00000000e+00  0.00000000e+00
  0.00000000e+00  1.00950930e-07 -2.47644791e-26  9.96551930e-03
  0.00000000e+00  0.00000000e+00  0.00000000e+00 -3.22202576e-21
  0.00000000e+00  0.00000000e+00  0.00000000e+00  0.00000000e+00
  0.00000000e+00  0.00000000e+00  0.00000000e+00  0.00000000e+00
  0.00000000e+00  0.00000000e+00  0.00000000e+00  0.00000000e+00
  0.00000000e+00  0.00000000e+00  0.00000000e+00  0.00000000e+00
  0.00000000e+00  0.00000000e+00  1.00950930e-07 -3.22202576e-21
  0.00000000e+00  0.00000000e+00  0.00000000e+00  9.96756966e-03]","[[ 9.96571655e-06 -2.46532306e-29  1.00790649e-10]
 [-2.46532306e-29  9.96561862e-06 -3.21100711e-24]
 [ 1.00790649e-10 -3.21100711e-24  9.96766572e-06]]",[3.22161470e-19 7.45962264e-46 0.00000000e+00]
1786944976.0681353,-3.161791732764399e-19,-7.773195978008332e-46,0.0,"[ 9.96541906e-03 -2.40474108e-26  0.00000000e+00  0.00000000e+00
  0.00000000e+00  1.01243342e-07 -2.40474108e-26  9.96532068e-03
  0.00000000e+00  0.00000000e+00  0.00000000e+00 -3.15131531e-21
  0.00000000e+00  0.00000000e+00  0.00000000e+00  0.00000000e+00
  0.00000000e+00  0.00000000e+00  0.00000000e+00  0.00000000e+00
  0.00000000e+00  0.00000000e+00  0.00000000e+00  0.00000000e+00
  0.00000000e+00  0.00000000e+00  0.00000000e+00  0.00000000e+00
  0.00000000e+00  0.00000000e+00  1.01243342e-07 -3.15131531e-21
  0.00000000e+00  0.00000000e+00  0.00000000e+00  9.96737698e-03]","[[ 9.96541906e-06 -2.40474108e-29  1.01243342e-10]
 [-2.40474108e-29  9.96532068e-06 -3.15131531e-24]
 [ 1.01243342e-10 -3.15131531e-24  9.96737698e-06]]",[3.16182324e-19 7.69723902e-46 0.00000000e+00]
1786944976.1234488,-3.273912030920918e-19,-8.010687656489393e-46,0.0,"[ 9.96512163e-03 -2.51838538e-26  0.00000000e+00  0.00000000e+00
  0.00000000e+00  1.01740641e-07 -2.51838538e-26  9.96502277e-03
  0.00000000e+00  0.00000000e+00  0.00000000e+00 -3.26297233e-21
  0.00000000e+00  0.00000000e+00  0.00000000e+00  0.00000000e+00
  0.00000000e+00  0.00000000e+00  0.00000000e+00  0.00000000e+00
  0.00000000e+00  0.00000000e+00  0.00000000e+00  0.00000000e+00
  0.00000000e+00  0.00000000e+00  0.00000000e+00  0.00000000e+00
  0.00000000e+00  0.00000000e+00  1.01740641e-07 -3.26297233e-21
  0.00000000e+00  0.00000000e+00  0.00000000e+00  9.96708917e-03]","[[ 9.96522077e-06 -2.45013888e-29  1.01573425e-10]
 [-2.45013888e-29  9.96512207e-06 -3.19598670e-24]
 [ 1.01573425e-10 -3.19598670e-24  9.96718507e-06]]",[3.20670519e-19 7.84982561e-46 0.00000000e+00]
1786944976.170088,-3.211324846424294e-19,-8.170736933402445e-46,0.0,"[ 9.96492329e-03 -2.45455579e-26  0.00000000e+00  0.00000000e+00
  0.00000000e+00  1.02009374e-07 -2.45455579e-26  9.96482417e-03
  0.00000000e+00  0.00000000e+00  0.00000000e+00 -3.20052732e-21
  0.00000000e+00  0.00000000e+00  0.00000000e+00  0.00000000e+00
  0.00000000e+00  0.00000000e+00  0.00000000e+00  0.00000000e+00
  0.00000000e+00  0.00000000e+00  0.00000000e+00  0.00000000e+00
  0.00000000e+00  0.00000000e+00  0.00000000e+00  0.00000000e+00
  0.00000000e+00  0.00000000e+00  1.02009374e-07 -3.20052732e-21
  0.00000000e+00  0.00000000e+00  0.00000000e+00  9.96689603e-03]","[[ 9.96492329e-06 -2.45455579e-29  1.02009374e-10]
 [-2.45455579e-29  9.96482417e-06 -3.20052732e-24]
 [ 1.02009374e-10 -3.20052732e-24  9.96689603e-06]]",[3.21135685e-19 8.09199302e-46 0.00000000e+00]
1786944976.2177534,-3.212074821767199e-19,-8.328825003782528e-46,0.0,"[ 9.96472499e-03 -2.45520865e-26  0.00000000e+00  0.00000000e+00
  0.00000000e+00  1.02315622e-07 -2.45520865e-26  9.96462558e-03
  0.00000000e+00  0.00000000e+00  0.00000000e+00 -3.20121100e-21
  0.00000000e+00  0.00000000e+00  0.00000000e+00  0.00000000e+00
  0.00000000e+00  0.00000000e+00  0.00000000e+00  0.00000000e+00
  0.00000000e+00  0.00000000e+00  0.00000000e+00  0.00000000e+00
  0.00000000e+00  0.00000000e+00  0.00000000e+00  0.00000000e+00
  0.00000000e+00  0.00000000e+00  1.02315622e-07 -3.20121100e-21
  0.00000000e+00  0.00000000e+00  0.00000000e+00  9.96670365e-03]","[[ 9.96472499e-06 -2.45520865e-29  1.02315622e-10]
 [-2.45520865e-29  9.96462558e-06 -3.20121100e-24]
 [ 1.02315622e-10 -3.20121100e-24  9.96670365e-06]]",[3.21210683e-19 8.25004329e-46 0.00000000e+00]
1786944976.2725258,-3.200916130462314e-19,-8.563578982276375e-46,0.0,"[ 9.96442758e-03 -2.44363435e-26  0.00000000e+00  0.00000000e+00
  0.00000000e+00  1.02785919e-07 -2.44363435e-26  9.96432771e-03
  0.00000000e+00  0.00000000e+00  0.00000000e+00 -3.18999408e-21
  0.00000000e+00  0.00000000e+00  0.00000000e+00  0.00000000e+00
  0.00000000e+00  0.00000000e+00  0.00000000e+00  0.00000000e+00
  0.00000000e+00  0.00000000e+00  0.00000000e+00  0.00000000e+00
  0.00000000e+00  0.00000000e+00  0.00000000e+00  0.00000000e+00
  0.00000000e+00  0.00000000e+00  1.02785919e-07 -3.18999408e-21
  0.00000000e+00  0.00000000e+00  0.00000000e+00  9.96641533e-03]","[[ 9.96442758e-06 -2.44363435e-29  1.02785919e-10]
 [-2.44363435e-29  9.96432771e-06 -3.18999408e-24]
 [ 1.02785919e-10 -3.18999408e-24  9.96641533e-06]]",[3.20094803e-19 8.48544407e-46 0.00000000e+00]
1786944976.3210592,-3.247207005642868e-19,-8.801048806240298e-46,0.0,"[ 9.96413017e-03 -2.49120909e-26  0.00000000e+00  0.00000000e+00
  0.00000000e+00  1.03246952e-07 -2.49120909e-26  9.96402985e-03
  0.00000000e+00  0.00000000e+00  0.00000000e+00 -3.23603277e-21
  0.00000000e+00  0.00000000e+00  0.00000000e+00  0.00000000e+00
  0.00000000e+00  0.00000000e+00  0.00000000e+00  0.00000000e+00
  0.00000000e+00  0.00000000e+00  0.00000000e+00  0.00000000e+00
  0.00000000e+00  0.00000000e+00  0.00000000e+00  0.00000000e+00
  0.00000000e+00  0.00000000e+00  1.03246952e-07 -3.23603277e-21
  0.00000000e+00  0.00000000e+00  0.00000000e+00  9.96612684e-03]","[[ 9.96413017e-06 -2.49120909e-29  1.03246952e-10]
 [-2.49120909e-29  9.96402985e-06 -3.23603277e-24]
 [ 1.03246952e-10 -3.23603277e-24  9.96612684e-06]]",[3.24723936e-19 8.72024017e-46 0.00000000e+00]
