time,x,y,yaw,cov_prop,K_gain,innovation,v_ekf,omega_ekf
1787211588.2534866,1.1623181821227866,0.9580883305268896,2.0922363072406043,"[ 6.47605914e-05 -4.85643145e-06  0.00000000e+00  0.00000000e+00
  0.00000000e+00 -6.58652144e-06 -4.85643145e-06  4.55161742e-05
  0.00000000e+00  0.00000000e+00  0.00000000e+00  2.53520977e-06
  0.00000000e+00  0.00000000e+00  0.00000000e+00  0.00000000e+00
  0.00000000e+00  0.00000000e+00  0.00000000e+00  0.00000000e+00
  0.00000000e+00  0.00000000e+00  0.00000000e+00  0.00000000e+00
  0.00000000e+00  0.00000000e+00  0.00000000e+00  0.00000000e+00
  0.00000000e+00  0.00000000e+00 -6.58652144e-06  2.53520977e-06
  0.00000000e+00  0.00000000e+00  0.00000000e+00  4.79121930e-06]","[[-0.00042062  0.06242072]
 [-0.0010338  -0.02031842]]",[],0.0,0.0
1787211588.2973864,1.1623181821227866,0.9580883305268896,2.0922363072406043,"[ 6.47605914e-05 -4.85643145e-06  0.00000000e+00  0.00000000e+00
  0.00000000e+00 -6.58652144e-06 -4.85643145e-06  4.55161742e-05
  0.00000000e+00  0.00000000e+00  0.00000000e+00  2.53520977e-06
  0.00000000e+00  0.00000000e+00  0.00000000e+00  0.00000000e+00
  0.00000000e+00  0.00000000e+00  0.00000000e+00  0.00000000e+00
  0.00000000e+00  0.00000000e+00  0.00000000e+00  0.00000000e+00
  0.00000000e+00  0.00000000e+00  0.00000000e+00  0.00000000e+00
  0.00000000e+00  0.00000000e+00 -6.58652144e-06  2.53520977e-06
  0.00000000e+00  0.00000000e+00  0.00000000e+00  4.79121930e-06]","[[-0.00042062  0.06242072]
 [-0.0010338  -0.02031842]]",[],0.0,0.0
1787211588.3405306,1.1623181821227866,0.9580883305268896,2.0922363072406043,"[ 6.47605914e-05 -4.85643145e-06  0.00000000e+00  0.00000000e+00
  0.00000000e+00 -6.58652144e-06 -4.85643145e-06  4.55161742e-05
  0.00000000e+00  0.00000000e+00  0.00000000e+00  2.53520977e-06
  0.00000000e+00  0.00000000e+00  0.00000000e+00  0.00000000e+00
  0.00000000e+00  0.00000000e+00  0.00000000e+00  0.00000000e+00
  0.00000000e+00  0.00000000e+00  0.00000000e+00  0.00000000e+00
  0.00000000e+00  0.00000000e+00  0.00000000e+00  0.00000000e+00
  0.00000000e+00  0.00000000e+00 -6.58652144e-06  2.53520977e-06
  0.00000000e+00  0.00000000e+00  0.00000000e+00  4.79121930e-06]","[[-0.00042062  0.06242072]
 [-0.0010338  -0.02031842]]",[],0.0,0.0
1787211588.397522,1.1623181821227866,0.9580883305268896,2.0922363072406043,"[ 6.47605914e-05 -4.85643145e-06  0.00000000e+00  0.00000000e+00
  0.00000000e+00 -6.58652144e-06 -4.85643145e-06  4.55161742e-05
  0.00000000e+00  0.00000000e+00  0.00000000e+00  2.53520977e-06
  0.00000000e+00  0.00000000e+00  0.00000000e+00  0.00000000e+00
  0.00000000e+00  0.00000000e+00  0.00000000e+00  0.00000000e+00
  0.00000000e+00  0.00000000e+00  0.00000000e+00  0.00000000e+00
  0.00000000e+00  0.00000000e+00  0.00000000e+00  0.00000000e+00
  0.00000000e+00  0.00000000e+00 -6.58652144e-06  2.53520977e-06
  0.00000000e+00  0.00000000e+00  0.00000000e+00  4.79121930e-06]","[[-0.00042062  0.06242072]
 [-0.0010338  -0.02031842]]",[],0.0,0.0
1787211588.442443,1.1623181821227866,0.9580883305268896,2.0922363072406043,"[ 6.47605914e-05 -4.85643145e-06  0.00000000e+00  0.00000000e+00
  0.00000000e+00 -6.58652144e-06 -4.85643145e-06  4.55161742e-05
  0.00000000e+00  0.00000000e+00  0.00000000e+00  2.53520977e-06
  0.00000000e+00  0.00000000e+00  0.00000000e+00  0.00000000e+00
  0.00000000e+00  0.00000000e+00  0.00000000e+00  0.00000000e+00
  0.00000000e+00  0.00000000e+00  0.00000000e+00  0.00000000e+00
  0.00000000e+00  0.00000000e+00  0.00000000e+00  0.00000000e+00
  0.00000000e+00  0.00000000e+00 -6.58652144e-06  2.53520977e-06
  0.00000000e+00  0.00000000e+00  0.00000000e+00  4.79121930e-06]","[[-0.00042062  0.06242072]
 [-0.0010338  -0.02031842]]",[],0.0,0.0
1787211588.4935415,1.1623181821227866,0.9580883305268896,2.0922363072406043,"[ 6.47605914e-05 -4.85643145e-06  0.00000000e+00  0.00000000e+00
  0.00000000e+00 -6.58652144e-06 -4.85643145e-06  4.55161742e-05
  0.00000000e+00  0.00000000e+00  0.00000000e+00  2.53520977e-06
  0.00000000e+00  0.00000000e+00  0.00000000e+00  0.00000000e+00
  0.00000000e+00  0.00000000e+00  0.00000000e+00  0.00000000e+00
  0.00000000e+00  0.00000000e+00  0.00000000e+00  0.00000000e+00
  0.00000000e+00  0.00000000e+00  0.00000000e+00  0.00000000e+00
  0.00000000e+00  0.00000000e+00 -6.58652144e-06  2.53520977e-06
  0.00000000e+00  0.00000000e+00  0.00000000e+00  4.79121930e-06]","[[-0.00042062  0.06242072]
 [-0.0010338  -0.02031842]]",[],0.0,0.0
1787211588.5460014,1.1623181821227866,0.9580883305268896,2.0922363072406043,"[ 6.47605914e-05 -4.85643145e-06  0.00000000e+00  0.00000000e+00
  0.00000000e+00 -6.58652144e-06 -4.85643145e-06  4.55161742e-05
  0.00000000e+00  0.00000000e+00  0.00000000e+00  2.53520977e-06
  0.00000000e+00  0.00000000e+00  0.00000000e+00  0.00000000e+00
  0.00000000e+00  0.00000000e+00  0.00000000e+00  0.00000000e+00
  0.00000000e+00  0.00000000e+00  0.00000000e+00  0.00000000e+00
  0.00000000e+00  0.00000000e+00  0.00000000e+00  0.00000000e+00
  0.00000000e+00  0.00000000e+00 -6.58652144e-06  2.53520977e-06
  0.00000000e+00  0.00000000e+00  0.00000000e+00  4.79121930e-06]","[[-0.00042062  0.06242072]
 [-0.0010338  -0.02031842]]",[],0.0,0.0
1787211588.5906055,1.1623181821227866,0.9580883305268896,2.0922363072406043,"[ 6.47605914e-05 -4.85643145e-06  0.00000000e+00  0.00000000e+00
  0.00000000e+00 -6.58652144e-06 -4.85643145e-06  4.55161742e-05
  0.00000000e+00  0.00000000e+00  0.00000000e+00  2.53520977e-06
  0.00000000e+00  0.00000000e+00  0.00000000e+00  0.00000000e+00
  0.00000000e+00  0.00000000e+00  0.00000000e+00  0.00000000e+00
  0.00000000e+00  0.00000000e+00  0.00000000e+00  0.00000000e+00
  0.00000000e+00  0.00000000e+00  0.00000000e+00  0.00000000e+00
  0.00000000e+00  0.00000000e+00 -6.58652144e-06  2.53520977e-06
  0.00000000e+00  0.00000000e+00  0.00000000e+00  4.79121930e-06]","[[-0.00042062  0.06242072]
 [-0.0010338  -0.02031842]]",[],0.0,0.0
1787211588.6426585,1.1623181821227866,0.9580883305268896,2.0922363072406043,"[ 6.47605914e-05 -4.85643145e-06  0.00000000e+00  0.00000000e+00
  0.00000000e+00 -6.58652144e-06 -4.85643145e-06  4.55161742e-05
  0.00000000e+00  0.00000000e+00  0.00000000e+00  2.53520977e-06
  0.00000000e+00  0.00000000e+00  0.00000000e+00  0.00000000e+00
  0.00000000e+00  0.00000000e+00  0.00000000e+00  0.00000000e+00
  0.00000000e+00  0.00000000e+00  0.00000000e+00  0.00000000e+00
  0.00000000e+00  0.00000000e+00  0.00000000e+00  0.00000000e+00
  0.00000000e+00  0.00000000e+00 -6.58652144e-06  2.53520977e-06
  0.00000000e+00  0.00000000e+00  0.00000000e+00  4.79121930e-06]","[[-0.00042062  0.06242072]
 [-0.0010338  -0.02031842]]",[],0.0,0.0
1787211588.690668,1.1623181821227866,0.9580883305268896,2.0922363072406043,"[ 6.47605914e-05 -4.85643145e-06  0.00000000e+00  0.00000000e+00
  0.00000000e+00 -6.58652144e-06 -4.85643145e-06  4.55161742e-05
  0.00000000e+00  0.00000000e+00  0.00000000e+00  2.53520977e-06
  0.00000000e+00  0.00000000e+00  0.00000000e+00  0.00000000e+00
  0.00000000e+00  0.00000000e+00  0.00000000e+00  0.00000000e+00
  0.00000000e+00  0.00000000e+00  0.00000000e+00  0.00000000e+00
  0.00000000e+00  0.00000000e+00  0.00000000e+00  0.00000000e+00
  0.00000000e+00  0.00000000e+00 -6.58652144e-06  2.53520977e-06
  0.00000000e+00  0.00000000e+00  0.00000000e+00  4.79121930e-06]","[[-0.00042062  0.06242072]
 [-0.0010338  -0.02031842]]",[],0.0,0.0
1787211588.7432,1.1623181821227866,0.9580883305268896,2.0922363072406043,"[ 6.47605914e-05 -4.85643145e-06  0.00000000e+00  0.00000000e+00
  0.00000000e+00 -6.58652144e-06 -4.85643145e-06  4.55161742e-05
  0.00000000e+00  0.00000000e+00  0.00000000e+00  2.53520977e-06
  0.00000000e+00  0.00000000e+00  0.00000000e+00  0.00000000e+00
  0.00000000e+00  0.00000000e+00  0.00000000e+00  0.00000000e+00
  0.00000000e+00  0.00000000e+00  0.00000000e+00  0.00000000e+00
  0.00000000e+00  0.00000000e+00  0.00000000e+00  0.00000000e+00
  0.00000000e+00  0.00000000e+00 -6.58652144e-06  2.53520977e-06
  0.00000000e+00  0.00000000e+00  0.00000000e+00  4.79121930e-06]","[[-0.00042062  0.06242072]
 [-0.0010338  -0.02031842]]",[],0.0,0.0
1787211588.791229,1.1623181821227866,0.9580883305268896,2.0922363072406043,"[ 6.47605914e-05 -4.85643145e-06  0.00000000e+00  0.00000000e+00
  0.00000000e+00 -6.58652144e-06 -4.85643145e-06  4.55161742e-05
  0.00000000e+00  0.00000000e+00  0.00000000e+00  2.53520977e-06
  0.00000000e+00  0.00000000e+00  0.00000000e+00  0.00000000e+00
  0.00000000e+00  0.00000000e+00  0.00000000e+00  0.00000000e+00
  0.00000000e+00  0.00000000e+00  0.00000000e+00  0.00000000e+00
  0.00000000e+00  0.00000000e+00  0.00000000e+00  0.00000000e+00
  0.00000000e+00  0.00000000e+00 -6.58652144e-06  2.53520977e-06
  0.00000000e+00  0.00000000e+00  0.00000000e+00  4.79121930e-06]","[[-0.00042062  0.06242072]
 [-0.0010338  -0.02031842]]",[],0.0,0.0
1787211588.8446443,1.1623181821227866,0.9580883305268896,2.0922363072406043,"[ 6.47605914e-05 -4.85643145e-06  0.00000000e+00  0.00000000e+00
  0.00000000e+00 -6.58652144e-06 -4.85643145e-06  4.55161742e-05
  0.00000000e+00  0.00000000e+00  0.00000000e+00  2.53520977e-06
  0.00000000e+00  0.00000000e+00  0.00000000e+00  0.00000000e+00
  0.00000000e+00  0.00000000e+00  0.00000000e+00  0.00000000e+00
  0.00000000e+00  0.00000000e+00  0.00000000e+00  0.00000000e+00
  0.00000000e+00  0.00000000e+00  0.00000000e+00  0.00000000e+00
  0.00000000e+00  0.00000000e+00 -6.58652144e-06  2.53520977e-06
  0.00000000e+00  0.00000000e+00  0.00000000e+00  4.79121930e-06]","[[-0.00042062  0.06242072]
 [-0.0010338  -0.02031842]]",[],0.0,0.0
1787211588.9017808,1.1623181821227866,0.9580883305268896,2.0922363072406043,"[ 6.47605914e-05 -4.85643145e-06  0.00000000e+00  0.00000000e+00
  0.00000000e+00 -6.58652144e-06 -4.85643145e-06  4.55161742e-05
  0.00000000e+00  0.00000000e+00  0.00000000e+00  2.53520977e-06
  0.00000000e+00  0.00000000e+00  0.00000000e+00  0.00000000e+00
  0.00000000e+00  0.00000000e+00  0.00000000e+00  0.00000000e+00
  0.00000000e+00  0.00000000e+00  0.00000000e+00  0.00000000e+00
  0.00000000e+00  0.00000000e+00  0.00000000e+00  0.00000000e+00
  0.00000000e+00  0.00000000e+00 -6.58652144e-06  2.53520977e-06
  0.00000000e+00  0.00000000e+00  0.00000000e+00  4.79121930e-06]","[[-0.00042062  0.06242072]
 [-0.0010338  -0.02031842]]",[],0.0,0.0
1787211588.9416265,1.1623181821227866,0.9580883305268896,2.0922363072406043,"[ 6.47605914e-05 -4.85643145e-06  0.00000000e+00  0.00000000e+00
  0.00000000e+00 -6.58652144e-06 -4.85643145e-06  4.55161742e-05
  0.00000000e+00  0.00000000e+00  0.00000000e+00  2.53520977e-06
  0.00000000e+00  0.00000000e+00  0.00000000e+00  0.00000000e+00
  0.00000000e+00  0.00000000e+00  0.00000000e+00  0.00000000e+00
  0.00000000e+00  0.00000000e+00  0.00000000e+00  0.00000000e+00
  0.00000000e+00  0.00000000e+00  0.00000000e+00  0.00000000e+00
  0.00000000e+00  0.00000000e+00 -6.58652144e-06  2.53520977e-06
  0.00000000e+00  0.00000000e+00  0.00000000e+00  4.79121930e-06]","[[-0.00042062  0.06242072]
 [-0.0010338  -0.02031842]]",[],0.0,0.0
1787211588.9926064,1.1623181821227866,0.9580883305268896,2.0922363072406043,"[ 6.47605914e-05 -4.85643145e-06  0.00000000e+00  0.00000000e+00
  0.00000000e+00 -6.58652144e-06 -4.85643145e-06  4.55161742e-05
  0.00000000e+00  0.00000000e+00  0.00000000e+00  2.53520977e-06
  0.00000000e+00  0.00000000e+00  0.00000000e+00  0.00000000e+00
  0.00000000e+00  0.00000000e+00  0.00000000e+00  0.00000000e+00
  0.00000000e+00  0.00000000e+00  0.00000000e+00  0.00000000e+00
  0.00000000e+00  0.00000000e+00  0.00000000e+00  0.00000000e+00
  0.00000000e+00  0.00000000e+00 -6.58652144e-06  2.53520977e-06
  0.00000000e+00  0.00000000e+00  0.00000000e+00  4.79121930e-06]","[[-0.00042062  0.06242072]
 [-0.0010338  -0.02031842]]",[],0.0,0.0
1787211589.0589318,1.1623181821227866,0.9580883305268896,2.0922363072406043,"[ 6.47605914e-05 -4.85643145e-06  0.00000000e+00  0.00000000e+00
  0.00000000e+00 -6.58652144e-06 -4.85643145e-06  4.55161742e-05
  0.00000000e+00  0.00000000e+00  0.00000000e+00  2.53520977e-06
  0.00000000e+00  0.00000000e+00  0.00000000e+00  0.00000000e+00
  0.00000000e+00  0.00000000e+00  0.00000000e+00  0.00000000e+00
  0.00000000e+00  0.00000000e+00  0.00000000e+00  0.00000000e+00
  0.00000000e+00  0.00000000e+00  0.00000000e+00  0.00000000e+00
  0.00000000e+00  0.00000000e+00 -6.58652144e-06  2.53520977e-06
  0.00000000e+00  0.00000000e+00  0.00000000e+00  4.79121930e-06]","[[-0.00042062  0.06242072]
 [-0.0010338  -0.02031842]]",[],0.0,0.0
1787211589.0959227,1.1623181821227866,0.9580883305268896,2.0922363072406043,"[ 6.47605914e-05 -4.85643145e-06  0.00000000e+00  0.00000000e+00
  0.00000000e+00 -6.58652144e-06 -4.85643145e-06  4.55161742e-05
  0.00000000e+00  0.00000000e+00  0.00000000e+00  2.53520977e-06
  0.00000000e+00  0.00000000e+00  0.00000000e+00  0.00000000e+00
  0.00000000e+00  0.00000000e+00  0.00000000e+00  0.00000000e+00
  0.00000000e+00  0.00000000e+00  0.00000000e+00  0.00000000e+00
  0.00000000e+00  0.00000000e+00  0.00000000e+00  0.00000000e+00
  0.00000000e+00  0.00000000e+00 -6.58652144e-06  2.53520977e-06
  0.00000000e+00  0.00000000e+00  0.00000000e+00  4.79121930e-06]","[[-0.00042062  0.06242072]
 [-0.0010338  -0.02031842]]",[],0.0,0.0
1787211589.1486502,1.1623181821227866,0.9580883305268896,2.0922363072406043,"[ 6.47605914e-05 -4.85643145e-06  0.00000000e+00  0.00000000e+00
  0.00000000e+00 -6.58652144e-06 -4.85643145e-06  4.55161742e-05
  0.00000000e+00  0.00000000e+00  0.00000000e+00  2.53520977e-06
  0.00000000e+00  0.00000000e+00  0.00000000e+00  0.00000000e+00
  0.00000000e+00  0.00000000e+00  0.00000000e+00  0.00000000e+00
  0.00000000e+00  0.00000000e+00  0.00000000e+00  0.00000000e+00
  0.00000000e+00  0.00000000e+00  0.00000000e+00  0.00000000e+00
  0.00000000e+00  0.00000000e+00 -6.58652144e-06  2.53520977e-06
  0.00000000e+00  0.00000000e+00  0.00000000e+00  4.79121930e-06]","[[-0.00042062  0.06242072]
 [-0.0010338  -0.02031842]]",[],0.0,0.0
1787211589.190867,1.169772990603991,0.9398632144431321,2.132899056843451,"[ 3.31492048e-05 -5.92411108e-07  0.00000000e+00  0.00000000e+00
  0.00000000e+00 -3.84732445e-06 -5.92411108e-07  2.33343090e-05
  0.00000000e+00  0.00000000e+00  0.00000000e+00  4.56732399e-07
  0.00000000e+00  0.00000000e+00  0.00000000e+00  0.00000000e+00
  0.00000000e+00  0.00000000e+00  0.00000000e+00  0.00000000e+00
  0.00000000e+00  0.00000000e+00  0.00000000e+00  0.00000000e+00
  0.00000000e+00  0.00000000e+00  0.00000000e+00  0.00000000e+00
  0.00000000e+00  0.00000000e+00 -3.84732445e-06  4.56732399e-07
  0.00000000e+00  0.00000000e+00  0.00000000e+00  4.31869522e-06]","[[-0.00042062  0.06242072]
 [-0.0010338  -0.02031842]]",[],0.0,0.0
1787211589.2432346,1.169772990603991,0.9398632144431321,2.132899056843451,"[ 3.31492048e-05 -5.92411108e-07  0.00000000e+00  0.00000000e+00
  0.00000000e+00 -3.84732445e-06 -5.92411108e-07  2.33343090e-05
  0.00000000e+00  0.00000000e+00  0.00000000e+00  4.56732399e-07
  0.00000000e+00  0.00000000e+00  0.00000000e+00  0.00000000e+00
  0.00000000e+00  0.00000000e+00  0.00000000e+00  0.00000000e+00
  0.00000000e+00  0.00000000e+00  0.00000000e+00  0.00000000e+00
  0.00000000e+00  0.00000000e+00  0.00000000e+00  0.00000000e+00
  0.00000000e+00  0.00000000e+00 -3.84732445e-06  4.56732399e-07
  0.00000000e+00  0.00000000e+00  0.00000000e+00  4.31869522e-06]","[[ 0.00019737  0.03461943]
 [-0.00057224  0.00325717]]",[],0.0,0.0
1787211589.2907252,1.169772990603991,0.9398632144431321,2.132899056843451,"[ 3.31492048e-05 -5.92411108e-07  0.00000000e+00  0.00000000e+00
  0.00000000e+00 -3.84732445e-06 -5.92411108e-07  2.33343090e-05
  0.00000000e+00  0.00000000e+00  0.00000000e+00  4.56732399e-07
  0.00000000e+00  0.00000000e+00  0.00000000e+00  0.00000000e+00
  0.00000000e+00  0.00000000e+00  0.00000000e+00  0.00000000e+00
  0.00000000e+00  0.00000000e+00  0.00000000e+00  0.00000000e+00
  0.00000000e+00  0.00000000e+00  0.00000000e+00  0.00000000e+00
  0.00000000e+00  0.00000000e+00 -3.84732445e-06  4.56732399e-07
  0.00000000e+00  0.00000000e+00  0.00000000e+00  4.31869522e-06]","[[ 0.00019737  0.03461943]
 [-0.00057224  0.00325717]]",[],0.0,0.0
1787211589.3434718,1.169772990603991,0.9398632144431321,2.132899056843451,"[ 3.31492048e-05 -5.92411108e-07  0.00000000e+00  0.00000000e+00
  0.00000000e+00 -3.84732445e-06 -5.92411108e-07  2.33343090e-05
  0.00000000e+00  0.00000000e+00  0.00000000e+00  4.56732399e-07
  0.00000000e+00  0.00000000e+00  0.00000000e+00  0.00000000e+00
  0.00000000e+00  0.00000000e+00  0.00000000e+00  0.00000000e+00
  0.00000000e+00  0.00000000e+00  0.00000000e+00  0.00000000e+00
  0.00000000e+00  0.00000000e+00  0.00000000e+00  0.00000000e+00
  0.00000000e+00  0.00000000e+00 -3.84732445e-06  4.56732399e-07
  0.00000000e+00  0.00000000e+00  0.00000000e+00  4.31869522e-06]","[[ 0.00019737  0.03461943]
 [-0.00057224  0.00325717]]",[],0.0,0.0
1787211589.3915238,1.169772990603991,0.9398632144431321,2.132899056843451,"[ 3.31492048e-05 -5.92411108e-07  0.00000000e+00  0.00000000e+00
  0.00000000e+00 -3.84732445e-06 -5.92411108e-07  2.33343090e-05
  0.00000000e+00  0.00000000e+00  0.00000000e+00  4.56732399e-07
  0.00000000e+00  0.00000000e+00  0.00000000e+00  0.00000000e+00
  0.00000000e+00  0.00000000e+00  0.00000000e+00  0.00000000e+00
  0.00000000e+00  0.00000000e+00  0.00000000e+00  0.00000000e+00
  0.00000000e+00  0.00000000e+00  0.00000000e+00  0.00000000e+00
  0.00000000e+00  0.00000000e+00 -3.84732445e-06  4.56732399e-07
  0.00000000e+00  0.00000000e+00  0.00000000e+00  4.31869522e-06]","[[ 0.00019737  0.03461943]
 [-0.00057224  0.00325717]]",[],0.0,0.0
1787211589.4404695,1.169772990603991,0.9398632144431321,2.132899056843451,"[ 3.31492048e-05 -5.92411108e-07  0.00000000e+00  0.00000000e+00
  0.00000000e+00 -3.84732445e-06 -5.92411108e-07  2.33343090e-05
  0.00000000e+00  0.00000000e+00  0.00000000e+00  4.56732399e-07
  0.00000000e+00  0.00000000e+00  0.00000000e+00  0.00000000e+00
  0.00000000e+00  0.00000000e+00  0.00000000e+00  0.00000000e+00
  0.00000000e+00  0.00000000e+00  0.00000000e+00  0.00000000e+00
  0.00000000e+00  0.00000000e+00  0.00000000e+00  0.00000000e+00
  0.00000000e+00  0.00000000e+00 -3.84732445e-06  4.56732399e-07
  0.00000000e+00  0.00000000e+00  0.00000000e+00  4.31869522e-06]","[[ 0.00019737  0.03461943]
 [-0.00057224  0.00325717]]",[],0.0,0.0
1787211589.4936116,1.169772990603991,0.9398632144431321,2.132899056843451,"[ 3.31492048e-05 -5.92411108e-07  0.00000000e+00  0.00000000e+00
  0.00000000e+00 -3.84732445e-06 -5.92411108e-07  2.33343090e-05
  0.00000000e+00  0.00000000e+00  0.00000000e+00  4.56732399e-07
  0.00000000e+00  0.00000000e+00  0.00000000e+00  0.00000000e+00
  0.00000000e+00  0.00000000e+00  0.00000000e+00  0.00000000e+00
  0.00000000e+00  0.00000000e+00  0.00000000e+00  0.00000000e+00
  0.00000000e+00  0.00000000e+00  0.00000000e+00  0.00000000e+00
  0.00000000e+00  0.00000000e+00 -3.84732445e-06  4.56732399e-07
  0.00000000e+00  0.00000000e+00  0.00000000e+00  4.31869522e-06]","[[ 0.00019737  0.03461943]
 [-0.00057224  0.00325717]]",[],0.0,0.0
1787211589.5797424,1.169772990603991,0.9398632144431321,2.132899056843451,"[ 3.31492048e-05 -5.92411108e-07  0.00000000e+00  0.00000000e+00
  0.00000000e+00 -3.84732445e-06 -5.92411108e-07  2.33343090e-05
  0.00000000e+00  0.00000000e+00  0.00000000e+00  4.56732399e-07
  0.00000000e+00  0.00000000e+00  0.00000000e+00  0.00000000e+00
  0.00000000e+00  0.00000000e+00  0.00000000e+00  0.00000000e+00
  0.00000000e+00  0.00000000e+00  0.00000000e+00  0.00000000e+00
  0.00000000e+00  0.00000000e+00  0.00000000e+00  0.00000000e+00
  0.00000000e+00  0.00000000e+00 -3.84732445e-06  4.56732399e-07
  0.00000000e+00  0.00000000e+00  0.00000000e+00  4.31869522e-06]","[[ 0.00019737  0.03461943]
 [-0.00057224  0.00325717]]",[],0.0,0.0
1787211589.5986912,1.169772990603991,0.9398632144431321,2.132899056843451,"[ 3.31492048e-05 -5.92411108e-07  0.00000000e+00  0.00000000e+00
  0.00000000e+00 -3.84732445e-06 -5.92411108e-07  2.33343090e-05
  0.00000000e+00  0.00000000e+00  0.00000000e+00  4.56732399e-07
  0.00000000e+00  0.00000000e+00  0.00000000e+00  0.00000000e+00
  0.00000000e+00  0.00000000e+00  0.00000000e+00  0.00000000e+00
  0.00000000e+00  0.00000000e+00  0.00000000e+00  0.00000000e+00
  0.00000000e+00  0.00000000e+00  0.00000000e+00  0.00000000e+00
  0.00000000e+00  0.00000000e+00 -3.84732445e-06  4.56732399e-07
  0.00000000e+00  0.00000000e+00  0.00000000e+00  4.31869522e-06]","[[ 0.00019737  0.03461943]
 [-0.00057224  0.00325717]]",[],0.0,0.0
1787211589.6634543,1.169772990603991,0.9398632144431321,2.132899056843451,"[ 3.31492048e-05 -5.92411108e-07  0.00000000e+00  0.00000000e+00
  0.00000000e+00 -3.84732445e-06 -5.92411108e-07  2.33343090e-05
  0.00000000e+00  0.00000000e+00  0.00000000e+00  4.56732399e-07
  0.00000000e+00  0.00000000e+00  0.00000000e+00  0.00000000e+00
  0.00000000e+00  0.00000000e+00  0.00000000e+00  0.00000000e+00
  0.00000000e+00  0.00000000e+00  0.00000000e+00  0.00000000e+00
  0.00000000e+00  0.00000000e+00  0.00000000e+00  0.00000000e+00
  0.00000000e+00  0.00000000e+00 -3.84732445e-06  4.56732399e-07
  0.00000000e+00  0.00000000e+00  0.00000000e+00  4.31869522e-06]","[[ 0.00019737  0.03461943]
 [-0.00057224  0.00325717]]",[],0.0,0.0
1787211589.6940002,1.169772990603991,0.9398632144431321,2.132899056843451,"[ 3.31492048e-05 -5.92411108e-07  0.00000000e+00  0.00000000e+00
  0.00000000e+00 -3.84732445e-06 -5.92411108e-07  2.33343090e-05
  0.00000000e+00  0.00000000e+00  0.00000000e+00  4.56732399e-07
  0.00000000e+00  0.00000000e+00  0.00000000e+00  0.00000000e+00
  0.00000000e+00  0.00000000e+00  0.00000000e+00  0.00000000e+00
  0.00000000e+00  0.00000000e+00  0.00000000e+00  0.00000000e+00
  0.00000000e+00  0.00000000e+00  0.00000000e+00  0.00000000e+00
  0.00000000e+00  0.00000000e+00 -3.84732445e-06  4.56732399e-07
  0.00000000e+00  0.00000000e+00  0.00000000e+00  4.31869522e-06]","[[ 0.00019737  0.03461943]
 [-0.00057224  0.00325717]]",[],0.0,0.0
1787211589.7749429,1.169772990603991,0.9398632144431321,2.132899056843451,"[ 3.31492048e-05 -5.92411108e-07  0.00000000e+00  0.00000000e+00
  0.00000000e+00 -3.84732445e-06 -5.92411108e-07  2.33343090e-05
  0.00000000e+00  0.00000000e+00  0.00000000e+00  4.56732399e-07
  0.00000000e+00  0.00000000e+00  0.00000000e+00  0.00000000e+00
  0.00000000e+00  0.00000000e+00  0.00000000e+00  0.00000000e+00
  0.00000000e+00  0.00000000e+00  0.00000000e+00  0.00000000e+00
  0.00000000e+00  0.00000000e+00  0.00000000e+00  0.00000000e+00
  0.00000000e+00  0.00000000e+00 -3.84732445e-06  4.56732399e-07
  0.00000000e+00  0.00000000e+00  0.00000000e+00  4.31869522e-06]","[[ 0.00019737  0.03461943]
 [-0.00057224  0.00325717]]",[],0.0,0.0
1787211589.7995486,1.169772990603991,0.9398632144431321,2.132899056843451,"[ 3.31492048e-05 -5.92411108e-07  0.00000000e+00  0.00000000e+00
  0.00000000e+00 -3.84732445e-06 -5.92411108e-07  2.33343090e-05
  0.00000000e+00  0.00000000e+00  0.00000000e+00  4.56732399e-07
  0.00000000e+00  0.00000000e+00  0.00000000e+00  0.00000000e+00
  0.00000000e+00  0.00000000e+00  0.00000000e+00  0.00000000e+00
  0.00000000e+00  0.00000000e+00  0.00000000e+00  0.00000000e+00
  0.00000000e+00  0.00000000e+00  0.00000000e+00  0.00000000e+00
  0.00000000e+00  0.00000000e+00 -3.84732445e-06  4.56732399e-07
  0.00000000e+00  0.00000000e+00  0.00000000e+00  4.31869522e-06]","[[ 0.00019737  0.03461943]
 [-0.00057224  0.00325717]]",[],0.0,0.0
1787211589.8724203,1.169772990603991,0.9398632144431321,2.132899056843451,"[ 3.31492048e-05 -5.92411108e-07  0.00000000e+00  0.00000000e+00
  0.00000000e+00 -3.84732445e-06 -5.92411108e-07  2.33343090e-05
  0.00000000e+00  0.00000000e+00  0.00000000e+00  4.56732399e-07
  0.00000000e+00  0.00000000e+00  0.00000000e+00  0.00000000e+00
  0.00000000e+00  0.00000000e+00  0.00000000e+00  0.00000000e+00
  0.00000000e+00  0.00000000e+00  0.00000000e+00  0.00000000e+00
  0.00000000e+00  0.00000000e+00  0.00000000e+00  0.00000000e+00
  0.00000000e+00  0.00000000e+00 -3.84732445e-06  4.56732399e-07
  0.00000000e+00  0.00000000e+00  0.00000000e+00  4.31869522e-06]","[[ 0.00019737  0.03461943]
 [-0.00057224  0.00325717]]",[],0.0,0.0
1787211589.8966362,1.169772990603991,0.9398632144431321,2.132899056843451,"[ 3.31492048e-05 -5.92411108e-07  0.00000000e+00  0.00000000e+00
  0.00000000e+00 -3.84732445e-06 -5.92411108e-07  2.33343090e-05
  0.00000000e+00  0.00000000e+00  0.00000000e+00  4.56732399e-07
  0.00000000e+00  0.00000000e+00  0.00000000e+00  0.00000000e+00
  0.00000000e+00  0.00000000e+00  0.00000000e+00  0.00000000e+00
  0.00000000e+00  0.00000000e+00  0.00000000e+00  0.00000000e+00
  0.00000000e+00  0.00000000e+00  0.00000000e+00  0.00000000e+00
  0.00000000e+00  0.00000000e+00 -3.84732445e-06  4.56732399e-07
  0.00000000e+00  0.00000000e+00  0.00000000e+00  4.31869522e-06]","[[ 0.00019737  0.03461943]
 [-0.00057224  0.00325717]]",[],0.0,0.0
1787211589.9828196,1.169772990603991,0.9398632144431321,2.132899056843451,"[ 3.31492048e-05 -5.92411108e-07  0.00000000e+00  0.00000000e+00
  0.00000000e+00 -3.84732445e-06 -5.92411108e-07  2.33343090e-05
  0.00000000e+00  0.00000000e+00  0.00000000e+00  4.56732399e-07
  0.00000000e+00  0.00000000e+00  0.00000000e+00  0.00000000e+00
  0.00000000e+00  0.00000000e+00  0.00000000e+00  0.00000000e+00
  0.00000000e+00  0.00000000e+00  0.00000000e+00  0.00000000e+00
  0.00000000e+00  0.00000000e+00  0.00000000e+00  0.00000000e+00
  0.00000000e+00  0.00000000e+00 -3.84732445e-06  4.56732399e-07
  0.00000000e+00  0.00000000e+00  0.00000000e+00  4.31869522e-06]","[[ 0.00019737  0.03461943]
 [-0.00057224  0.00325717]]",[],0.0,0.0
1787211589.998531,1.169772990603991,0.9398632144431321,2.132899056843451,"[ 3.31492048e-05 -5.92411108e-07  0.00000000e+00  0.00000000e+00
  0.00000000e+00 -3.84732445e-06 -5.92411108e-07  2.33343090e-05
  0.00000000e+00  0.00000000e+00  0.00000000e+00  4.56732399e-07
  0.00000000e+00  0.00000000e+00  0.00000000e+00  0.00000000e+00
  0.00000000e+00  0.00000000e+00  0.00000000e+00  0.00000000e+00
  0.00000000e+00  0.00000000e+00  0.00000000e+00  0.00000000e+00
  0.00000000e+00  0.00000000e+00  0.00000000e+00  0.00000000e+00
  0.00000000e+00  0.00000000e+00 -3.84732445e-06  4.56732399e-07
  0.00000000e+00  0.00000000e+00  0.00000000e+00  4.31869522e-06]","[[ 0.00019737  0.03461943]
 [-0.00057224  0.00325717]]",[],0.0,0.0
1787211590.0632389,1.169772990603991,0.9398632144431321,2.132899056843451,"[ 3.31492048e-05 -5.92411108e-07  0.00000000e+00  0.00000000e+00
  0.00000000e+00 -3.84732445e-06 -5.92411108e-07  2.33343090e-05
  0.00000000e+00  0.00000000e+00  0.00000000e+00  4.56732399e-07
  0.00000000e+00  0.00000000e+00  0.00000000e+00  0.00000000e+00
  0.00000000e+00  0.00000000e+00  0.00000000e+00  0.00000000e+00
  0.00000000e+00  0.00000000e+00  0.00000000e+00  0.00000000e+00
  0.00000000e+00  0.00000000e+00  0.00000000e+00  0.00000000e+00
  0.00000000e+00  0.00000000e+00 -3.84732445e-06  4.56732399e-07
  0.00000000e+00  0.00000000e+00  0.00000000e+00  4.31869522e-06]","[[ 0.00019737  0.03461943]
 [-0.00057224  0.00325717]]",[],0.0,0.0
1787211590.093553,1.169772990603991,0.9398632144431321,2.132899056843451,"[ 3.31492048e-05 -5.92411108e-07  0.00000000e+00  0.00000000e+00
  0.00000000e+00 -3.84732445e-06 -5.92411108e-07  2.33343090e-05
  0.00000000e+00  0.00000000e+00  0.00000000e+00  4.56732399e-07
  0.00000000e+00  0.00000000e+00  0.00000000e+00  0.00000000e+00
  0.00000000e+00  0.00000000e+00  0.00000000e+00  0.00000000e+00
  0.00000000e+00  0.00000000e+00  0.00000000e+00  0.00000000e+00
  0.00000000e+00  0.00000000e+00  0.00000000e+00  0.00000000e+00
  0.00000000e+00  0.00000000e+00 -3.84732445e-06  4.56732399e-07
  0.00000000e+00  0.00000000e+00  0.00000000e+00  4.31869522e-06]","[[ 0.00019737  0.03461943]
 [-0.00057224  0.00325717]]",[],0.0,0.0
1787211590.1772022,1.169772990603991,0.9398632144431321,2.132899056843451,"[ 3.31492048e-05 -5.92411108e-07  0.00000000e+00  0.00000000e+00
  0.00000000e+00 -3.84732445e-06 -5.92411108e-07  2.33343090e-05
  0.00000000e+00  0.00000000e+00  0.00000000e+00  4.56732399e-07
  0.00000000e+00  0.00000000e+00  0.00000000e+00  0.00000000e+00
  0.00000000e+00  0.00000000e+00  0.00000000e+00  0.00000000e+00
  0.00000000e+00  0.00000000e+00  0.00000000e+00  0.00000000e+00
  0.00000000e+00  0.00000000e+00  0.00000000e+00  0.00000000e+00
  0.00000000e+00  0.00000000e+00 -3.84732445e-06  4.56732399e-07
  0.00000000e+00  0.00000000e+00  0.00000000e+00  4.31869522e-06]","[[ 0.00019737  0.03461943]
 [-0.00057224  0.00325717]]",[],0.0,0.0
1787211590.1909883,1.169772990603991,0.9398632144431321,2.132899056843451,"[ 3.31492048e-05 -5.92411108e-07  0.00000000e+00  0.00000000e+00
  0.00000000e+00 -3.84732445e-06 -5.92411108e-07  2.33343090e-05
  0.00000000e+00  0.00000000e+00  0.00000000e+00  4.56732399e-07
  0.00000000e+00  0.00000000e+00  0.00000000e+00  0.00000000e+00
  0.00000000e+00  0.00000000e+00  0.00000000e+00  0.00000000e+00
  0.00000000e+00  0.00000000e+00  0.00000000e+00  0.00000000e+00
  0.00000000e+00  0.00000000e+00  0.00000000e+00  0.00000000e+00
  0.00000000e+00  0.00000000e+00 -3.84732445e-06  4.56732399e-07
  0.00000000e+00  0.00000000e+00  0.00000000e+00  4.31869522e-06]","[[ 0.00019737  0.03461943]
 [-0.00057224  0.00325717]]",[],0.0,0.0
1787211590.2663255,1.169772990603991,0.9398632144431321,2.132899056843451,"[ 3.31492048e-05 -5.92411108e-07  0.00000000e+00  0.00000000e+00
  0.00000000e+00 -3.84732445e-06 -5.92411108e-07  2.33343090e-05
  0.00000000e+00  0.00000000e+00  0.00000000e+00  4.56732399e-07
  0.00000000e+00  0.00000000e+00  0.00000000e+00  0.00000000e+00
  0.00000000e+00  0.00000000e+00  0.00000000e+00  0.00000000e+00
  0.00000000e+00  0.00000000e+00  0.00000000e+00  0.00000000e+00
  0.00000000e+00  0.00000000e+00  0.00000000e+00  0.00000000e+00
  0.00000000e+00  0.00000000e+00 -3.84732445e-06  4.56732399e-07
  0.00000000e+00  0.00000000e+00  0.00000000e+00  4.31869522e-06]","[[ 0.00019737  0.03461943]
 [-0.00057224  0.00325717]]",[],0.0,0.0
1787211590.2983148,1.169772990603991,0.9398632144431321,2.132899056843451,"[ 3.31492048e-05 -5.92411108e-07  0.00000000e+00  0.00000000e+00
  0.00000000e+00 -3.84732445e-06 -5.92411108e-07  2.33343090e-05
  0.00000000e+00  0.00000000e+00  0.00000000e+00  4.56732399e-07
  0.00000000e+00  0.00000000e+00  0.00000000e+00  0.00000000e+00
  0.00000000e+00  0.00000000e+00  0.00000000e+00  0.00000000e+00
  0.00000000e+00  0.00000000e+00  0.00000000e+00  0.00000000e+00
  0.00000000e+00  0.00000000e+00  0.00000000e+00  0.00000000e+00
  0.00000000e+00  0.00000000e+00 -3.84732445e-06  4.56732399e-07
  0.00000000e+00  0.00000000e+00  0.00000000e+00  4.31869522e-06]","[[ 0.00019737  0.03461943]
 [-0.00057224  0.00325717]]",[],0.0,0.0
1787211590.341435,1.1837713314965115,0.9321202164351872,2.2007776142153723,"[ 2.20488212e-05 -2.49161234e-07  0.00000000e+00  0.00000000e+00
  0.00000000e+00 -2.79306585e-06 -2.49161234e-07  1.55726354e-05
  0.00000000e+00  0.00000000e+00  0.00000000e+00  3.99429870e-07
  0.00000000e+00  0.00000000e+00  0.00000000e+00  0.00000000e+00
  0.00000000e+00  0.00000000e+00  0.00000000e+00  0.00000000e+00
  0.00000000e+00  0.00000000e+00  0.00000000e+00  0.00000000e+00
  0.00000000e+00  0.00000000e+00  0.00000000e+00  0.00000000e+00
  0.00000000e+00  0.00000000e+00 -2.79306585e-06  3.99429870e-07
  0.00000000e+00  0.00000000e+00  0.00000000e+00  4.13945412e-06]","[[ 0.00012866  0.02324234]
 [-0.00038095  0.00213635]]",[],0.0,0.0
1787211590.4176092,1.1837713314965115,0.9321202164351872,2.2007776142153723,"[ 2.20488212e-05 -2.49161234e-07  0.00000000e+00  0.00000000e+00
  0.00000000e+00 -2.79306585e-06 -2.49161234e-07  1.55726354e-05
  0.00000000e+00  0.00000000e+00  0.00000000e+00  3.99429870e-07
  0.00000000e+00  0.00000000e+00  0.00000000e+00  0.00000000e+00
  0.00000000e+00  0.00000000e+00  0.00000000e+00  0.00000000e+00
  0.00000000e+00  0.00000000e+00  0.00000000e+00  0.00000000e+00
  0.00000000e+00  0.00000000e+00  0.00000000e+00  0.00000000e+00
  0.00000000e+00  0.00000000e+00 -2.79306585e-06  3.99429870e-07
  0.00000000e+00  0.00000000e+00  0.00000000e+00  4.13945412e-06]","[[ 0.00012866  0.02324234]
 [-0.00038095  0.00213635]]",[],0.0,0.0
1787211590.4995203,1.1837713314965115,0.9321202164351872,2.2007776142153723,"[ 2.20488212e-05 -2.49161234e-07  0.00000000e+00  0.00000000e+00
  0.00000000e+00 -2.79306585e-06 -2.49161234e-07  1.55726354e-05
  0.00000000e+00  0.00000000e+00  0.00000000e+00  3.99429870e-07
  0.00000000e+00  0.00000000e+00  0.00000000e+00  0.00000000e+00
  0.00000000e+00  0.00000000e+00  0.00000000e+00  0.00000000e+00
  0.00000000e+00  0.00000000e+00  0.00000000e+00  0.00000000e+00
  0.00000000e+00  0.00000000e+00  0.00000000e+00  0.00000000e+00
  0.00000000e+00  0.00000000e+00 -2.79306585e-06  3.99429870e-07
  0.00000000e+00  0.00000000e+00  0.00000000e+00  4.13945412e-06]","[[ 0.00012866  0.02324234]
 [-0.00038095  0.00213635]]",[],0.0,0.0
1787211590.5832753,1.1837713314965115,0.9321202164351872,2.2007776142153723,"[ 2.20488212e-05 -2.49161234e-07  0.00000000e+00  0.00000000e+00
  0.00000000e+00 -2.79306585e-06 -2.49161234e-07  1.55726354e-05
  0.00000000e+00  0.00000000e+00  0.00000000e+00  3.99429870e-07
  0.00000000e+00  0.00000000e+00  0.00000000e+00  0.00000000e+00
  0.00000000e+00  0.00000000e+00  0.00000000e+00  0.00000000e+00
  0.00000000e+00  0.00000000e+00  0.00000000e+00  0.00000000e+00
  0.00000000e+00  0.00000000e+00  0.00000000e+00  0.00000000e+00
  0.00000000e+00  0.00000000e+00 -2.79306585e-06  3.99429870e-07
  0.00000000e+00  0.00000000e+00  0.00000000e+00  4.13945412e-06]","[[ 0.00012866  0.02324234]
 [-0.00038095  0.00213635]]",[],0.0,0.0
1787211590.5935605,1.1837713314965115,0.9321202164351872,2.2007776142153723,"[ 2.20488212e-05 -2.49161234e-07  0.00000000e+00  0.00000000e+00
  0.00000000e+00 -2.79306585e-06 -2.49161234e-07  1.55726354e-05
  0.00000000e+00  0.00000000e+00  0.00000000e+00  3.99429870e-07
  0.00000000e+00  0.00000000e+00  0.00000000e+00  0.00000000e+00
  0.00000000e+00  0.00000000e+00  0.00000000e+00  0.00000000e+00
  0.00000000e+00  0.00000000e+00  0.00000000e+00  0.00000000e+00
  0.00000000e+00  0.00000000e+00  0.00000000e+00  0.00000000e+00
  0.00000000e+00  0.00000000e+00 -2.79306585e-06  3.99429870e-07
  0.00000000e+00  0.00000000e+00  0.00000000e+00  4.13945412e-06]","[[ 0.00012866  0.02324234]
 [-0.00038095  0.00213635]]",[],0.0,0.0
1787211590.6446245,1.1837713314965115,0.9321202164351872,2.2007776142153723,"[ 2.20488212e-05 -2.49161234e-07  0.00000000e+00  0.00000000e+00
  0.00000000e+00 -2.79306585e-06 -2.49161234e-07  1.55726354e-05
  0.00000000e+00  0.00000000e+00  0.00000000e+00  3.99429870e-07
  0.00000000e+00  0.00000000e+00  0.00000000e+00  0.00000000e+00
  0.00000000e+00  0.00000000e+00  0.00000000e+00  0.00000000e+00
  0.00000000e+00  0.00000000e+00  0.00000000e+00  0.00000000e+00
  0.00000000e+00  0.00000000e+00  0.00000000e+00  0.00000000e+00
  0.00000000e+00  0.00000000e+00 -2.79306585e-06  3.99429870e-07
  0.00000000e+00  0.00000000e+00  0.00000000e+00  4.13945412e-06]","[[ 0.00012866  0.02324234]
 [-0.00038095  0.00213635]]",[],0.0,0.0
1787211590.7159722,1.1837713314965115,0.9321202164351872,2.2007776142153723,"[ 2.20488212e-05 -2.49161234e-07  0.00000000e+00  0.00000000e+00
  0.00000000e+00 -2.79306585e-06 -2.49161234e-07  1.55726354e-05
  0.00000000e+00  0.00000000e+00  0.00000000e+00  3.99429870e-07
  0.00000000e+00  0.00000000e+00  0.00000000e+00  0.00000000e+00
  0.00000000e+00  0.00000000e+00  0.00000000e+00  0.00000000e+00
  0.00000000e+00  0.00000000e+00  0.00000000e+00  0.00000000e+00
  0.00000000e+00  0.00000000e+00  0.00000000e+00  0.00000000e+00
  0.00000000e+00  0.00000000e+00 -2.79306585e-06  3.99429870e-07
  0.00000000e+00  0.00000000e+00  0.00000000e+00  4.13945412e-06]","[[ 0.00012866  0.02324234]
 [-0.00038095  0.00213635]]",[],0.0,0.0
1787211590.7465186,1.1837713314965115,0.9321202164351872,2.2007776142153723,"[ 2.20488212e-05 -2.49161234e-07  0.00000000e+00  0.00000000e+00
  0.00000000e+00 -2.79306585e-06 -2.49161234e-07  1.55726354e-05
  0.00000000e+00  0.00000000e+00  0.00000000e+00  3.99429870e-07
  0.00000000e+00  0.00000000e+00  0.00000000e+00  0.00000000e+00
  0.00000000e+00  0.00000000e+00  0.00000000e+00  0.00000000e+00
  0.00000000e+00  0.00000000e+00  0.00000000e+00  0.00000000e+00
  0.00000000e+00  0.00000000e+00  0.00000000e+00  0.00000000e+00
  0.00000000e+00  0.00000000e+00 -2.79306585e-06  3.99429870e-07
  0.00000000e+00  0.00000000e+00  0.00000000e+00  4.13945412e-06]","[[ 0.00012866  0.02324234]
 [-0.00038095  0.00213635]]",[],0.0,0.0
1787211590.8105757,1.1837713314965115,0.9321202164351872,2.2007776142153723,"[ 2.20488212e-05 -2.49161234e-07  0.00000000e+00  0.00000000e+00
  0.00000000e+00 -2.79306585e-06 -2.49161234e-07  1.55726354e-05
  0.00000000e+00  0.00000000e+00  0.00000000e+00  3.99429870e-07
  0.00000000e+00  0.00000000e+00  0.00000000e+00  0.00000000e+00
  0.00000000e+00  0.00000000e+00  0.00000000e+00  0.00000000e+00
  0.00000000e+00  0.00000000e+00  0.00000000e+00  0.00000000e+00
  0.00000000e+00  0.00000000e+00  0.00000000e+00  0.00000000e+00
  0.00000000e+00  0.00000000e+00 -2.79306585e-06  3.99429870e-07
  0.00000000e+00  0.00000000e+00  0.00000000e+00  4.13945412e-06]","[[ 0.00012866  0.02324234]
 [-0.00038095  0.00213635]]",[],0.0,0.0
1787211590.8848526,1.1837713314965115,0.9321202164351872,2.2007776142153723,"[ 2.20488212e-05 -2.49161234e-07  0.00000000e+00  0.00000000e+00
  0.00000000e+00 -2.79306585e-06 -2.49161234e-07  1.55726354e-05
  0.00000000e+00  0.00000000e+00  0.00000000e+00  3.99429870e-07
  0.00000000e+00  0.00000000e+00  0.00000000e+00  0.00000000e+00
  0.00000000e+00  0.00000000e+00  0.00000000e+00  0.00000000e+00
  0.00000000e+00  0.00000000e+00  0.00000000e+00  0.00000000e+00
  0.00000000e+00  0.00000000e+00  0.00000000e+00  0.00000000e+00
  0.00000000e+00  0.00000000e+00 -2.79306585e-06  3.99429870e-07
  0.00000000e+00  0.00000000e+00  0.00000000e+00  4.13945412e-06]","[[ 0.00012866  0.02324234]
 [-0.00038095  0.00213635]]",[],0.0,0.0
1787211590.892429,1.1837713314965115,0.9321202164351872,2.2007776142153723,"[ 2.20488212e-05 -2.49161234e-07  0.00000000e+00  0.00000000e+00
  0.00000000e+00 -2.79306585e-06 -2.49161234e-07  1.55726354e-05
  0.00000000e+00  0.00000000e+00  0.00000000e+00  3.99429870e-07
  0.00000000e+00  0.00000000e+00  0.00000000e+00  0.00000000e+00
  0.00000000e+00  0.00000000e+00  0.00000000e+00  0.00000000e+00
  0.00000000e+00  0.00000000e+00  0.00000000e+00  0.00000000e+00
  0.00000000e+00  0.00000000e+00  0.00000000e+00  0.00000000e+00
  0.00000000e+00  0.00000000e+00 -2.79306585e-06  3.99429870e-07
  0.00000000e+00  0.00000000e+00  0.00000000e+00  4.13945412e-06]","[[ 0.00012866  0.02324234]
 [-0.00038095  0.00213635]]",[],0.0,0.0
1787211590.942256,1.1837713314965115,0.9321202164351872,2.2007776142153723,"[ 2.20488212e-05 -2.49161234e-07  0.00000000e+00  0.00000000e+00
  0.00000000e+00 -2.79306585e-06 -2.49161234e-07  1.55726354e-05
  0.00000000e+00  0.00000000e+00  0.00000000e+00  3.99429870e-07
  0.00000000e+00  0.00000000e+00  0.00000000e+00  0.00000000e+00
  0.00000000e+00  0.00000000e+00  0.00000000e+00  0.00000000e+00
  0.00000000e+00  0.00000000e+00  0.00000000e+00  0.00000000e+00
  0.00000000e+00  0.00000000e+00  0.00000000e+00  0.00000000e+00
  0.00000000e+00  0.00000000e+00 -2.79306585e-06  3.99429870e-07
  0.00000000e+00  0.00000000e+00  0.00000000e+00  4.13945412e-06]","[[ 0.00012866  0.02324234]
 [-0.00038095  0.00213635]]",[],0.0,0.0
1787211590.991387,1.1837713314965115,0.9321202164351872,2.2007776142153723,"[ 2.20488212e-05 -2.49161234e-07  0.00000000e+00  0.00000000e+00
  0.00000000e+00 -2.79306585e-06 -2.49161234e-07  1.55726354e-05
  0.00000000e+00  0.00000000e+00  0.00000000e+00  3.99429870e-07
  0.00000000e+00  0.00000000e+00  0.00000000e+00  0.00000000e+00
  0.00000000e+00  0.00000000e+00  0.00000000e+00  0.00000000e+00
  0.00000000e+00  0.00000000e+00  0.00000000e+00  0.00000000e+00
  0.00000000e+00  0.00000000e+00  0.00000000e+00  0.00000000e+00
  0.00000000e+00  0.00000000e+00 -2.79306585e-06  3.99429870e-07
  0.00000000e+00  0.00000000e+00  0.00000000e+00  4.13945412e-06]","[[ 0.00012866  0.02324234]
 [-0.00038095  0.00213635]]",[],0.0,0.0
1787211591.0425935,1.1837713314965115,0.9321202164351872,2.2007776142153723,"[ 2.20488212e-05 -2.49161234e-07  0.00000000e+00  0.00000000e+00
  0.00000000e+00 -2.79306585e-06 -2.49161234e-07  1.55726354e-05
  0.00000000e+00  0.00000000e+00  0.00000000e+00  3.99429870e-07
  0.00000000e+00  0.00000000e+00  0.00000000e+00  0.00000000e+00
  0.00000000e+00  0.00000000e+00  0.00000000e+00  0.00000000e+00
  0.00000000e+00  0.00000000e+00  0.00000000e+00  0.00000000e+00
  0.00000000e+00  0.00000000e+00  0.00000000e+00  0.00000000e+00
  0.00000000e+00  0.00000000e+00 -2.79306585e-06  3.99429870e-07
  0.00000000e+00  0.00000000e+00  0.00000000e+00  4.13945412e-06]","[[ 0.00012866  0.02324234]
 [-0.00038095  0.00213635]]",[],0.0,0.0
1787211591.0917358,1.1837713314965115,0.9321202164351872,2.2007776142153723,"[ 2.20488212e-05 -2.49161234e-07  0.00000000e+00  0.00000000e+00
  0.00000000e+00 -2.79306585e-06 -2.49161234e-07  1.55726354e-05
  0.00000000e+00  0.00000000e+00  0.00000000e+00  3.99429870e-07
  0.00000000e+00  0.00000000e+00  0.00000000e+00  0.00000000e+00
  0.00000000e+00  0.00000000e+00  0.00000000e+00  0.00000000e+00
  0.00000000e+00  0.00000000e+00  0.00000000e+00  0.00000000e+00
  0.00000000e+00  0.00000000e+00  0.00000000e+00  0.00000000e+00
  0.00000000e+00  0.00000000e+00 -2.79306585e-06  3.99429870e-07
  0.00000000e+00  0.00000000e+00  0.00000000e+00  4.13945412e-06]","[[ 0.00012866  0.02324234]
 [-0.00038095  0.00213635]]",[],0.0,0.0
1787211591.1437602,1.1837713314965115,0.9321202164351872,2.2007776142153723,"[ 2.20488212e-05 -2.49161234e-07  0.00000000e+00  0.00000000e+00
  0.00000000e+00 -2.79306585e-06 -2.49161234e-07  1.55726354e-05
  0.00000000e+00  0.00000000e+00  0.00000000e+00  3.99429870e-07
  0.00000000e+00  0.00000000e+00  0.00000000e+00  0.00000000e+00
  0.00000000e+00  0.00000000e+00  0.00000000e+00  0.00000000e+00
  0.00000000e+00  0.00000000e+00  0.00000000e+00  0.00000000e+00
  0.00000000e+00  0.00000000e+00  0.00000000e+00  0.00000000e+00
  0.00000000e+00  0.00000000e+00 -2.79306585e-06  3.99429870e-07
  0.00000000e+00  0.00000000e+00  0.00000000e+00  4.13945412e-06]","[[ 0.00012866  0.02324234]
 [-0.00038095  0.00213635]]",[],0.0,0.0
1787211591.190965,1.1837713314965115,0.9321202164351872,2.2007776142153723,"[ 2.20488212e-05 -2.49161234e-07  0.00000000e+00  0.00000000e+00
  0.00000000e+00 -2.79306585e-06 -2.49161234e-07  1.55726354e-05
  0.00000000e+00  0.00000000e+00  0.00000000e+00  3.99429870e-07
  0.00000000e+00  0.00000000e+00  0.00000000e+00  0.00000000e+00
  0.00000000e+00  0.00000000e+00  0.00000000e+00  0.00000000e+00
  0.00000000e+00  0.00000000e+00  0.00000000e+00  0.00000000e+00
  0.00000000e+00  0.00000000e+00  0.00000000e+00  0.00000000e+00
  0.00000000e+00  0.00000000e+00 -2.79306585e-06  3.99429870e-07
  0.00000000e+00  0.00000000e+00  0.00000000e+00  4.13945412e-06]","[[ 0.00012866  0.02324234]
 [-0.00038095  0.00213635]]",[],0.0,0.0
1787211591.2435863,1.1837713314965115,0.9321202164351872,2.2007776142153723,"[ 2.20488212e-05 -2.49161234e-07  0.00000000e+00  0.00000000e+00
  0.00000000e+00 -2.79306585e-06 -2.49161234e-07  1.55726354e-05
  0.00000000e+00  0.00000000e+00  0.00000000e+00  3.99429870e-07
  0.00000000e+00  0.00000000e+00  0.00000000e+00  0.00000000e+00
  0.00000000e+00  0.00000000e+00  0.00000000e+00  0.00000000e+00
  0.00000000e+00  0.00000000e+00  0.00000000e+00  0.00000000e+00
  0.00000000e+00  0.00000000e+00  0.00000000e+00  0.00000000e+00
  0.00000000e+00  0.00000000e+00 -2.79306585e-06  3.99429870e-07
  0.00000000e+00  0.00000000e+00  0.00000000e+00  4.13945412e-06]","[[ 0.00012866  0.02324234]
 [-0.00038095  0.00213635]]",[],0.0,0.0
1787211591.2925787,1.1943813758694608,0.9275704503234471,2.232236208087329,"[ 1.66177834e-05 -4.10024783e-08  0.00000000e+00  0.00000000e+00
  0.00000000e+00 -1.98528889e-06 -4.10024783e-08  1.19886168e-05
  0.00000000e+00  0.00000000e+00  0.00000000e+00  3.79753042e-07
  0.00000000e+00  0.00000000e+00  0.00000000e+00  0.00000000e+00
  0.00000000e+00  0.00000000e+00  0.00000000e+00  0.00000000e+00
  0.00000000e+00  0.00000000e+00  0.00000000e+00  0.00000000e+00
  0.00000000e+00  0.00000000e+00  0.00000000e+00  0.00000000e+00
  0.00000000e+00  0.00000000e+00 -1.98528889e-06  3.79753042e-07
  0.00000000e+00  0.00000000e+00  0.00000000e+00  4.11279670e-06]","[[ 9.59108007e-05  1.72485935e-02]
 [-2.92023058e-04  1.70300577e-03]]",[],0.0,0.0
1787211591.3519757,1.1943813758694608,0.9275704503234471,2.232236208087329,"[ 1.66177834e-05 -4.10024783e-08  0.00000000e+00  0.00000000e+00
  0.00000000e+00 -1.98528889e-06 -4.10024783e-08  1.19886168e-05
  0.00000000e+00  0.00000000e+00  0.00000000e+00  3.79753042e-07
  0.00000000e+00  0.00000000e+00  0.00000000e+00  0.00000000e+00
  0.00000000e+00  0.00000000e+00  0.00000000e+00  0.00000000e+00
  0.00000000e+00  0.00000000e+00  0.00000000e+00  0.00000000e+00
  0.00000000e+00  0.00000000e+00  0.00000000e+00  0.00000000e+00
  0.00000000e+00  0.00000000e+00 -1.98528889e-06  3.79753042e-07
  0.00000000e+00  0.00000000e+00  0.00000000e+00  4.11279670e-06]","[[ 9.59108007e-05  1.72485935e-02]
 [-2.92023058e-04  1.70300577e-03]]",[],0.0,0.0
1787211591.4132352,1.1943813758694608,0.9275704503234471,2.232236208087329,"[ 1.66177834e-05 -4.10024783e-08  0.00000000e+00  0.00000000e+00
  0.00000000e+00 -1.98528889e-06 -4.10024783e-08  1.19886168e-05
  0.00000000e+00  0.00000000e+00  0.00000000e+00  3.79753042e-07
  0.00000000e+00  0.00000000e+00  0.00000000e+00  0.00000000e+00
  0.00000000e+00  0.00000000e+00  0.00000000e+00  0.00000000e+00
  0.00000000e+00  0.00000000e+00  0.00000000e+00  0.00000000e+00
  0.00000000e+00  0.00000000e+00  0.00000000e+00  0.00000000e+00
  0.00000000e+00  0.00000000e+00 -1.98528889e-06  3.79753042e-07
  0.00000000e+00  0.00000000e+00  0.00000000e+00  4.11279670e-06]","[[ 9.59108007e-05  1.72485935e-02]
 [-2.92023058e-04  1.70300577e-03]]",[],0.0,0.0
1787211591.447242,1.1943813758694608,0.9275704503234471,2.232236208087329,"[ 1.66177834e-05 -4.10024783e-08  0.00000000e+00  0.00000000e+00
  0.00000000e+00 -1.98528889e-06 -4.10024783e-08  1.19886168e-05
  0.00000000e+00  0.00000000e+00  0.00000000e+00  3.79753042e-07
  0.00000000e+00  0.00000000e+00  0.00000000e+00  0.00000000e+00
  0.00000000e+00  0.00000000e+00  0.00000000e+00  0.00000000e+00
  0.00000000e+00  0.00000000e+00  0.00000000e+00  0.00000000e+00
  0.00000000e+00  0.00000000e+00  0.00000000e+00  0.00000000e+00
  0.00000000e+00  0.00000000e+00 -1.98528889e-06  3.79753042e-07
  0.00000000e+00  0.00000000e+00  0.00000000e+00  4.11279670e-06]","[[ 9.59108007e-05  1.72485935e-02]
 [-2.92023058e-04  1.70300577e-03]]",[],0.0,0.0
1787211591.491476,1.1943813758694608,0.9275704503234471,2.232236208087329,"[ 1.66177834e-05 -4.10024783e-08  0.00000000e+00  0.00000000e+00
  0.00000000e+00 -1.98528889e-06 -4.10024783e-08  1.19886168e-05
  0.00000000e+00  0.00000000e+00  0.00000000e+00  3.79753042e-07
  0.00000000e+00  0.00000000e+00  0.00000000e+00  0.00000000e+00
  0.00000000e+00  0.00000000e+00  0.00000000e+00  0.00000000e+00
  0.00000000e+00  0.00000000e+00  0.00000000e+00  0.00000000e+00
  0.00000000e+00  0.00000000e+00  0.00000000e+00  0.00000000e+00
  0.00000000e+00  0.00000000e+00 -1.98528889e-06  3.79753042e-07
  0.00000000e+00  0.00000000e+00  0.00000000e+00  4.11279670e-06]","[[ 9.59108007e-05  1.72485935e-02]
 [-2.92023058e-04  1.70300577e-03]]",[],0.0,0.0
1787211591.5448246,1.1943813758694608,0.9275704503234471,2.232236208087329,"[ 1.66177834e-05 -4.10024783e-08  0.00000000e+00  0.00000000e+00
  0.00000000e+00 -1.98528889e-06 -4.10024783e-08  1.19886168e-05
  0.00000000e+00  0.00000000e+00  0.00000000e+00  3.79753042e-07
  0.00000000e+00  0.00000000e+00  0.00000000e+00  0.00000000e+00
  0.00000000e+00  0.00000000e+00  0.00000000e+00  0.00000000e+00
  0.00000000e+00  0.00000000e+00  0.00000000e+00  0.00000000e+00
  0.00000000e+00  0.00000000e+00  0.00000000e+00  0.00000000e+00
  0.00000000e+00  0.00000000e+00 -1.98528889e-06  3.79753042e-07
  0.00000000e+00  0.00000000e+00  0.00000000e+00  4.11279670e-06]","[[ 9.59108007e-05  1.72485935e-02]
 [-2.92023058e-04  1.70300577e-03]]",[],0.0,0.0
1787211591.5916767,1.1943813758694608,0.9275704503234471,2.232236208087329,"[ 1.66177834e-05 -4.10024783e-08  0.00000000e+00  0.00000000e+00
  0.00000000e+00 -1.98528889e-06 -4.10024783e-08  1.19886168e-05
  0.00000000e+00  0.00000000e+00  0.00000000e+00  3.79753042e-07
  0.00000000e+00  0.00000000e+00  0.00000000e+00  0.00000000e+00
  0.00000000e+00  0.00000000e+00  0.00000000e+00  0.00000000e+00
  0.00000000e+00  0.00000000e+00  0.00000000e+00  0.00000000e+00
  0.00000000e+00  0.00000000e+00  0.00000000e+00  0.00000000e+00
  0.00000000e+00  0.00000000e+00 -1.98528889e-06  3.79753042e-07
  0.00000000e+00  0.00000000e+00  0.00000000e+00  4.11279670e-06]","[[ 9.59108007e-05  1.72485935e-02]
 [-2.92023058e-04  1.70300577e-03]]",[],0.0,0.0
1787211591.6463718,1.1943813758694608,0.9275704503234471,2.232236208087329,"[ 1.66177834e-05 -4.10024783e-08  0.00000000e+00  0.00000000e+00
  0.00000000e+00 -1.98528889e-06 -4.10024783e-08  1.19886168e-05
  0.00000000e+00  0.00000000e+00  0.00000000e+00  3.79753042e-07
  0.00000000e+00  0.00000000e+00  0.00000000e+00  0.00000000e+00
  0.00000000e+00  0.00000000e+00  0.00000000e+00  0.00000000e+00
  0.00000000e+00  0.00000000e+00  0.00000000e+00  0.00000000e+00
  0.00000000e+00  0.00000000e+00  0.00000000e+00  0.00000000e+00
  0.00000000e+00  0.00000000e+00 -1.98528889e-06  3.79753042e-07
  0.00000000e+00  0.00000000e+00  0.00000000e+00  4.11279670e-06]","[[ 9.59108007e-05  1.72485935e-02]
 [-2.92023058e-04  1.70300577e-03]]",[],0.0,0.0
1787211591.6948955,1.1943813758694608,0.9275704503234471,2.232236208087329,"[ 1.66177834e-05 -4.10024783e-08  0.00000000e+00  0.00000000e+00
  0.00000000e+00 -1.98528889e-06 -4.10024783e-08  1.19886168e-05
  0.00000000e+00  0.00000000e+00  0.00000000e+00  3.79753042e-07
  0.00000000e+00  0.00000000e+00  0.00000000e+00  0.00000000e+00
  0.00000000e+00  0.00000000e+00  0.00000000e+00  0.00000000e+00
  0.00000000e+00  0.00000000e+00  0.00000000e+00  0.00000000e+00
  0.00000000e+00  0.00000000e+00  0.00000000e+00  0.00000000e+00
  0.00000000e+00  0.00000000e+00 -1.98528889e-06  3.79753042e-07
  0.00000000e+00  0.00000000e+00  0.00000000e+00  4.11279670e-06]","[[ 9.59108007e-05  1.72485935e-02]
 [-2.92023058e-04  1.70300577e-03]]",[],0.0,0.0
1787211591.7621758,1.1943813758694608,0.9275704503234471,2.232236208087329,"[ 1.66177834e-05 -4.10024783e-08  0.00000000e+00  0.00000000e+00
  0.00000000e+00 -1.98528889e-06 -4.10024783e-08  1.19886168e-05
  0.00000000e+00  0.00000000e+00  0.00000000e+00  3.79753042e-07
  0.00000000e+00  0.00000000e+00  0.00000000e+00  0.00000000e+00
  0.00000000e+00  0.00000000e+00  0.00000000e+00  0.00000000e+00
  0.00000000e+00  0.00000000e+00  0.00000000e+00  0.00000000e+00
  0.00000000e+00  0.00000000e+00  0.00000000e+00  0.00000000e+00
  0.00000000e+00  0.00000000e+00 -1.98528889e-06  3.79753042e-07
  0.00000000e+00  0.00000000e+00  0.00000000e+00  4.11279670e-06]","[[ 9.59108007e-05  1.72485935e-02]
 [-2.92023058e-04  1.70300577e-03]]",[],0.0,0.0
1787211591.7918797,1.1943813758694608,0.9275704503234471,2.232236208087329,"[ 1.66177834e-05 -4.10024783e-08  0.00000000e+00  0.00000000e+00
  0.00000000e+00 -1.98528889e-06 -4.10024783e-08  1.19886168e-05
  0.00000000e+00  0.00000000e+00  0.00000000e+00  3.79753042e-07
  0.00000000e+00  0.00000000e+00  0.00000000e+00  0.00000000e+00
  0.00000000e+00  0.00000000e+00  0.00000000e+00  0.00000000e+00
  0.00000000e+00  0.00000000e+00  0.00000000e+00  0.00000000e+00
  0.00000000e+00  0.00000000e+00  0.00000000e+00  0.00000000e+00
  0.00000000e+00  0.00000000e+00 -1.98528889e-06  3.79753042e-07
  0.00000000e+00  0.00000000e+00  0.00000000e+00  4.11279670e-06]","[[ 9.59108007e-05  1.72485935e-02]
 [-2.92023058e-04  1.70300577e-03]]",[],0.0,0.0
1787211591.8456879,1.1943813758694608,0.9275704503234471,2.232236208087329,"[ 1.66177834e-05 -4.10024783e-08  0.00000000e+00  0.00000000e+00
  0.00000000e+00 -1.98528889e-06 -4.10024783e-08  1.19886168e-05
  0.00000000e+00  0.00000000e+00  0.00000000e+00  3.79753042e-07
  0.00000000e+00  0.00000000e+00  0.00000000e+00  0.00000000e+00
  0.00000000e+00  0.00000000e+00  0.00000000e+00  0.00000000e+00
  0.00000000e+00  0.00000000e+00  0.00000000e+00  0.00000000e+00
  0.00000000e+00  0.00000000e+00  0.00000000e+00  0.00000000e+00
  0.00000000e+00  0.00000000e+00 -1.98528889e-06  3.79753042e-07
  0.00000000e+00  0.00000000e+00  0.00000000e+00  4.11279670e-06]","[[ 9.59108007e-05  1.72485935e-02]
 [-2.92023058e-04  1.70300577e-03]]",[],0.0,0.0
1787211591.8971906,1.1943813758694608,0.9275704503234471,2.232236208087329,"[ 1.66177834e-05 -4.10024783e-08  0.00000000e+00  0.00000000e+00
  0.00000000e+00 -1.98528889e-06 -4.10024783e-08  1.19886168e-05
  0.00000000e+00  0.00000000e+00  0.00000000e+00  3.79753042e-07
  0.00000000e+00  0.00000000e+00  0.00000000e+00  0.00000000e+00
  0.00000000e+00  0.00000000e+00  0.00000000e+00  0.00000000e+00
  0.00000000e+00  0.00000000e+00  0.00000000e+00  0.00000000e+00
  0.00000000e+00  0.00000000e+00  0.00000000e+00  0.00000000e+00
  0.00000000e+00  0.00000000e+00 -1.98528889e-06  3.79753042e-07
  0.00000000e+00  0.00000000e+00  0.00000000e+00  4.11279670e-06]","[[ 9.59108007e-05  1.72485935e-02]
 [-2.92023058e-04  1.70300577e-03]]",[],0.0,0.0
1787211591.941509,1.1943813758694608,0.9275704503234471,2.232236208087329,"[ 1.66177834e-05 -4.10024783e-08  0.00000000e+00  0.00000000e+00
  0.00000000e+00 -1.98528889e-06 -4.10024783e-08  1.19886168e-05
  0.00000000e+00  0.00000000e+00  0.00000000e+00  3.79753042e-07
  0.00000000e+00  0.00000000e+00  0.00000000e+00  0.00000000e+00
  0.00000000e+00  0.00000000e+00  0.00000000e+00  0.00000000e+00
  0.00000000e+00  0.00000000e+00  0.00000000e+00  0.00000000e+00
  0.00000000e+00  0.00000000e+00  0.00000000e+00  0.00000000e+00
  0.00000000e+00  0.00000000e+00 -1.98528889e-06  3.79753042e-07
  0.00000000e+00  0.00000000e+00  0.00000000e+00  4.11279670e-06]","[[ 9.59108007e-05  1.72485935e-02]
 [-2.92023058e-04  1.70300577e-03]]",[],0.0,0.0
1787211592.0164523,1.1943813758694608,0.9275704503234471,2.232236208087329,"[ 1.66177834e-05 -4.10024783e-08  0.00000000e+00  0.00000000e+00
  0.00000000e+00 -1.98528889e-06 -4.10024783e-08  1.19886168e-05
  0.00000000e+00  0.00000000e+00  0.00000000e+00  3.79753042e-07
  0.00000000e+00  0.00000000e+00  0.00000000e+00  0.00000000e+00
  0.00000000e+00  0.00000000e+00  0.00000000e+00  0.00000000e+00
  0.00000000e+00  0.00000000e+00  0.00000000e+00  0.00000000e+00
  0.00000000e+00  0.00000000e+00  0.00000000e+00  0.00000000e+00
  0.00000000e+00  0.00000000e+00 -1.98528889e-06  3.79753042e-07
  0.00000000e+00  0.00000000e+00  0.00000000e+00  4.11279670e-06]","[[ 9.59108007e-05  1.72485935e-02]
 [-2.92023058e-04  1.70300577e-03]]",[],0.0,0.0
1787211592.0544949,1.1943813758694608,0.9275704503234471,2.232236208087329,"[ 1.66177834e-05 -4.10024783e-08  0.00000000e+00  0.00000000e+00
  0.00000000e+00 -1.98528889e-06 -4.10024783e-08  1.19886168e-05
  0.00000000e+00  0.00000000e+00  0.00000000e+00  3.79753042e-07
  0.00000000e+00  0.00000000e+00  0.00000000e+00  0.00000000e+00
  0.00000000e+00  0.00000000e+00  0.00000000e+00  0.00000000e+00
  0.00000000e+00  0.00000000e+00  0.00000000e+00  0.00000000e+00
  0.00000000e+00  0.00000000e+00  0.00000000e+00  0.00000000e+00
  0.00000000e+00  0.00000000e+00 -1.98528889e-06  3.79753042e-07
  0.00000000e+00  0.00000000e+00  0.00000000e+00  4.11279670e-06]","[[ 9.59108007e-05  1.72485935e-02]
 [-2.92023058e-04  1.70300577e-03]]",[],0.0,0.0
1787211592.0929139,1.1943813758694608,0.9275704503234471,2.232236208087329,"[ 1.66177834e-05 -4.10024783e-08  0.00000000e+00  0.00000000e+00
  0.00000000e+00 -1.98528889e-06 -4.10024783e-08  1.19886168e-05
  0.00000000e+00  0.00000000e+00  0.00000000e+00  3.79753042e-07
  0.00000000e+00  0.00000000e+00  0.00000000e+00  0.00000000e+00
  0.00000000e+00  0.00000000e+00  0.00000000e+00  0.00000000e+00
  0.00000000e+00  0.00000000e+00  0.00000000e+00  0.00000000e+00
  0.00000000e+00  0.00000000e+00  0.00000000e+00  0.00000000e+00
  0.00000000e+00  0.00000000e+00 -1.98528889e-06  3.79753042e-07
  0.00000000e+00  0.00000000e+00  0.00000000e+00  4.11279670e-06]","[[ 9.59108007e-05  1.72485935e-02]
 [-2.92023058e-04  1.70300577e-03]]",[],0.0,0.0
1787211592.1410553,1.1943813758694608,0.9275704503234471,2.232236208087329,"[ 1.66177834e-05 -4.10024783e-08  0.00000000e+00  0.00000000e+00
  0.00000000e+00 -1.98528889e-06 -4.10024783e-08  1.19886168e-05
  0.00000000e+00  0.00000000e+00  0.00000000e+00  3.79753042e-07
  0.00000000e+00  0.00000000e+00  0.00000000e+00  0.00000000e+00
  0.00000000e+00  0.00000000e+00  0.00000000e+00  0.00000000e+00
  0.00000000e+00  0.00000000e+00  0.00000000e+00  0.00000000e+00
  0.00000000e+00  0.00000000e+00  0.00000000e+00  0.00000000e+00
  0.00000000e+00  0.00000000e+00 -1.98528889e-06  3.79753042e-07
  0.00000000e+00  0.00000000e+00  0.00000000e+00  4.11279670e-06]","[[ 9.59108007e-05  1.72485935e-02]
 [-2.92023058e-04  1.70300577e-03]]",[],0.0,0.0
1787211592.1914494,1.1943813758694608,0.9275704503234471,2.232236208087329,"[ 1.66177834e-05 -4.10024783e-08  0.00000000e+00  0.00000000e+00
  0.00000000e+00 -1.98528889e-06 -4.10024783e-08  1.19886168e-05
  0.00000000e+00  0.00000000e+00  0.00000000e+00  3.79753042e-07
  0.00000000e+00  0.00000000e+00  0.00000000e+00  0.00000000e+00
  0.00000000e+00  0.00000000e+00  0.00000000e+00  0.00000000e+00
  0.00000000e+00  0.00000000e+00  0.00000000e+00  0.00000000e+00
  0.00000000e+00  0.00000000e+00  0.00000000e+00  0.00000000e+00
  0.00000000e+00  0.00000000e+00 -1.98528889e-06  3.79753042e-07
  0.00000000e+00  0.00000000e+00  0.00000000e+00  4.11279670e-06]","[[ 9.59108007e-05  1.72485935e-02]
 [-2.92023058e-04  1.70300577e-03]]",[],0.0,0.0
1787211592.245081,1.1943813758694608,0.9275704503234471,2.232236208087329,"[ 1.66177834e-05 -4.10024783e-08  0.00000000e+00  0.00000000e+00
  0.00000000e+00 -1.98528889e-06 -4.10024783e-08  1.19886168e-05
  0.00000000e+00  0.00000000e+00  0.00000000e+00  3.79753042e-07
  0.00000000e+00  0.00000000e+00  0.00000000e+00  0.00000000e+00
  0.00000000e+00  0.00000000e+00  0.00000000e+00  0.00000000e+00
  0.00000000e+00  0.00000000e+00  0.00000000e+00  0.00000000e+00
  0.00000000e+00  0.00000000e+00  0.00000000e+00  0.00000000e+00
  0.00000000e+00  0.00000000e+00 -1.98528889e-06  3.79753042e-07
  0.00000000e+00  0.00000000e+00  0.00000000e+00  4.11279670e-06]","[[ 9.59108007e-05  1.72485935e-02]
 [-2.92023058e-04  1.70300577e-03]]",[],0.0,0.0
1787211592.2934647,1.2030998739409713,0.9201989832636772,2.2773880186286615,"[ 1.31990722e-05 -6.31323235e-08  0.00000000e+00  0.00000000e+00
  0.00000000e+00 -1.60740156e-06 -6.31323235e-08  9.70641864e-06
  0.00000000e+00  0.00000000e+00  0.00000000e+00  2.87955637e-07
  0.00000000e+00  0.00000000e+00  0.00000000e+00  0.00000000e+00
  0.00000000e+00  0.00000000e+00  0.00000000e+00  0.00000000e+00
  0.00000000e+00  0.00000000e+00  0.00000000e+00  0.00000000e+00
  0.00000000e+00  0.00000000e+00  0.00000000e+00  0.00000000e+00
  0.00000000e+00  0.00000000e+00 -1.60740156e-06  2.87955637e-07
  0.00000000e+00  0.00000000e+00  0.00000000e+00  3.86244952e-06]","[[ 7.84735733e-05  1.36919965e-02]
 [-2.36340114e-04  1.41859351e-03]]",[],0.0,0.0
1787211592.3405921,1.2030998739409713,0.9201989832636772,2.2773880186286615,"[ 1.31990722e-05 -6.31323235e-08  0.00000000e+00  0.00000000e+00
  0.00000000e+00 -1.60740156e-06 -6.31323235e-08  9.70641864e-06
  0.00000000e+00  0.00000000e+00  0.00000000e+00  2.87955637e-07
  0.00000000e+00  0.00000000e+00  0.00000000e+00  0.00000000e+00
  0.00000000e+00  0.00000000e+00  0.00000000e+00  0.00000000e+00
  0.00000000e+00  0.00000000e+00  0.00000000e+00  0.00000000e+00
  0.00000000e+00  0.00000000e+00  0.00000000e+00  0.00000000e+00
  0.00000000e+00  0.00000000e+00 -1.60740156e-06  2.87955637e-07
  0.00000000e+00  0.00000000e+00  0.00000000e+00  3.86244952e-06]","[[ 7.84735733e-05  1.36919965e-02]
 [-2.36340114e-04  1.41859351e-03]]",[],0.0,0.0
1787211592.3934443,1.2030998739409713,0.9201989832636772,2.2773880186286615,"[ 1.31990722e-05 -6.31323235e-08  0.00000000e+00  0.00000000e+00
  0.00000000e+00 -1.60740156e-06 -6.31323235e-08  9.70641864e-06
  0.00000000e+00  0.00000000e+00  0.00000000e+00  2.87955637e-07
  0.00000000e+00  0.00000000e+00  0.00000000e+00  0.00000000e+00
  0.00000000e+00  0.00000000e+00  0.00000000e+00  0.00000000e+00
  0.00000000e+00  0.00000000e+00  0.00000000e+00  0.00000000e+00
  0.00000000e+00  0.00000000e+00  0.00000000e+00  0.00000000e+00
  0.00000000e+00  0.00000000e+00 -1.60740156e-06  2.87955637e-07
  0.00000000e+00  0.00000000e+00  0.00000000e+00  3.86244952e-06]","[[ 7.84735733e-05  1.36919965e-02]
 [-2.36340114e-04  1.41859351e-03]]",[],0.0,0.0
1787211592.443782,1.2030998739409713,0.9201989832636772,2.2773880186286615,"[ 1.31990722e-05 -6.31323235e-08  0.00000000e+00  0.00000000e+00
  0.00000000e+00 -1.60740156e-06 -6.31323235e-08  9.70641864e-06
  0.00000000e+00  0.00000000e+00  0.00000000e+00  2.87955637e-07
  0.00000000e+00  0.00000000e+00  0.00000000e+00  0.00000000e+00
  0.00000000e+00  0.00000000e+00  0.00000000e+00  0.00000000e+00
  0.00000000e+00  0.00000000e+00  0.00000000e+00  0.00000000e+00
  0.00000000e+00  0.00000000e+00  0.00000000e+00  0.00000000e+00
  0.00000000e+00  0.00000000e+00 -1.60740156e-06  2.87955637e-07
  0.00000000e+00  0.00000000e+00  0.00000000e+00  3.86244952e-06]","[[ 7.84735733e-05  1.36919965e-02]
 [-2.36340114e-04  1.41859351e-03]]",[],0.0,0.0
1787211592.4967241,1.2030998739409713,0.9201989832636772,2.2773880186286615,"[ 1.31990722e-05 -6.31323235e-08  0.00000000e+00  0.00000000e+00
  0.00000000e+00 -1.60740156e-06 -6.31323235e-08  9.70641864e-06
  0.00000000e+00  0.00000000e+00  0.00000000e+00  2.87955637e-07
  0.00000000e+00  0.00000000e+00  0.00000000e+00  0.00000000e+00
  0.00000000e+00  0.00000000e+00  0.00000000e+00  0.00000000e+00
  0.00000000e+00  0.00000000e+00  0.00000000e+00  0.00000000e+00
  0.00000000e+00  0.00000000e+00  0.00000000e+00  0.00000000e+00
  0.00000000e+00  0.00000000e+00 -1.60740156e-06  2.87955637e-07
  0.00000000e+00  0.00000000e+00  0.00000000e+00  3.86244952e-06]","[[ 7.84735733e-05  1.36919965e-02]
 [-2.36340114e-04  1.41859351e-03]]",[],0.0,0.0
1787211592.54353,1.2030998739409713,0.9201989832636772,2.2773880186286615,"[ 1.31990722e-05 -6.31323235e-08  0.00000000e+00  0.00000000e+00
  0.00000000e+00 -1.60740156e-06 -6.31323235e-08  9.70641864e-06
  0.00000000e+00  0.00000000e+00  0.00000000e+00  2.87955637e-07
  0.00000000e+00  0.00000000e+00  0.00000000e+00  0.00000000e+00
  0.00000000e+00  0.00000000e+00  0.00000000e+00  0.00000000e+00
  0.00000000e+00  0.00000000e+00  0.00000000e+00  0.00000000e+00
  0.00000000e+00  0.00000000e+00  0.00000000e+00  0.00000000e+00
  0.00000000e+00  0.00000000e+00 -1.60740156e-06  2.87955637e-07
  0.00000000e+00  0.00000000e+00  0.00000000e+00  3.86244952e-06]","[[ 7.84735733e-05  1.36919965e-02]
 [-2.36340114e-04  1.41859351e-03]]",[],0.0,0.0
1787211592.6010938,1.2030998739409713,0.9201989832636772,2.2773880186286615,"[ 1.31990722e-05 -6.31323235e-08  0.00000000e+00  0.00000000e+00
  0.00000000e+00 -1.60740156e-06 -6.31323235e-08  9.70641864e-06
  0.00000000e+00  0.00000000e+00  0.00000000e+00  2.87955637e-07
  0.00000000e+00  0.00000000e+00  0.00000000e+00  0.00000000e+00
  0.00000000e+00  0.00000000e+00  0.00000000e+00  0.00000000e+00
  0.00000000e+00  0.00000000e+00  0.00000000e+00  0.00000000e+00
  0.00000000e+00  0.00000000e+00  0.00000000e+00  0.00000000e+00
  0.00000000e+00  0.00000000e+00 -1.60740156e-06  2.87955637e-07
  0.00000000e+00  0.00000000e+00  0.00000000e+00  3.86244952e-06]","[[ 7.84735733e-05  1.36919965e-02]
 [-2.36340114e-04  1.41859351e-03]]",[],0.0,0.0
1787211592.6448476,1.2030998739409713,0.9201989832636772,2.2773880186286615,"[ 1.31990722e-05 -6.31323235e-08  0.00000000e+00  0.00000000e+00
  0.00000000e+00 -1.60740156e-06 -6.31323235e-08  9.70641864e-06
  0.00000000e+00  0.00000000e+00  0.00000000e+00  2.87955637e-07
  0.00000000e+00  0.00000000e+00  0.00000000e+00  0.00000000e+00
  0.00000000e+00  0.00000000e+00  0.00000000e+00  0.00000000e+00
  0.00000000e+00  0.00000000e+00  0.00000000e+00  0.00000000e+00
  0.00000000e+00  0.00000000e+00  0.00000000e+00  0.00000000e+00
  0.00000000e+00  0.00000000e+00 -1.60740156e-06  2.87955637e-07
  0.00000000e+00  0.00000000e+00  0.00000000e+00  3.86244952e-06]","[[ 7.84735733e-05  1.36919965e-02]
 [-2.36340114e-04  1.41859351e-03]]",[],0.0,0.0
1787211592.6904943,1.2030998739409713,0.9201989832636772,2.2773880186286615,"[ 1.31990722e-05 -6.31323235e-08  0.00000000e+00  0.00000000e+00
  0.00000000e+00 -1.60740156e-06 -6.31323235e-08  9.70641864e-06
  0.00000000e+00  0.00000000e+00  0.00000000e+00  2.87955637e-07
  0.00000000e+00  0.00000000e+00  0.00000000e+00  0.00000000e+00
  0.00000000e+00  0.00000000e+00  0.00000000e+00  0.00000000e+00
  0.00000000e+00  0.00000000e+00  0.00000000e+00  0.00000000e+00
  0.00000000e+00  0.00000000e+00  0.00000000e+00  0.00000000e+00
  0.00000000e+00  0.00000000e+00 -1.60740156e-06  2.87955637e-07
  0.00000000e+00  0.00000000e+00  0.00000000e+00  3.86244952e-06]","[[ 7.84735733e-05  1.36919965e-02]
 [-2.36340114e-04  1.41859351e-03]]",[],0.0,0.0
1787211592.7436397,1.2030998739409713,0.9201989832636772,2.2773880186286615,"[ 1.31990722e-05 -6.31323235e-08  0.00000000e+00  0.00000000e+00
  0.00000000e+00 -1.60740156e-06 -6.31323235e-08  9.70641864e-06
  0.00000000e+00  0.00000000e+00  0.00000000e+00  2.87955637e-07
  0.00000000e+00  0.00000000e+00  0.00000000e+00  0.00000000e+00
  0.00000000e+00  0.00000000e+00  0.00000000e+00  0.00000000e+00
  0.00000000e+00  0.00000000e+00  0.00000000e+00  0.00000000e+00
  0.00000000e+00  0.00000000e+00  0.00000000e+00  0.00000000e+00
  0.00000000e+00  0.00000000e+00 -1.60740156e-06  2.87955637e-07
  0.00000000e+00  0.00000000e+00  0.00000000e+00  3.86244952e-06]","[[ 7.84735733e-05  1.36919965e-02]
 [-2.36340114e-04  1.41859351e-03]]",[],0.0,0.0
1787211592.793959,1.2030998739409713,0.9201989832636772,2.2773880186286615,"[ 1.31990722e-05 -6.31323235e-08  0.00000000e+00  0.00000000e+00
  0.00000000e+00 -1.60740156e-06 -6.31323235e-08  9.70641864e-06
  0.00000000e+00  0.00000000e+00  0.00000000e+00  2.87955637e-07
  0.00000000e+00  0.00000000e+00  0.00000000e+00  0.00000000e+00
  0.00000000e+00  0.00000000e+00  0.00000000e+00  0.00000000e+00
  0.00000000e+00  0.00000000e+00  0.00000000e+00  0.00000000e+00
  0.00000000e+00  0.00000000e+00  0.00000000e+00  0.00000000e+00
  0.00000000e+00  0.00000000e+00 -1.60740156e-06  2.87955637e-07
  0.00000000e+00  0.00000000e+00  0.00000000e+00  3.86244952e-06]","[[ 7.84735733e-05  1.36919965e-02]
 [-2.36340114e-04  1.41859351e-03]]",[],0.0,0.0
1787211592.8408318,1.2030998739409713,0.9201989832636772,2.2773880186286615,"[ 1.31990722e-05 -6.31323235e-08  0.00000000e+00  0.00000000e+00
  0.00000000e+00 -1.60740156e-06 -6.31323235e-08  9.70641864e-06
  0.00000000e+00  0.00000000e+00  0.00000000e+00  2.87955637e-07
  0.00000000e+00  0.00000000e+00  0.00000000e+00  0.00000000e+00
  0.00000000e+00  0.00000000e+00  0.00000000e+00  0.00000000e+00
  0.00000000e+00  0.00000000e+00  0.00000000e+00  0.00000000e+00
  0.00000000e+00  0.00000000e+00  0.00000000e+00  0.00000000e+00
  0.00000000e+00  0.00000000e+00 -1.60740156e-06  2.87955637e-07
  0.00000000e+00  0.00000000e+00  0.00000000e+00  3.86244952e-06]","[[ 7.84735733e-05  1.36919965e-02]
 [-2.36340114e-04  1.41859351e-03]]",[],0.0,0.0
1787211592.8926373,1.2030998739409713,0.9201989832636772,2.2773880186286615,"[ 1.31990722e-05 -6.31323235e-08  0.00000000e+00  0.00000000e+00
  0.00000000e+00 -1.60740156e-06 -6.31323235e-08  9.70641864e-06
  0.00000000e+00  0.00000000e+00  0.00000000e+00  2.87955637e-07
  0.00000000e+00  0.00000000e+00  0.00000000e+00  0.00000000e+00
  0.00000000e+00  0.00000000e+00  0.00000000e+00  0.00000000e+00
  0.00000000e+00  0.00000000e+00  0.00000000e+00  0.00000000e+00
  0.00000000e+00  0.00000000e+00  0.00000000e+00  0.00000000e+00
  0.00000000e+00  0.00000000e+00 -1.60740156e-06  2.87955637e-07
  0.00000000e+00  0.00000000e+00  0.00000000e+00  3.86244952e-06]","[[ 7.84735733e-05  1.36919965e-02]
 [-2.36340114e-04  1.41859351e-03]]",[],0.0,0.0
1787211592.9422317,1.2030998739409713,0.9201989832636772,2.2773880186286615,"[ 1.31990722e-05 -6.31323235e-08  0.00000000e+00  0.00000000e+00
  0.00000000e+00 -1.60740156e-06 -6.31323235e-08  9.70641864e-06
  0.00000000e+00  0.00000000e+00  0.00000000e+00  2.87955637e-07
  0.00000000e+00  0.00000000e+00  0.00000000e+00  0.00000000e+00
  0.00000000e+00  0.00000000e+00  0.00000000e+00  0.00000000e+00
  0.00000000e+00  0.00000000e+00  0.00000000e+00  0.00000000e+00
  0.00000000e+00  0.00000000e+00  0.00000000e+00  0.00000000e+00
  0.00000000e+00  0.00000000e+00 -1.60740156e-06  2.87955637e-07
  0.00000000e+00  0.00000000e+00  0.00000000e+00  3.86244952e-06]","[[ 7.84735733e-05  1.36919965e-02]
 [-2.36340114e-04  1.41859351e-03]]",[],0.0,0.0
1787211592.9958878,1.2030998739409713,0.9201989832636772,2.2773880186286615,"[ 1.31990722e-05 -6.31323235e-08  0.00000000e+00  0.00000000e+00
  0.00000000e+00 -1.60740156e-06 -6.31323235e-08  9.70641864e-06
  0.00000000e+00  0.00000000e+00  0.00000000e+00  2.87955637e-07
  0.00000000e+00  0.00000000e+00  0.00000000e+00  0.00000000e+00
  0.00000000e+00  0.00000000e+00  0.00000000e+00  0.00000000e+00
  0.00000000e+00  0.00000000e+00  0.00000000e+00  0.00000000e+00
  0.00000000e+00  0.00000000e+00  0.00000000e+00  0.00000000e+00
  0.00000000e+00  0.00000000e+00 -1.60740156e-06  2.87955637e-07
  0.00000000e+00  0.00000000e+00  0.00000000e+00  3.86244952e-06]","[[ 7.84735733e-05  1.36919965e-02]
 [-2.36340114e-04  1.41859351e-03]]",[],0.0,0.0
1787211593.0426352,1.2030998739409713,0.9201989832636772,2.2773880186286615,"[ 1.31990722e-05 -6.31323235e-08  0.00000000e+00  0.00000000e+00
  0.00000000e+00 -1.60740156e-06 -6.31323235e-08  9.70641864e-06
  0.00000000e+00  0.00000000e+00  0.00000000e+00  2.87955637e-07
  0.00000000e+00  0.00000000e+00  0.00000000e+00  0.00000000e+00
  0.00000000e+00  0.00000000e+00  0.00000000e+00  0.00000000e+00
  0.00000000e+00  0.00000000e+00  0.00000000e+00  0.00000000e+00
  0.00000000e+00  0.00000000e+00  0.00000000e+00  0.00000000e+00
  0.00000000e+00  0.00000000e+00 -1.60740156e-06  2.87955637e-07
  0.00000000e+00  0.00000000e+00  0.00000000e+00  3.86244952e-06]","[[ 7.84735733e-05  1.36919965e-02]
 [-2.36340114e-04  1.41859351e-03]]",[],0.0,0.0
1787211593.0905132,1.2030998739409713,0.9201989832636772,2.2773880186286615,"[ 1.31990722e-05 -6.31323235e-08  0.00000000e+00  0.00000000e+00
  0.00000000e+00 -1.60740156e-06 -6.31323235e-08  9.70641864e-06
  0.00000000e+00  0.00000000e+00  0.00000000e+00  2.87955637e-07
  0.00000000e+00  0.00000000e+00  0.00000000e+00  0.00000000e+00
  0.00000000e+00  0.00000000e+00  0.00000000e+00  0.00000000e+00
  0.00000000e+00  0.00000000e+00  0.00000000e+00  0.00000000e+00
  0.00000000e+00  0.00000000e+00  0.00000000e+00  0.00000000e+00
  0.00000000e+00  0.00000000e+00 -1.60740156e-06  2.87955637e-07
  0.00000000e+00  0.00000000e+00  0.00000000e+00  3.86244952e-06]","[[ 7.84735733e-05  1.36919965e-02]
 [-2.36340114e-04  1.41859351e-03]]",[],0.0,0.0
1787211593.170655,1.2030998739409713,0.9201989832636772,2.2773880186286615,"[ 1.31990722e-05 -6.31323235e-08  0.00000000e+00  0.00000000e+00
  0.00000000e+00 -1.60740156e-06 -6.31323235e-08  9.70641864e-06
  0.00000000e+00  0.00000000e+00  0.00000000e+00  2.87955637e-07
  0.00000000e+00  0.00000000e+00  0.00000000e+00  0.00000000e+00
  0.00000000e+00  0.00000000e+00  0.00000000e+00  0.00000000e+00
  0.00000000e+00  0.00000000e+00  0.00000000e+00  0.00000000e+00
  0.00000000e+00  0.00000000e+00  0.00000000e+00  0.00000000e+00
  0.00000000e+00  0.00000000e+00 -1.60740156e-06  2.87955637e-07
  0.00000000e+00  0.00000000e+00  0.00000000e+00  3.86244952e-06]","[[ 7.84735733e-05  1.36919965e-02]
 [-2.36340114e-04  1.41859351e-03]]",[],0.0,0.0
1787211593.1933699,1.2030998739409713,0.9201989832636772,2.2773880186286615,"[ 1.31990722e-05 -6.31323235e-08  0.00000000e+00  0.00000000e+00
  0.00000000e+00 -1.60740156e-06 -6.31323235e-08  9.70641864e-06
  0.00000000e+00  0.00000000e+00  0.00000000e+00  2.87955637e-07
  0.00000000e+00  0.00000000e+00  0.00000000e+00  0.00000000e+00
  0.00000000e+00  0.00000000e+00  0.00000000e+00  0.00000000e+00
  0.00000000e+00  0.00000000e+00  0.00000000e+00  0.00000000e+00
  0.00000000e+00  0.00000000e+00  0.00000000e+00  0.00000000e+00
  0.00000000e+00  0.00000000e+00 -1.60740156e-06  2.87955637e-07
  0.00000000e+00  0.00000000e+00  0.00000000e+00  3.86244952e-06]","[[ 7.84735733e-05  1.36919965e-02]
 [-2.36340114e-04  1.41859351e-03]]",[],0.0,0.0
1787211593.252522,1.2104126961752006,0.9181052285915468,2.3037069198461335,"[ 1.11482648e-05  9.34220373e-10  0.00000000e+00  0.00000000e+00
  0.00000000e+00 -1.30845574e-06  9.34220373e-10  8.17480023e-06
  0.00000000e+00  0.00000000e+00  0.00000000e+00  9.98717655e-08
  0.00000000e+00  0.00000000e+00  0.00000000e+00  0.00000000e+00
  0.00000000e+00  0.00000000e+00  0.00000000e+00  0.00000000e+00
  0.00000000e+00  0.00000000e+00  0.00000000e+00  0.00000000e+00
  0.00000000e+00  0.00000000e+00  0.00000000e+00  0.00000000e+00
  0.00000000e+00  0.00000000e+00 -1.30845574e-06  9.98717655e-08
  0.00000000e+00  0.00000000e+00  0.00000000e+00  3.91020318e-06]","[[ 6.59099704e-05  1.14417610e-02]
 [-1.98563497e-04  1.49195323e-03]]",[],0.0,0.0
1787211593.3298976,1.2104126961752006,0.9181052285915468,2.3037069198461335,"[ 1.11482648e-05  9.34220373e-10  0.00000000e+00  0.00000000e+00
  0.00000000e+00 -1.30845574e-06  9.34220373e-10  8.17480023e-06
  0.00000000e+00  0.00000000e+00  0.00000000e+00  9.98717655e-08
  0.00000000e+00  0.00000000e+00  0.00000000e+00  0.00000000e+00
  0.00000000e+00  0.00000000e+00  0.00000000e+00  0.00000000e+00
  0.00000000e+00  0.00000000e+00  0.00000000e+00  0.00000000e+00
  0.00000000e+00  0.00000000e+00  0.00000000e+00  0.00000000e+00
  0.00000000e+00  0.00000000e+00 -1.30845574e-06  9.98717655e-08
  0.00000000e+00  0.00000000e+00  0.00000000e+00  3.91020318e-06]","[[ 6.59099704e-05  1.14417610e-02]
 [-1.98563497e-04  1.49195323e-03]]",[],0.0,0.0
1787211593.3414423,1.2104126961752006,0.9181052285915468,2.3037069198461335,"[ 1.11482648e-05  9.34220373e-10  0.00000000e+00  0.00000000e+00
  0.00000000e+00 -1.30845574e-06  9.34220373e-10  8.17480023e-06
  0.00000000e+00  0.00000000e+00  0.00000000e+00  9.98717655e-08
  0.00000000e+00  0.00000000e+00  0.00000000e+00  0.00000000e+00
  0.00000000e+00  0.00000000e+00  0.00000000e+00  0.00000000e+00
  0.00000000e+00  0.00000000e+00  0.00000000e+00  0.00000000e+00
  0.00000000e+00  0.00000000e+00  0.00000000e+00  0.00000000e+00
  0.00000000e+00  0.00000000e+00 -1.30845574e-06  9.98717655e-08
  0.00000000e+00  0.00000000e+00  0.00000000e+00  3.91020318e-06]","[[ 6.59099704e-05  1.14417610e-02]
 [-1.98563497e-04  1.49195323e-03]]",[],0.0,0.0
1787211593.3970096,1.2104126961752006,0.9181052285915468,2.3037069198461335,"[ 1.11482648e-05  9.34220373e-10  0.00000000e+00  0.00000000e+00
  0.00000000e+00 -1.30845574e-06  9.34220373e-10  8.17480023e-06
  0.00000000e+00  0.00000000e+00  0.00000000e+00  9.98717655e-08
  0.00000000e+00  0.00000000e+00  0.00000000e+00  0.00000000e+00
  0.00000000e+00  0.00000000e+00  0.00000000e+00  0.00000000e+00
  0.00000000e+00  0.00000000e+00  0.00000000e+00  0.00000000e+00
  0.00000000e+00  0.00000000e+00  0.00000000e+00  0.00000000e+00
  0.00000000e+00  0.00000000e+00 -1.30845574e-06  9.98717655e-08
  0.00000000e+00  0.00000000e+00  0.00000000e+00  3.91020318e-06]","[[ 6.59099704e-05  1.14417610e-02]
 [-1.98563497e-04  1.49195323e-03]]",[],0.0,0.0
1787211593.440881,1.2104126961752006,0.9181052285915468,2.3037069198461335,"[ 1.11482648e-05  9.34220373e-10  0.00000000e+00  0.00000000e+00
  0.00000000e+00 -1.30845574e-06  9.34220373e-10  8.17480023e-06
  0.00000000e+00  0.00000000e+00  0.00000000e+00  9.98717655e-08
  0.00000000e+00  0.00000000e+00  0.00000000e+00  0.00000000e+00
  0.00000000e+00  0.00000000e+00  0.00000000e+00  0.00000000e+00
  0.00000000e+00  0.00000000e+00  0.00000000e+00  0.00000000e+00
  0.00000000e+00  0.00000000e+00  0.00000000e+00  0.00000000e+00
  0.00000000e+00  0.00000000e+00 -1.30845574e-06  9.98717655e-08
  0.00000000e+00  0.00000000e+00  0.00000000e+00  3.91020318e-06]","[[ 6.59099704e-05  1.14417610e-02]
 [-1.98563497e-04  1.49195323e-03]]",[],0.0,0.0
1787211593.5474434,1.2104126961752006,0.9181052285915468,2.3037069198461335,"[ 1.11482648e-05  9.34220373e-10  0.00000000e+00  0.00000000e+00
  0.00000000e+00 -1.30845574e-06  9.34220373e-10  8.17480023e-06
  0.00000000e+00  0.00000000e+00  0.00000000e+00  9.98717655e-08
  0.00000000e+00  0.00000000e+00  0.00000000e+00  0.00000000e+00
  0.00000000e+00  0.00000000e+00  0.00000000e+00  0.00000000e+00
  0.00000000e+00  0.00000000e+00  0.00000000e+00  0.00000000e+00
  0.00000000e+00  0.00000000e+00  0.00000000e+00  0.00000000e+00
  0.00000000e+00  0.00000000e+00 -1.30845574e-06  9.98717655e-08
  0.00000000e+00  0.00000000e+00  0.00000000e+00  3.91020318e-06]","[[ 6.59099704e-05  1.14417610e-02]
 [-1.98563497e-04  1.49195323e-03]]",[],0.0,0.0
1787211593.593509,1.2104126961752006,0.9181052285915468,2.3037069198461335,"[ 1.11482648e-05  9.34220373e-10  0.00000000e+00  0.00000000e+00
  0.00000000e+00 -1.30845574e-06  9.34220373e-10  8.17480023e-06
  0.00000000e+00  0.00000000e+00  0.00000000e+00  9.98717655e-08
  0.00000000e+00  0.00000000e+00  0.00000000e+00  0.00000000e+00
  0.00000000e+00  0.00000000e+00  0.00000000e+00  0.00000000e+00
  0.00000000e+00  0.00000000e+00  0.00000000e+00  0.00000000e+00
  0.00000000e+00  0.00000000e+00  0.00000000e+00  0.00000000e+00
  0.00000000e+00  0.00000000e+00 -1.30845574e-06  9.98717655e-08
  0.00000000e+00  0.00000000e+00  0.00000000e+00  3.91020318e-06]","[[ 6.59099704e-05  1.14417610e-02]
 [-1.98563497e-04  1.49195323e-03]]",[],0.0,0.0
1787211593.679099,1.2104126961752006,0.9181052285915468,2.3037069198461335,"[ 1.11482648e-05  9.34220373e-10  0.00000000e+00  0.00000000e+00
  0.00000000e+00 -1.30845574e-06  9.34220373e-10  8.17480023e-06
  0.00000000e+00  0.00000000e+00  0.00000000e+00  9.98717655e-08
  0.00000000e+00  0.00000000e+00  0.00000000e+00  0.00000000e+00
  0.00000000e+00  0.00000000e+00  0.00000000e+00  0.00000000e+00
  0.00000000e+00  0.00000000e+00  0.00000000e+00  0.00000000e+00
  0.00000000e+00  0.00000000e+00  0.00000000e+00  0.00000000e+00
  0.00000000e+00  0.00000000e+00 -1.30845574e-06  9.98717655e-08
  0.00000000e+00  0.00000000e+00  0.00000000e+00  3.91020318e-06]","[[ 6.59099704e-05  1.14417610e-02]
 [-1.98563497e-04  1.49195323e-03]]",[],0.0,0.0
1787211593.6934354,1.2104126961752006,0.9181052285915468,2.3037069198461335,"[ 1.11482648e-05  9.34220373e-10  0.00000000e+00  0.00000000e+00
  0.00000000e+00 -1.30845574e-06  9.34220373e-10  8.17480023e-06
  0.00000000e+00  0.00000000e+00  0.00000000e+00  9.98717655e-08
  0.00000000e+00  0.00000000e+00  0.00000000e+00  0.00000000e+00
  0.00000000e+00  0.00000000e+00  0.00000000e+00  0.00000000e+00
  0.00000000e+00  0.00000000e+00  0.00000000e+00  0.00000000e+00
  0.00000000e+00  0.00000000e+00  0.00000000e+00  0.00000000e+00
  0.00000000e+00  0.00000000e+00 -1.30845574e-06  9.98717655e-08
  0.00000000e+00  0.00000000e+00  0.00000000e+00  3.91020318e-06]","[[ 6.59099704e-05  1.14417610e-02]
 [-1.98563497e-04  1.49195323e-03]]",[],0.0,0.0
1787211593.740833,1.2104126961752006,0.9181052285915468,2.3037069198461335,"[ 1.11482648e-05  9.34220373e-10  0.00000000e+00  0.00000000e+00
  0.00000000e+00 -1.30845574e-06  9.34220373e-10  8.17480023e-06
  0.00000000e+00  0.00000000e+00  0.00000000e+00  9.98717655e-08
  0.00000000e+00  0.00000000e+00  0.00000000e+00  0.00000000e+00
  0.00000000e+00  0.00000000e+00  0.00000000e+00  0.00000000e+00
  0.00000000e+00  0.00000000e+00  0.00000000e+00  0.00000000e+00
  0.00000000e+00  0.00000000e+00  0.00000000e+00  0.00000000e+00
  0.00000000e+00  0.00000000e+00 -1.30845574e-06  9.98717655e-08
  0.00000000e+00  0.00000000e+00  0.00000000e+00  3.91020318e-06]","[[ 6.59099704e-05  1.14417610e-02]
 [-1.98563497e-04  1.49195323e-03]]",[],0.0,0.0
1787211593.7974463,1.2104126961752006,0.9181052285915468,2.3037069198461335,"[ 1.11482648e-05  9.34220373e-10  0.00000000e+00  0.00000000e+00
  0.00000000e+00 -1.30845574e-06  9.34220373e-10  8.17480023e-06
  0.00000000e+00  0.00000000e+00  0.00000000e+00  9.98717655e-08
  0.00000000e+00  0.00000000e+00  0.00000000e+00  0.00000000e+00
  0.00000000e+00  0.00000000e+00  0.00000000e+00  0.00000000e+00
  0.00000000e+00  0.00000000e+00  0.00000000e+00  0.00000000e+00
  0.00000000e+00  0.00000000e+00  0.00000000e+00  0.00000000e+00
  0.00000000e+00  0.00000000e+00 -1.30845574e-06  9.98717655e-08
  0.00000000e+00  0.00000000e+00  0.00000000e+00  3.91020318e-06]","[[ 6.59099704e-05  1.14417610e-02]
 [-1.98563497e-04  1.49195323e-03]]",[],0.0,0.0
1787211593.8408983,1.2104126961752006,0.9181052285915468,2.3037069198461335,"[ 1.11482648e-05  9.34220373e-10  0.00000000e+00  0.00000000e+00
  0.00000000e+00 -1.30845574e-06  9.34220373e-10  8.17480023e-06
  0.00000000e+00  0.00000000e+00  0.00000000e+00  9.98717655e-08
  0.00000000e+00  0.00000000e+00  0.00000000e+00  0.00000000e+00
  0.00000000e+00  0.00000000e+00  0.00000000e+00  0.00000000e+00
  0.00000000e+00  0.00000000e+00  0.00000000e+00  0.00000000e+00
  0.00000000e+00  0.00000000e+00  0.00000000e+00  0.00000000e+00
  0.00000000e+00  0.00000000e+00 -1.30845574e-06  9.98717655e-08
  0.00000000e+00  0.00000000e+00  0.00000000e+00  3.91020318e-06]","[[ 6.59099704e-05  1.14417610e-02]
 [-1.98563497e-04  1.49195323e-03]]",[],0.0,0.0
1787211593.8957705,1.2104126961752006,0.9181052285915468,2.3037069198461335,"[ 1.11482648e-05  9.34220373e-10  0.00000000e+00  0.00000000e+00
  0.00000000e+00 -1.30845574e-06  9.34220373e-10  8.17480023e-06
  0.00000000e+00  0.00000000e+00  0.00000000e+00  9.98717655e-08
  0.00000000e+00  0.00000000e+00  0.00000000e+00  0.00000000e+00
  0.00000000e+00  0.00000000e+00  0.00000000e+00  0.00000000e+00
  0.00000000e+00  0.00000000e+00  0.00000000e+00  0.00000000e+00
  0.00000000e+00  0.00000000e+00  0.00000000e+00  0.00000000e+00
  0.00000000e+00  0.00000000e+00 -1.30845574e-06  9.98717655e-08
  0.00000000e+00  0.00000000e+00  0.00000000e+00  3.91020318e-06]","[[ 6.59099704e-05  1.14417610e-02]
 [-1.98563497e-04  1.49195323e-03]]",[],0.0,0.0
1787211593.9552197,1.2104126961752006,0.9181052285915468,2.3037069198461335,"[ 1.11482648e-05  9.34220373e-10  0.00000000e+00  0.00000000e+00
  0.00000000e+00 -1.30845574e-06  9.34220373e-10  8.17480023e-06
  0.00000000e+00  0.00000000e+00  0.00000000e+00  9.98717655e-08
  0.00000000e+00  0.00000000e+00  0.00000000e+00  0.00000000e+00
  0.00000000e+00  0.00000000e+00  0.00000000e+00  0.00000000e+00
  0.00000000e+00  0.00000000e+00  0.00000000e+00  0.00000000e+00
  0.00000000e+00  0.00000000e+00  0.00000000e+00  0.00000000e+00
  0.00000000e+00  0.00000000e+00 -1.30845574e-06  9.98717655e-08
  0.00000000e+00  0.00000000e+00  0.00000000e+00  3.91020318e-06]","[[ 6.59099704e-05  1.14417610e-02]
 [-1.98563497e-04  1.49195323e-03]]",[],0.0,0.0
1787211593.9926102,1.2104126961752006,0.9181052285915468,2.3037069198461335,"[ 1.11482648e-05  9.34220373e-10  0.00000000e+00  0.00000000e+00
  0.00000000e+00 -1.30845574e-06  9.34220373e-10  8.17480023e-06
  0.00000000e+00  0.00000000e+00  0.00000000e+00  9.98717655e-08
  0.00000000e+00  0.00000000e+00  0.00000000e+00  0.00000000e+00
  0.00000000e+00  0.00000000e+00  0.00000000e+00  0.00000000e+00
  0.00000000e+00  0.00000000e+00  0.00000000e+00  0.00000000e+00
  0.00000000e+00  0.00000000e+00  0.00000000e+00  0.00000000e+00
  0.00000000e+00  0.00000000e+00 -1.30845574e-06  9.98717655e-08
  0.00000000e+00  0.00000000e+00  0.00000000e+00  3.91020318e-06]","[[ 6.59099704e-05  1.14417610e-02]
 [-1.98563497e-04  1.49195323e-03]]",[],0.0,0.0
1787211594.0695453,1.2104126961752006,0.9181052285915468,2.3037069198461335,"[ 1.11482648e-05  9.34220373e-10  0.00000000e+00  0.00000000e+00
  0.00000000e+00 -1.30845574e-06  9.34220373e-10  8.17480023e-06
  0.00000000e+00  0.00000000e+00  0.00000000e+00  9.98717655e-08
  0.00000000e+00  0.00000000e+00  0.00000000e+00  0.00000000e+00
  0.00000000e+00  0.00000000e+00  0.00000000e+00  0.00000000e+00
  0.00000000e+00  0.00000000e+00  0.00000000e+00  0.00000000e+00
  0.00000000e+00  0.00000000e+00  0.00000000e+00  0.00000000e+00
  0.00000000e+00  0.00000000e+00 -1.30845574e-06  9.98717655e-08
  0.00000000e+00  0.00000000e+00  0.00000000e+00  3.91020318e-06]","[[ 6.59099704e-05  1.14417610e-02]
 [-1.98563497e-04  1.49195323e-03]]",[],0.0,0.0
1787211594.093229,1.2104126961752006,0.9181052285915468,2.3037069198461335,"[ 1.11482648e-05  9.34220373e-10  0.00000000e+00  0.00000000e+00
  0.00000000e+00 -1.30845574e-06  9.34220373e-10  8.17480023e-06
  0.00000000e+00  0.00000000e+00  0.00000000e+00  9.98717655e-08
  0.00000000e+00  0.00000000e+00  0.00000000e+00  0.00000000e+00
  0.00000000e+00  0.00000000e+00  0.00000000e+00  0.00000000e+00
  0.00000000e+00  0.00000000e+00  0.00000000e+00  0.00000000e+00
  0.00000000e+00  0.00000000e+00  0.00000000e+00  0.00000000e+00
  0.00000000e+00  0.00000000e+00 -1.30845574e-06  9.98717655e-08
  0.00000000e+00  0.00000000e+00  0.00000000e+00  3.91020318e-06]","[[ 6.59099704e-05  1.14417610e-02]
 [-1.98563497e-04  1.49195323e-03]]",[],0.0,0.0
1787211594.1840065,1.2104126961752006,0.9181052285915468,2.3037069198461335,"[ 1.11482648e-05  9.34220373e-10  0.00000000e+00  0.00000000e+00
  0.00000000e+00 -1.30845574e-06  9.34220373e-10  8.17480023e-06
  0.00000000e+00  0.00000000e+00  0.00000000e+00  9.98717655e-08
  0.00000000e+00  0.00000000e+00  0.00000000e+00  0.00000000e+00
  0.00000000e+00  0.00000000e+00  0.00000000e+00  0.00000000e+00
  0.00000000e+00  0.00000000e+00  0.00000000e+00  0.00000000e+00
  0.00000000e+00  0.00000000e+00  0.00000000e+00  0.00000000e+00
  0.00000000e+00  0.00000000e+00 -1.30845574e-06  9.98717655e-08
  0.00000000e+00  0.00000000e+00  0.00000000e+00  3.91020318e-06]","[[ 6.59099704e-05  1.14417610e-02]
 [-1.98563497e-04  1.49195323e-03]]",[],0.0,0.0
1787211594.190629,1.2104126961752006,0.9181052285915468,2.3037069198461335,"[ 1.11482648e-05  9.34220373e-10  0.00000000e+00  0.00000000e+00
  0.00000000e+00 -1.30845574e-06  9.34220373e-10  8.17480023e-06
  0.00000000e+00  0.00000000e+00  0.00000000e+00  9.98717655e-08
  0.00000000e+00  0.00000000e+00  0.00000000e+00  0.00000000e+00
  0.00000000e+00  0.00000000e+00  0.00000000e+00  0.00000000e+00
  0.00000000e+00  0.00000000e+00  0.00000000e+00  0.00000000e+00
  0.00000000e+00  0.00000000e+00  0.00000000e+00  0.00000000e+00
  0.00000000e+00  0.00000000e+00 -1.30845574e-06  9.98717655e-08
  0.00000000e+00  0.00000000e+00  0.00000000e+00  3.91020318e-06]","[[ 6.59099704e-05  1.14417610e-02]
 [-1.98563497e-04  1.49195323e-03]]",[],0.0,0.0
1787211594.2633774,1.2152929364771303,0.9160472532689765,2.3282378026396238,"[ 9.76375068e-06 -1.57724984e-08  0.00000000e+00  0.00000000e+00
  0.00000000e+00 -1.05613606e-06 -1.57724984e-08  7.11653365e-06
  0.00000000e+00  0.00000000e+00  0.00000000e+00  9.36111736e-08
  0.00000000e+00  0.00000000e+00  0.00000000e+00  0.00000000e+00
  0.00000000e+00  0.00000000e+00  0.00000000e+00  0.00000000e+00
  0.00000000e+00  0.00000000e+00  0.00000000e+00  0.00000000e+00
  0.00000000e+00  0.00000000e+00  0.00000000e+00  0.00000000e+00
  0.00000000e+00  0.00000000e+00 -1.05613606e-06  9.36111736e-08
  0.00000000e+00  0.00000000e+00  0.00000000e+00  3.83341928e-06]","[[ 5.89370834e-05  9.84618675e-03]
 [-1.72813121e-04  1.29138777e-03]]",[],0.0,0.0
1787211594.2963452,1.2152929364771303,0.9160472532689765,2.3282378026396238,"[ 9.76375068e-06 -1.57724984e-08  0.00000000e+00  0.00000000e+00
  0.00000000e+00 -1.05613606e-06 -1.57724984e-08  7.11653365e-06
  0.00000000e+00  0.00000000e+00  0.00000000e+00  9.36111736e-08
  0.00000000e+00  0.00000000e+00  0.00000000e+00  0.00000000e+00
  0.00000000e+00  0.00000000e+00  0.00000000e+00  0.00000000e+00
  0.00000000e+00  0.00000000e+00  0.00000000e+00  0.00000000e+00
  0.00000000e+00  0.00000000e+00  0.00000000e+00  0.00000000e+00
  0.00000000e+00  0.00000000e+00 -1.05613606e-06  9.36111736e-08
  0.00000000e+00  0.00000000e+00  0.00000000e+00  3.83341928e-06]","[[ 5.89370834e-05  9.84618675e-03]
 [-1.72813121e-04  1.29138777e-03]]",[],0.0,0.0
1787211594.3448782,1.2152929364771303,0.9160472532689765,2.3282378026396238,"[ 9.76375068e-06 -1.57724984e-08  0.00000000e+00  0.00000000e+00
  0.00000000e+00 -1.05613606e-06 -1.57724984e-08  7.11653365e-06
  0.00000000e+00  0.00000000e+00  0.00000000e+00  9.36111736e-08
  0.00000000e+00  0.00000000e+00  0.00000000e+00  0.00000000e+00
  0.00000000e+00  0.00000000e+00  0.00000000e+00  0.00000000e+00
  0.00000000e+00  0.00000000e+00  0.00000000e+00  0.00000000e+00
  0.00000000e+00  0.00000000e+00  0.00000000e+00  0.00000000e+00
  0.00000000e+00  0.00000000e+00 -1.05613606e-06  9.36111736e-08
  0.00000000e+00  0.00000000e+00  0.00000000e+00  3.83341928e-06]","[[ 5.89370834e-05  9.84618675e-03]
 [-1.72813121e-04  1.29138777e-03]]",[],0.0,0.0
1787211594.3946438,1.2152929364771303,0.9160472532689765,2.3282378026396238,"[ 9.76375068e-06 -1.57724984e-08  0.00000000e+00  0.00000000e+00
  0.00000000e+00 -1.05613606e-06 -1.57724984e-08  7.11653365e-06
  0.00000000e+00  0.00000000e+00  0.00000000e+00  9.36111736e-08
  0.00000000e+00  0.00000000e+00  0.00000000e+00  0.00000000e+00
  0.00000000e+00  0.00000000e+00  0.00000000e+00  0.00000000e+00
  0.00000000e+00  0.00000000e+00  0.00000000e+00  0.00000000e+00
  0.00000000e+00  0.00000000e+00  0.00000000e+00  0.00000000e+00
  0.00000000e+00  0.00000000e+00 -1.05613606e-06  9.36111736e-08
  0.00000000e+00  0.00000000e+00  0.00000000e+00  3.83341928e-06]","[[ 5.89370834e-05  9.84618675e-03]
 [-1.72813121e-04  1.29138777e-03]]",[],0.0,0.0
1787211594.441793,1.2152929364771303,0.9160472532689765,2.3282378026396238,"[ 9.76375068e-06 -1.57724984e-08  0.00000000e+00  0.00000000e+00
  0.00000000e+00 -1.05613606e-06 -1.57724984e-08  7.11653365e-06
  0.00000000e+00  0.00000000e+00  0.00000000e+00  9.36111736e-08
  0.00000000e+00  0.00000000e+00  0.00000000e+00  0.00000000e+00
  0.00000000e+00  0.00000000e+00  0.00000000e+00  0.00000000e+00
  0.00000000e+00  0.00000000e+00  0.00000000e+00  0.00000000e+00
  0.00000000e+00  0.00000000e+00  0.00000000e+00  0.00000000e+00
  0.00000000e+00  0.00000000e+00 -1.05613606e-06  9.36111736e-08
  0.00000000e+00  0.00000000e+00  0.00000000e+00  3.83341928e-06]","[[ 5.89370834e-05  9.84618675e-03]
 [-1.72813121e-04  1.29138777e-03]]",[],0.0,0.0
1787211594.4945292,1.2152929364771303,0.9160472532689765,2.3282378026396238,"[ 9.76375068e-06 -1.57724984e-08  0.00000000e+00  0.00000000e+00
  0.00000000e+00 -1.05613606e-06 -1.57724984e-08  7.11653365e-06
  0.00000000e+00  0.00000000e+00  0.00000000e+00  9.36111736e-08
  0.00000000e+00  0.00000000e+00  0.00000000e+00  0.00000000e+00
  0.00000000e+00  0.00000000e+00  0.00000000e+00  0.00000000e+00
  0.00000000e+00  0.00000000e+00  0.00000000e+00  0.00000000e+00
  0.00000000e+00  0.00000000e+00  0.00000000e+00  0.00000000e+00
  0.00000000e+00  0.00000000e+00 -1.05613606e-06  9.36111736e-08
  0.00000000e+00  0.00000000e+00  0.00000000e+00  3.83341928e-06]","[[ 5.89370834e-05  9.84618675e-03]
 [-1.72813121e-04  1.29138777e-03]]",[],0.0,0.0
1787211594.544964,1.2152929364771303,0.9160472532689765,2.3282378026396238,"[ 9.76375068e-06 -1.57724984e-08  0.00000000e+00  0.00000000e+00
  0.00000000e+00 -1.05613606e-06 -1.57724984e-08  7.11653365e-06
  0.00000000e+00  0.00000000e+00  0.00000000e+00  9.36111736e-08
  0.00000000e+00  0.00000000e+00  0.00000000e+00  0.00000000e+00
  0.00000000e+00  0.00000000e+00  0.00000000e+00  0.00000000e+00
  0.00000000e+00  0.00000000e+00  0.00000000e+00  0.00000000e+00
  0.00000000e+00  0.00000000e+00  0.00000000e+00  0.00000000e+00
  0.00000000e+00  0.00000000e+00 -1.05613606e-06  9.36111736e-08
  0.00000000e+00  0.00000000e+00  0.00000000e+00  3.83341928e-06]","[[ 5.89370834e-05  9.84618675e-03]
 [-1.72813121e-04  1.29138777e-03]]",[],0.0,0.0
1787211594.595236,1.2152929364771303,0.9160472532689765,2.3282378026396238,"[ 9.76375068e-06 -1.57724984e-08  0.00000000e+00  0.00000000e+00
  0.00000000e+00 -1.05613606e-06 -1.57724984e-08  7.11653365e-06
  0.00000000e+00  0.00000000e+00  0.00000000e+00  9.36111736e-08
  0.00000000e+00  0.00000000e+00  0.00000000e+00  0.00000000e+00
  0.00000000e+00  0.00000000e+00  0.00000000e+00  0.00000000e+00
  0.00000000e+00  0.00000000e+00  0.00000000e+00  0.00000000e+00
  0.00000000e+00  0.00000000e+00  0.00000000e+00  0.00000000e+00
  0.00000000e+00  0.00000000e+00 -1.05613606e-06  9.36111736e-08
  0.00000000e+00  0.00000000e+00  0.00000000e+00  3.83341928e-06]","[[ 5.89370834e-05  9.84618675e-03]
 [-1.72813121e-04  1.29138777e-03]]",[],0.0,0.0
1787211594.6706092,1.2152929364771303,0.9160472532689765,2.3282378026396238,"[ 9.76375068e-06 -1.57724984e-08  0.00000000e+00  0.00000000e+00
  0.00000000e+00 -1.05613606e-06 -1.57724984e-08  7.11653365e-06
  0.00000000e+00  0.00000000e+00  0.00000000e+00  9.36111736e-08
  0.00000000e+00  0.00000000e+00  0.00000000e+00  0.00000000e+00
  0.00000000e+00  0.00000000e+00  0.00000000e+00  0.00000000e+00
  0.00000000e+00  0.00000000e+00  0.00000000e+00  0.00000000e+00
  0.00000000e+00  0.00000000e+00  0.00000000e+00  0.00000000e+00
  0.00000000e+00  0.00000000e+00 -1.05613606e-06  9.36111736e-08
  0.00000000e+00  0.00000000e+00  0.00000000e+00  3.83341928e-06]","[[ 5.89370834e-05  9.84618675e-03]
 [-1.72813121e-04  1.29138777e-03]]",[],0.0,0.0
1787211594.6920729,1.2152929364771303,0.9160472532689765,2.3282378026396238,"[ 9.76375068e-06 -1.57724984e-08  0.00000000e+00  0.00000000e+00
  0.00000000e+00 -1.05613606e-06 -1.57724984e-08  7.11653365e-06
  0.00000000e+00  0.00000000e+00  0.00000000e+00  9.36111736e-08
  0.00000000e+00  0.00000000e+00  0.00000000e+00  0.00000000e+00
  0.00000000e+00  0.00000000e+00  0.00000000e+00  0.00000000e+00
  0.00000000e+00  0.00000000e+00  0.00000000e+00  0.00000000e+00
  0.00000000e+00  0.00000000e+00  0.00000000e+00  0.00000000e+00
  0.00000000e+00  0.00000000e+00 -1.05613606e-06  9.36111736e-08
  0.00000000e+00  0.00000000e+00  0.00000000e+00  3.83341928e-06]","[[ 5.89370834e-05  9.84618675e-03]
 [-1.72813121e-04  1.29138777e-03]]",[],0.0,0.0
1787211594.7427073,1.2152929364771303,0.9160472532689765,2.3282378026396238,"[ 9.76375068e-06 -1.57724984e-08  0.00000000e+00  0.00000000e+00
  0.00000000e+00 -1.05613606e-06 -1.57724984e-08  7.11653365e-06
  0.00000000e+00  0.00000000e+00  0.00000000e+00  9.36111736e-08
  0.00000000e+00  0.00000000e+00  0.00000000e+00  0.00000000e+00
  0.00000000e+00  0.00000000e+00  0.00000000e+00  0.00000000e+00
  0.00000000e+00  0.00000000e+00  0.00000000e+00  0.00000000e+00
  0.00000000e+00  0.00000000e+00  0.00000000e+00  0.00000000e+00
  0.00000000e+00  0.00000000e+00 -1.05613606e-06  9.36111736e-08
  0.00000000e+00  0.00000000e+00  0.00000000e+00  3.83341928e-06]","[[ 5.89370834e-05  9.84618675e-03]
 [-1.72813121e-04  1.29138777e-03]]",[],0.0,0.0
1787211594.7937515,1.2152929364771303,0.9160472532689765,2.3282378026396238,"[ 9.76375068e-06 -1.57724984e-08  0.00000000e+00  0.00000000e+00
  0.00000000e+00 -1.05613606e-06 -1.57724984e-08  7.11653365e-06
  0.00000000e+00  0.00000000e+00  0.00000000e+00  9.36111736e-08
  0.00000000e+00  0.00000000e+00  0.00000000e+00  0.00000000e+00
  0.00000000e+00  0.00000000e+00  0.00000000e+00  0.00000000e+00
  0.00000000e+00  0.00000000e+00  0.00000000e+00  0.00000000e+00
  0.00000000e+00  0.00000000e+00  0.00000000e+00  0.00000000e+00
  0.00000000e+00  0.00000000e+00 -1.05613606e-06  9.36111736e-08
  0.00000000e+00  0.00000000e+00  0.00000000e+00  3.83341928e-06]","[[ 5.89370834e-05  9.84618675e-03]
 [-1.72813121e-04  1.29138777e-03]]",[],0.0,0.0
1787211594.8793974,1.2152929364771303,0.9160472532689765,2.3282378026396238,"[ 9.76375068e-06 -1.57724984e-08  0.00000000e+00  0.00000000e+00
  0.00000000e+00 -1.05613606e-06 -1.57724984e-08  7.11653365e-06
  0.00000000e+00  0.00000000e+00  0.00000000e+00  9.36111736e-08
  0.00000000e+00  0.00000000e+00  0.00000000e+00  0.00000000e+00
  0.00000000e+00  0.00000000e+00  0.00000000e+00  0.00000000e+00
  0.00000000e+00  0.00000000e+00  0.00000000e+00  0.00000000e+00
  0.00000000e+00  0.00000000e+00  0.00000000e+00  0.00000000e+00
  0.00000000e+00  0.00000000e+00 -1.05613606e-06  9.36111736e-08
  0.00000000e+00  0.00000000e+00  0.00000000e+00  3.83341928e-06]","[[ 5.89370834e-05  9.84618675e-03]
 [-1.72813121e-04  1.29138777e-03]]",[],0.0,0.0
1787211594.8910773,1.2152929364771303,0.9160472532689765,2.3282378026396238,"[ 9.76375068e-06 -1.57724984e-08  0.00000000e+00  0.00000000e+00
  0.00000000e+00 -1.05613606e-06 -1.57724984e-08  7.11653365e-06
  0.00000000e+00  0.00000000e+00  0.00000000e+00  9.36111736e-08
  0.00000000e+00  0.00000000e+00  0.00000000e+00  0.00000000e+00
  0.00000000e+00  0.00000000e+00  0.00000000e+00  0.00000000e+00
  0.00000000e+00  0.00000000e+00  0.00000000e+00  0.00000000e+00
  0.00000000e+00  0.00000000e+00  0.00000000e+00  0.00000000e+00
  0.00000000e+00  0.00000000e+00 -1.05613606e-06  9.36111736e-08
  0.00000000e+00  0.00000000e+00  0.00000000e+00  3.83341928e-06]","[[ 5.89370834e-05  9.84618675e-03]
 [-1.72813121e-04  1.29138777e-03]]",[],0.0,0.0
1787211594.9828262,1.2152929364771303,0.9160472532689765,2.3282378026396238,"[ 9.76375068e-06 -1.57724984e-08  0.00000000e+00  0.00000000e+00
  0.00000000e+00 -1.05613606e-06 -1.57724984e-08  7.11653365e-06
  0.00000000e+00  0.00000000e+00  0.00000000e+00  9.36111736e-08
  0.00000000e+00  0.00000000e+00  0.00000000e+00  0.00000000e+00
  0.00000000e+00  0.00000000e+00  0.00000000e+00  0.00000000e+00
  0.00000000e+00  0.00000000e+00  0.00000000e+00  0.00000000e+00
  0.00000000e+00  0.00000000e+00  0.00000000e+00  0.00000000e+00
  0.00000000e+00  0.00000000e+00 -1.05613606e-06  9.36111736e-08
  0.00000000e+00  0.00000000e+00  0.00000000e+00  3.83341928e-06]","[[ 5.89370834e-05  9.84618675e-03]
 [-1.72813121e-04  1.29138777e-03]]",[],0.0,0.0
1787211595.0023146,1.2152929364771303,0.9160472532689765,2.3282378026396238,"[ 9.76375068e-06 -1.57724984e-08  0.00000000e+00  0.00000000e+00
  0.00000000e+00 -1.05613606e-06 -1.57724984e-08  7.11653365e-06
  0.00000000e+00  0.00000000e+00  0.00000000e+00  9.36111736e-08
  0.00000000e+00  0.00000000e+00  0.00000000e+00  0.00000000e+00
  0.00000000e+00  0.00000000e+00  0.00000000e+00  0.00000000e+00
  0.00000000e+00  0.00000000e+00  0.00000000e+00  0.00000000e+00
  0.00000000e+00  0.00000000e+00  0.00000000e+00  0.00000000e+00
  0.00000000e+00  0.00000000e+00 -1.05613606e-06  9.36111736e-08
  0.00000000e+00  0.00000000e+00  0.00000000e+00  3.83341928e-06]","[[ 5.89370834e-05  9.84618675e-03]
 [-1.72813121e-04  1.29138777e-03]]",[],0.0,0.0
1787211595.069433,1.2152929364771303,0.9160472532689765,2.3282378026396238,"[ 9.76375068e-06 -1.57724984e-08  0.00000000e+00  0.00000000e+00
  0.00000000e+00 -1.05613606e-06 -1.57724984e-08  7.11653365e-06
  0.00000000e+00  0.00000000e+00  0.00000000e+00  9.36111736e-08
  0.00000000e+00  0.00000000e+00  0.00000000e+00  0.00000000e+00
  0.00000000e+00  0.00000000e+00  0.00000000e+00  0.00000000e+00
  0.00000000e+00  0.00000000e+00  0.00000000e+00  0.00000000e+00
  0.00000000e+00  0.00000000e+00  0.00000000e+00  0.00000000e+00
  0.00000000e+00  0.00000000e+00 -1.05613606e-06  9.36111736e-08
  0.00000000e+00  0.00000000e+00  0.00000000e+00  3.83341928e-06]","[[ 5.89370834e-05  9.84618675e-03]
 [-1.72813121e-04  1.29138777e-03]]",[],0.0,0.0
1787211595.0971358,1.2152929364771303,0.9160472532689765,2.3282378026396238,"[ 9.76375068e-06 -1.57724984e-08  0.00000000e+00  0.00000000e+00
  0.00000000e+00 -1.05613606e-06 -1.57724984e-08  7.11653365e-06
  0.00000000e+00  0.00000000e+00  0.00000000e+00  9.36111736e-08
  0.00000000e+00  0.00000000e+00  0.00000000e+00  0.00000000e+00
  0.00000000e+00  0.00000000e+00  0.00000000e+00  0.00000000e+00
  0.00000000e+00  0.00000000e+00  0.00000000e+00  0.00000000e+00
  0.00000000e+00  0.00000000e+00  0.00000000e+00  0.00000000e+00
  0.00000000e+00  0.00000000e+00 -1.05613606e-06  9.36111736e-08
  0.00000000e+00  0.00000000e+00  0.00000000e+00  3.83341928e-06]","[[ 5.89370834e-05  9.84618675e-03]
 [-1.72813121e-04  1.29138777e-03]]",[],0.0,0.0
1787211595.1866014,1.2152929364771303,0.9160472532689765,2.3282378026396238,"[ 9.76375068e-06 -1.57724984e-08  0.00000000e+00  0.00000000e+00
  0.00000000e+00 -1.05613606e-06 -1.57724984e-08  7.11653365e-06
  0.00000000e+00  0.00000000e+00  0.00000000e+00  9.36111736e-08
  0.00000000e+00  0.00000000e+00  0.00000000e+00  0.00000000e+00
  0.00000000e+00  0.00000000e+00  0.00000000e+00  0.00000000e+00
  0.00000000e+00  0.00000000e+00  0.00000000e+00  0.00000000e+00
  0.00000000e+00  0.00000000e+00  0.00000000e+00  0.00000000e+00
  0.00000000e+00  0.00000000e+00 -1.05613606e-06  9.36111736e-08
  0.00000000e+00  0.00000000e+00  0.00000000e+00  3.83341928e-06]","[[ 5.89370834e-05  9.84618675e-03]
 [-1.72813121e-04  1.29138777e-03]]",[],0.0,0.0
1787211595.1934,1.2152929364771303,0.9160472532689765,2.3282378026396238,"[ 9.76375068e-06 -1.57724984e-08  0.00000000e+00  0.00000000e+00
  0.00000000e+00 -1.05613606e-06 -1.57724984e-08  7.11653365e-06
  0.00000000e+00  0.00000000e+00  0.00000000e+00  9.36111736e-08
  0.00000000e+00  0.00000000e+00  0.00000000e+00  0.00000000e+00
  0.00000000e+00  0.00000000e+00  0.00000000e+00  0.00000000e+00
  0.00000000e+00  0.00000000e+00  0.00000000e+00  0.00000000e+00
  0.00000000e+00  0.00000000e+00  0.00000000e+00  0.00000000e+00
  0.00000000e+00  0.00000000e+00 -1.05613606e-06  9.36111736e-08
  0.00000000e+00  0.00000000e+00  0.00000000e+00  3.83341928e-06]","[[ 5.89370834e-05  9.84618675e-03]
 [-1.72813121e-04  1.29138777e-03]]",[],0.0,0.0
1787211595.244616,1.2152929364771303,0.9160472532689765,2.3282378026396238,"[ 9.76375068e-06 -1.57724984e-08  0.00000000e+00  0.00000000e+00
  0.00000000e+00 -1.05613606e-06 -1.57724984e-08  7.11653365e-06
  0.00000000e+00  0.00000000e+00  0.00000000e+00  9.36111736e-08
  0.00000000e+00  0.00000000e+00  0.00000000e+00  0.00000000e+00
  0.00000000e+00  0.00000000e+00  0.00000000e+00  0.00000000e+00
  0.00000000e+00  0.00000000e+00  0.00000000e+00  0.00000000e+00
  0.00000000e+00  0.00000000e+00  0.00000000e+00  0.00000000e+00
  0.00000000e+00  0.00000000e+00 -1.05613606e-06  9.36111736e-08
  0.00000000e+00  0.00000000e+00  0.00000000e+00  3.83341928e-06]","[[ 5.89370834e-05  9.84618675e-03]
 [-1.72813121e-04  1.29138777e-03]]",[],0.0,0.0
1787211595.2927098,1.2171572442726097,0.9132190836010735,2.358497890395146,"[ 8.64718598e-06 -1.09483998e-07  0.00000000e+00  0.00000000e+00
  0.00000000e+00 -9.49385770e-07 -1.09483998e-07  6.31349463e-06
  0.00000000e+00  0.00000000e+00  0.00000000e+00  2.00214202e-07
  0.00000000e+00  0.00000000e+00  0.00000000e+00  0.00000000e+00
  0.00000000e+00  0.00000000e+00  0.00000000e+00  0.00000000e+00
  0.00000000e+00  0.00000000e+00  0.00000000e+00  0.00000000e+00
  0.00000000e+00  0.00000000e+00  0.00000000e+00  0.00000000e+00
  0.00000000e+00  0.00000000e+00 -9.49385770e-07  2.00214202e-07
  0.00000000e+00  0.00000000e+00  0.00000000e+00  3.74841083e-06]","[[ 0.0001645   0.00481423]
 [-0.00010599  0.00237403]]",[],0.0,0.0
1787211595.3800561,1.2171572442726097,0.9132190836010735,2.358497890395146,"[ 8.64718598e-06 -1.09483998e-07  0.00000000e+00  0.00000000e+00
  0.00000000e+00 -9.49385770e-07 -1.09483998e-07  6.31349463e-06
  0.00000000e+00  0.00000000e+00  0.00000000e+00  2.00214202e-07
  0.00000000e+00  0.00000000e+00  0.00000000e+00  0.00000000e+00
  0.00000000e+00  0.00000000e+00  0.00000000e+00  0.00000000e+00
  0.00000000e+00  0.00000000e+00  0.00000000e+00  0.00000000e+00
  0.00000000e+00  0.00000000e+00  0.00000000e+00  0.00000000e+00
  0.00000000e+00  0.00000000e+00 -9.49385770e-07  2.00214202e-07
  0.00000000e+00  0.00000000e+00  0.00000000e+00  3.74841083e-06]","[[ 0.0001645   0.00481423]
 [-0.00010599  0.00237403]]",[],0.0,0.0
1787211595.3977468,1.2171572442726097,0.9132190836010735,2.358497890395146,"[ 8.64718598e-06 -1.09483998e-07  0.00000000e+00  0.00000000e+00
  0.00000000e+00 -9.49385770e-07 -1.09483998e-07  6.31349463e-06
  0.00000000e+00  0.00000000e+00  0.00000000e+00  2.00214202e-07
  0.00000000e+00  0.00000000e+00  0.00000000e+00  0.00000000e+00
  0.00000000e+00  0.00000000e+00  0.00000000e+00  0.00000000e+00
  0.00000000e+00  0.00000000e+00  0.00000000e+00  0.00000000e+00
  0.00000000e+00  0.00000000e+00  0.00000000e+00  0.00000000e+00
  0.00000000e+00  0.00000000e+00 -9.49385770e-07  2.00214202e-07
  0.00000000e+00  0.00000000e+00  0.00000000e+00  3.74841083e-06]","[[ 0.0001645   0.00481423]
 [-0.00010599  0.00237403]]",[],0.0,0.0
1787211595.447051,1.2171572442726097,0.9132190836010735,2.358497890395146,"[ 8.64718598e-06 -1.09483998e-07  0.00000000e+00  0.00000000e+00
  0.00000000e+00 -9.49385770e-07 -1.09483998e-07  6.31349463e-06
  0.00000000e+00  0.00000000e+00  0.00000000e+00  2.00214202e-07
  0.00000000e+00  0.00000000e+00  0.00000000e+00  0.00000000e+00
  0.00000000e+00  0.00000000e+00  0.00000000e+00  0.00000000e+00
  0.00000000e+00  0.00000000e+00  0.00000000e+00  0.00000000e+00
  0.00000000e+00  0.00000000e+00  0.00000000e+00  0.00000000e+00
  0.00000000e+00  0.00000000e+00 -9.49385770e-07  2.00214202e-07
  0.00000000e+00  0.00000000e+00  0.00000000e+00  3.74841083e-06]","[[ 0.0001645   0.00481423]
 [-0.00010599  0.00237403]]",[],0.0,0.0
1787211595.5155735,1.2171572442726097,0.9132190836010735,2.358497890395146,"[ 8.64718598e-06 -1.09483998e-07  0.00000000e+00  0.00000000e+00
  0.00000000e+00 -9.49385770e-07 -1.09483998e-07  6.31349463e-06
  0.00000000e+00  0.00000000e+00  0.00000000e+00  2.00214202e-07
  0.00000000e+00  0.00000000e+00  0.00000000e+00  0.00000000e+00
  0.00000000e+00  0.00000000e+00  0.00000000e+00  0.00000000e+00
  0.00000000e+00  0.00000000e+00  0.00000000e+00  0.00000000e+00
  0.00000000e+00  0.00000000e+00  0.00000000e+00  0.00000000e+00
  0.00000000e+00  0.00000000e+00 -9.49385770e-07  2.00214202e-07
  0.00000000e+00  0.00000000e+00  0.00000000e+00  3.74841083e-06]","[[ 0.0001645   0.00481423]
 [-0.00010599  0.00237403]]",[],0.0,0.0
1787211595.543936,1.2171572442726097,0.9132190836010735,2.358497890395146,"[ 8.64718598e-06 -1.09483998e-07  0.00000000e+00  0.00000000e+00
  0.00000000e+00 -9.49385770e-07 -1.09483998e-07  6.31349463e-06
  0.00000000e+00  0.00000000e+00  0.00000000e+00  2.00214202e-07
  0.00000000e+00  0.00000000e+00  0.00000000e+00  0.00000000e+00
  0.00000000e+00  0.00000000e+00  0.00000000e+00  0.00000000e+00
  0.00000000e+00  0.00000000e+00  0.00000000e+00  0.00000000e+00
  0.00000000e+00  0.00000000e+00  0.00000000e+00  0.00000000e+00
  0.00000000e+00  0.00000000e+00 -9.49385770e-07  2.00214202e-07
  0.00000000e+00  0.00000000e+00  0.00000000e+00  3.74841083e-06]","[[ 0.0001645   0.00481423]
 [-0.00010599  0.00237403]]",[],0.0,0.0
1787211595.6050315,1.2171572442726097,0.9132190836010735,2.358497890395146,"[ 8.64718598e-06 -1.09483998e-07  0.00000000e+00  0.00000000e+00
  0.00000000e+00 -9.49385770e-07 -1.09483998e-07  6.31349463e-06
  0.00000000e+00  0.00000000e+00  0.00000000e+00  2.00214202e-07
  0.00000000e+00  0.00000000e+00  0.00000000e+00  0.00000000e+00
  0.00000000e+00  0.00000000e+00  0.00000000e+00  0.00000000e+00
  0.00000000e+00  0.00000000e+00  0.00000000e+00  0.00000000e+00
  0.00000000e+00  0.00000000e+00  0.00000000e+00  0.00000000e+00
  0.00000000e+00  0.00000000e+00 -9.49385770e-07  2.00214202e-07
  0.00000000e+00  0.00000000e+00  0.00000000e+00  3.74841083e-06]","[[ 0.0001645   0.00481423]
 [-0.00010599  0.00237403]]",[],0.0,0.0
1787211595.6413107,1.2171572442726097,0.9132190836010735,2.358497890395146,"[ 8.64718598e-06 -1.09483998e-07  0.00000000e+00  0.00000000e+00
  0.00000000e+00 -9.49385770e-07 -1.09483998e-07  6.31349463e-06
  0.00000000e+00  0.00000000e+00  0.00000000e+00  2.00214202e-07
  0.00000000e+00  0.00000000e+00  0.00000000e+00  0.00000000e+00
  0.00000000e+00  0.00000000e+00  0.00000000e+00  0.00000000e+00
  0.00000000e+00  0.00000000e+00  0.00000000e+00  0.00000000e+00
  0.00000000e+00  0.00000000e+00  0.00000000e+00  0.00000000e+00
  0.00000000e+00  0.00000000e+00 -9.49385770e-07  2.00214202e-07
  0.00000000e+00  0.00000000e+00  0.00000000e+00  3.74841083e-06]","[[ 0.0001645   0.00481423]
 [-0.00010599  0.00237403]]",[],0.0,0.0
1787211595.6985574,1.2171572442726097,0.9132190836010735,2.358497890395146,"[ 8.64718598e-06 -1.09483998e-07  0.00000000e+00  0.00000000e+00
  0.00000000e+00 -9.49385770e-07 -1.09483998e-07  6.31349463e-06
  0.00000000e+00  0.00000000e+00  0.00000000e+00  2.00214202e-07
  0.00000000e+00  0.00000000e+00  0.00000000e+00  0.00000000e+00
  0.00000000e+00  0.00000000e+00  0.00000000e+00  0.00000000e+00
  0.00000000e+00  0.00000000e+00  0.00000000e+00  0.00000000e+00
  0.00000000e+00  0.00000000e+00  0.00000000e+00  0.00000000e+00
  0.00000000e+00  0.00000000e+00 -9.49385770e-07  2.00214202e-07
  0.00000000e+00  0.00000000e+00  0.00000000e+00  3.74841083e-06]","[[ 0.0001645   0.00481423]
 [-0.00010599  0.00237403]]",[],0.0,0.0
1787211595.7408159,1.2171572442726097,0.9132190836010735,2.358497890395146,"[ 8.64718598e-06 -1.09483998e-07  0.00000000e+00  0.00000000e+00
  0.00000000e+00 -9.49385770e-07 -1.09483998e-07  6.31349463e-06
  0.00000000e+00  0.00000000e+00  0.00000000e+00  2.00214202e-07
  0.00000000e+00  0.00000000e+00  0.00000000e+00  0.00000000e+00
  0.00000000e+00  0.00000000e+00  0.00000000e+00  0.00000000e+00
  0.00000000e+00  0.00000000e+00  0.00000000e+00  0.00000000e+00
  0.00000000e+00  0.00000000e+00  0.00000000e+00  0.00000000e+00
  0.00000000e+00  0.00000000e+00 -9.49385770e-07  2.00214202e-07
  0.00000000e+00  0.00000000e+00  0.00000000e+00  3.74841083e-06]","[[ 0.0001645   0.00481423]
 [-0.00010599  0.00237403]]",[],0.0,0.0
1787211595.808822,1.2171572442726097,0.9132190836010735,2.358497890395146,"[ 8.64718598e-06 -1.09483998e-07  0.00000000e+00  0.00000000e+00
  0.00000000e+00 -9.49385770e-07 -1.09483998e-07  6.31349463e-06
  0.00000000e+00  0.00000000e+00  0.00000000e+00  2.00214202e-07
  0.00000000e+00  0.00000000e+00  0.00000000e+00  0.00000000e+00
  0.00000000e+00  0.00000000e+00  0.00000000e+00  0.00000000e+00
  0.00000000e+00  0.00000000e+00  0.00000000e+00  0.00000000e+00
  0.00000000e+00  0.00000000e+00  0.00000000e+00  0.00000000e+00
  0.00000000e+00  0.00000000e+00 -9.49385770e-07  2.00214202e-07
  0.00000000e+00  0.00000000e+00  0.00000000e+00  3.74841083e-06]","[[ 0.0001645   0.00481423]
 [-0.00010599  0.00237403]]",[],0.0,0.0
1787211595.8413663,1.2171572442726097,0.9132190836010735,2.358497890395146,"[ 8.64718598e-06 -1.09483998e-07  0.00000000e+00  0.00000000e+00
  0.00000000e+00 -9.49385770e-07 -1.09483998e-07  6.31349463e-06
  0.00000000e+00  0.00000000e+00  0.00000000e+00  2.00214202e-07
  0.00000000e+00  0.00000000e+00  0.00000000e+00  0.00000000e+00
  0.00000000e+00  0.00000000e+00  0.00000000e+00  0.00000000e+00
  0.00000000e+00  0.00000000e+00  0.00000000e+00  0.00000000e+00
  0.00000000e+00  0.00000000e+00  0.00000000e+00  0.00000000e+00
  0.00000000e+00  0.00000000e+00 -9.49385770e-07  2.00214202e-07
  0.00000000e+00  0.00000000e+00  0.00000000e+00  3.74841083e-06]","[[ 0.0001645   0.00481423]
 [-0.00010599  0.00237403]]",[],0.0,0.0
1787211595.8995917,1.2171572442726097,0.9132190836010735,2.358497890395146,"[ 8.64718598e-06 -1.09483998e-07  0.00000000e+00  0.00000000e+00
  0.00000000e+00 -9.49385770e-07 -1.09483998e-07  6.31349463e-06
  0.00000000e+00  0.00000000e+00  0.00000000e+00  2.00214202e-07
  0.00000000e+00  0.00000000e+00  0.00000000e+00  0.00000000e+00
  0.00000000e+00  0.00000000e+00  0.00000000e+00  0.00000000e+00
  0.00000000e+00  0.00000000e+00  0.00000000e+00  0.00000000e+00
  0.00000000e+00  0.00000000e+00  0.00000000e+00  0.00000000e+00
  0.00000000e+00  0.00000000e+00 -9.49385770e-07  2.00214202e-07
  0.00000000e+00  0.00000000e+00  0.00000000e+00  3.74841083e-06]","[[ 0.0001645   0.00481423]
 [-0.00010599  0.00237403]]",[],0.0,0.0
1787211595.9582512,1.2171572442726097,0.9132190836010735,2.358497890395146,"[ 8.64718598e-06 -1.09483998e-07  0.00000000e+00  0.00000000e+00
  0.00000000e+00 -9.49385770e-07 -1.09483998e-07  6.31349463e-06
  0.00000000e+00  0.00000000e+00  0.00000000e+00  2.00214202e-07
  0.00000000e+00  0.00000000e+00  0.00000000e+00  0.00000000e+00
  0.00000000e+00  0.00000000e+00  0.00000000e+00  0.00000000e+00
  0.00000000e+00  0.00000000e+00  0.00000000e+00  0.00000000e+00
  0.00000000e+00  0.00000000e+00  0.00000000e+00  0.00000000e+00
  0.00000000e+00  0.00000000e+00 -9.49385770e-07  2.00214202e-07
  0.00000000e+00  0.00000000e+00  0.00000000e+00  3.74841083e-06]","[[ 0.0001645   0.00481423]
 [-0.00010599  0.00237403]]",[],0.0,0.0
1787211596.0043519,1.2171572442726097,0.9132190836010735,2.358497890395146,"[ 8.64718598e-06 -1.09483998e-07  0.00000000e+00  0.00000000e+00
  0.00000000e+00 -9.49385770e-07 -1.09483998e-07  6.31349463e-06
  0.00000000e+00  0.00000000e+00  0.00000000e+00  2.00214202e-07
  0.00000000e+00  0.00000000e+00  0.00000000e+00  0.00000000e+00
  0.00000000e+00  0.00000000e+00  0.00000000e+00  0.00000000e+00
  0.00000000e+00  0.00000000e+00  0.00000000e+00  0.00000000e+00
  0.00000000e+00  0.00000000e+00  0.00000000e+00  0.00000000e+00
  0.00000000e+00  0.00000000e+00 -9.49385770e-07  2.00214202e-07
  0.00000000e+00  0.00000000e+00  0.00000000e+00  3.74841083e-06]","[[ 0.0001645   0.00481423]
 [-0.00010599  0.00237403]]",[],0.0,0.0
1787211596.0496182,1.2171572442726097,0.9132190836010735,2.358497890395146,"[ 8.64718598e-06 -1.09483998e-07  0.00000000e+00  0.00000000e+00
  0.00000000e+00 -9.49385770e-07 -1.09483998e-07  6.31349463e-06
  0.00000000e+00  0.00000000e+00  0.00000000e+00  2.00214202e-07
  0.00000000e+00  0.00000000e+00  0.00000000e+00  0.00000000e+00
  0.00000000e+00  0.00000000e+00  0.00000000e+00  0.00000000e+00
  0.00000000e+00  0.00000000e+00  0.00000000e+00  0.00000000e+00
  0.00000000e+00  0.00000000e+00  0.00000000e+00  0.00000000e+00
  0.00000000e+00  0.00000000e+00 -9.49385770e-07  2.00214202e-07
  0.00000000e+00  0.00000000e+00  0.00000000e+00  3.74841083e-06]","[[ 0.0001645   0.00481423]
 [-0.00010599  0.00237403]]",[],0.0,0.0
1787211596.1167395,1.2171572442726097,0.9132190836010735,2.358497890395146,"[ 8.64718598e-06 -1.09483998e-07  0.00000000e+00  0.00000000e+00
  0.00000000e+00 -9.49385770e-07 -1.09483998e-07  6.31349463e-06
  0.00000000e+00  0.00000000e+00  0.00000000e+00  2.00214202e-07
  0.00000000e+00  0.00000000e+00  0.00000000e+00  0.00000000e+00
  0.00000000e+00  0.00000000e+00  0.00000000e+00  0.00000000e+00
  0.00000000e+00  0.00000000e+00  0.00000000e+00  0.00000000e+00
  0.00000000e+00  0.00000000e+00  0.00000000e+00  0.00000000e+00
  0.00000000e+00  0.00000000e+00 -9.49385770e-07  2.00214202e-07
  0.00000000e+00  0.00000000e+00  0.00000000e+00  3.74841083e-06]","[[ 0.0001645   0.00481423]
 [-0.00010599  0.00237403]]",[],0.0,0.0
1787211596.1414502,1.2171572442726097,0.9132190836010735,2.358497890395146,"[ 8.64718598e-06 -1.09483998e-07  0.00000000e+00  0.00000000e+00
  0.00000000e+00 -9.49385770e-07 -1.09483998e-07  6.31349463e-06
  0.00000000e+00  0.00000000e+00  0.00000000e+00  2.00214202e-07
  0.00000000e+00  0.00000000e+00  0.00000000e+00  0.00000000e+00
  0.00000000e+00  0.00000000e+00  0.00000000e+00  0.00000000e+00
  0.00000000e+00  0.00000000e+00  0.00000000e+00  0.00000000e+00
  0.00000000e+00  0.00000000e+00  0.00000000e+00  0.00000000e+00
  0.00000000e+00  0.00000000e+00 -9.49385770e-07  2.00214202e-07
  0.00000000e+00  0.00000000e+00  0.00000000e+00  3.74841083e-06]","[[ 0.0001645   0.00481423]
 [-0.00010599  0.00237403]]",[],0.0,0.0
1787211596.2315025,1.2171572442726097,0.9132190836010735,2.358497890395146,"[ 8.64718598e-06 -1.09483998e-07  0.00000000e+00  0.00000000e+00
  0.00000000e+00 -9.49385770e-07 -1.09483998e-07  6.31349463e-06
  0.00000000e+00  0.00000000e+00  0.00000000e+00  2.00214202e-07
  0.00000000e+00  0.00000000e+00  0.00000000e+00  0.00000000e+00
  0.00000000e+00  0.00000000e+00  0.00000000e+00  0.00000000e+00
  0.00000000e+00  0.00000000e+00  0.00000000e+00  0.00000000e+00
  0.00000000e+00  0.00000000e+00  0.00000000e+00  0.00000000e+00
  0.00000000e+00  0.00000000e+00 -9.49385770e-07  2.00214202e-07
  0.00000000e+00  0.00000000e+00  0.00000000e+00  3.74841083e-06]","[[ 0.0001645   0.00481423]
 [-0.00010599  0.00237403]]",[],0.0,0.0
1787211596.2410047,1.2171572442726097,0.9132190836010735,2.358497890395146,"[ 8.64718598e-06 -1.09483998e-07  0.00000000e+00  0.00000000e+00
  0.00000000e+00 -9.49385770e-07 -1.09483998e-07  6.31349463e-06
  0.00000000e+00  0.00000000e+00  0.00000000e+00  2.00214202e-07
  0.00000000e+00  0.00000000e+00  0.00000000e+00  0.00000000e+00
  0.00000000e+00  0.00000000e+00  0.00000000e+00  0.00000000e+00
  0.00000000e+00  0.00000000e+00  0.00000000e+00  0.00000000e+00
  0.00000000e+00  0.00000000e+00  0.00000000e+00  0.00000000e+00
  0.00000000e+00  0.00000000e+00 -9.49385770e-07  2.00214202e-07
  0.00000000e+00  0.00000000e+00  0.00000000e+00  3.74841083e-06]","[[ 0.0001645   0.00481423]
 [-0.00010599  0.00237403]]",[],0.0,0.0
1787211596.3123813,1.2171572442726097,0.9132190836010735,2.358497890395146,"[ 8.64718598e-06 -1.09483998e-07  0.00000000e+00  0.00000000e+00
  0.00000000e+00 -9.49385770e-07 -1.09483998e-07  6.31349463e-06
  0.00000000e+00  0.00000000e+00  0.00000000e+00  2.00214202e-07
  0.00000000e+00  0.00000000e+00  0.00000000e+00  0.00000000e+00
  0.00000000e+00  0.00000000e+00  0.00000000e+00  0.00000000e+00
  0.00000000e+00  0.00000000e+00  0.00000000e+00  0.00000000e+00
  0.00000000e+00  0.00000000e+00  0.00000000e+00  0.00000000e+00
  0.00000000e+00  0.00000000e+00 -9.49385770e-07  2.00214202e-07
  0.00000000e+00  0.00000000e+00  0.00000000e+00  3.74841083e-06]","[[ 0.0001645   0.00481423]
 [-0.00010599  0.00237403]]",[],0.0,0.0
1787211596.3416867,1.2171572442726097,0.9132190836010735,2.358497890395146,"[ 8.64718598e-06 -1.09483998e-07  0.00000000e+00  0.00000000e+00
  0.00000000e+00 -9.49385770e-07 -1.09483998e-07  6.31349463e-06
  0.00000000e+00  0.00000000e+00  0.00000000e+00  2.00214202e-07
  0.00000000e+00  0.00000000e+00  0.00000000e+00  0.00000000e+00
  0.00000000e+00  0.00000000e+00  0.00000000e+00  0.00000000e+00
  0.00000000e+00  0.00000000e+00  0.00000000e+00  0.00000000e+00
  0.00000000e+00  0.00000000e+00  0.00000000e+00  0.00000000e+00
  0.00000000e+00  0.00000000e+00 -9.49385770e-07  2.00214202e-07
  0.00000000e+00  0.00000000e+00  0.00000000e+00  3.74841083e-06]","[[ 0.0001645   0.00481423]
 [-0.00010599  0.00237403]]",[],0.0,0.0
1787211596.4065874,1.2226493732214414,0.9132495975208098,2.4024935868764032,"[ 7.83967536e-06 -1.98909084e-07  0.00000000e+00  0.00000000e+00
  0.00000000e+00 -8.37604399e-07 -1.98909084e-07  5.70236084e-06
  0.00000000e+00  0.00000000e+00  0.00000000e+00  9.61966402e-08
  0.00000000e+00  0.00000000e+00  0.00000000e+00  0.00000000e+00
  0.00000000e+00  0.00000000e+00  0.00000000e+00  0.00000000e+00
  0.00000000e+00  0.00000000e+00  0.00000000e+00  0.00000000e+00
  0.00000000e+00  0.00000000e+00  0.00000000e+00  0.00000000e+00
  0.00000000e+00  0.00000000e+00 -8.37604399e-07  9.61966402e-08
  0.00000000e+00  0.00000000e+00  0.00000000e+00  3.73864585e-06]","[[ 1.50740146e-04  4.28085154e-03]
 [-9.76457962e-05  2.24269271e-03]]",[],0.0,0.0
