time,x,y,yaw,cov_prop
1786943025.9693456,0.0,0.0,0.0,"[9.99990103e-03 0.00000000e+00 0.00000000e+00 0.00000000e+00
 0.00000000e+00 1.06075389e-09 0.00000000e+00 9.99990000e-03
 0.00000000e+00 0.00000000e+00 0.00000000e+00 0.00000000e+00
 0.00000000e+00 0.00000000e+00 0.00000000e+00 0.00000000e+00
 0.00000000e+00 0.00000000e+00 0.00000000e+00 0.00000000e+00
 0.00000000e+00 0.00000000e+00 0.00000000e+00 0.00000000e+00
 0.00000000e+00 0.00000000e+00 0.00000000e+00 0.00000000e+00
 0.00000000e+00 0.00000000e+00 1.06075389e-09 0.00000000e+00
 0.00000000e+00 0.00000000e+00 0.00000000e+00 9.99992155e-03]"
1786943026.0122333,0.0,0.0,0.0,"[9.99970185e-03 0.00000000e+00 0.00000000e+00 0.00000000e+00
 0.00000000e+00 1.89686644e-09 0.00000000e+00 9.99970001e-03
 0.00000000e+00 0.00000000e+00 0.00000000e+00 0.00000000e+00
 0.00000000e+00 0.00000000e+00 0.00000000e+00 0.00000000e+00
 0.00000000e+00 0.00000000e+00 0.00000000e+00 0.00000000e+00
 0.00000000e+00 0.00000000e+00 0.00000000e+00 0.00000000e+00
 0.00000000e+00 0.00000000e+00 0.00000000e+00 0.00000000e+00
 0.00000000e+00 0.00000000e+00 1.89686644e-09 0.00000000e+00
 0.00000000e+00 0.00000000e+00 0.00000000e+00 9.99973854e-03]"
1786943026.0846732,0.0,0.0,0.0,"[9.99970185e-03 0.00000000e+00 0.00000000e+00 0.00000000e+00
 0.00000000e+00 1.89686644e-09 0.00000000e+00 9.99970001e-03
 0.00000000e+00 0.00000000e+00 0.00000000e+00 0.00000000e+00
 0.00000000e+00 0.00000000e+00 0.00000000e+00 0.00000000e+00
 0.00000000e+00 0.00000000e+00 0.00000000e+00 0.00000000e+00
 0.00000000e+00 0.00000000e+00 0.00000000e+00 0.00000000e+00
 0.00000000e+00 0.00000000e+00 0.00000000e+00 0.00000000e+00
 0.00000000e+00 0.00000000e+00 1.89686644e-09 0.00000000e+00
 0.00000000e+00 0.00000000e+00 0.00000000e+00 9.99973854e-03]"
1786943026.1562078,0.0,0.0,0.0,"[9.99960434e-03 0.00000000e+00 0.00000000e+00 0.00000000e+00
 0.00000000e+00 4.44884222e-09 0.00000000e+00 9.99960002e-03
 0.00000000e+00 0.00000000e+00 0.00000000e+00 0.00000000e+00
 0.00000000e+00 0.00000000e+00 0.00000000e+00 0.00000000e+00
 0.00000000e+00 0.00000000e+00 0.00000000e+00 0.00000000e+00
 0.00000000e+00 0.00000000e+00 0.00000000e+00 0.00000000e+00
 0.00000000e+00 0.00000000e+00 0.00000000e+00 0.00000000e+00
 0.00000000e+00 0.00000000e+00 4.44884222e-09 0.00000000e+00
 0.00000000e+00 0.00000000e+00 0.00000000e+00 9.99969037e-03]"
1786943026.162029,0.0,0.0,0.0,"[9.99960434e-03 0.00000000e+00 0.00000000e+00 0.00000000e+00
 0.00000000e+00 4.44884222e-09 0.00000000e+00 9.99960002e-03
 0.00000000e+00 0.00000000e+00 0.00000000e+00 0.00000000e+00
 0.00000000e+00 0.00000000e+00 0.00000000e+00 0.00000000e+00
 0.00000000e+00 0.00000000e+00 0.00000000e+00 0.00000000e+00
 0.00000000e+00 0.00000000e+00 0.00000000e+00 0.00000000e+00
 0.00000000e+00 0.00000000e+00 0.00000000e+00 0.00000000e+00
 0.00000000e+00 0.00000000e+00 4.44884222e-09 0.00000000e+00
 0.00000000e+00 0.00000000e+00 0.00000000e+00 9.99969037e-03]"
1786943026.217287,0.0,0.0,0.0,"[9.99940670e-03 0.00000000e+00 0.00000000e+00 0.00000000e+00
 0.00000000e+00 6.85355417e-09 0.00000000e+00 9.99940004e-03
 0.00000000e+00 0.00000000e+00 0.00000000e+00 0.00000000e+00
 0.00000000e+00 0.00000000e+00 0.00000000e+00 0.00000000e+00
 0.00000000e+00 0.00000000e+00 0.00000000e+00 0.00000000e+00
 0.00000000e+00 0.00000000e+00 0.00000000e+00 0.00000000e+00
 0.00000000e+00 0.00000000e+00 0.00000000e+00 0.00000000e+00
 0.00000000e+00 0.00000000e+00 6.85355417e-09 0.00000000e+00
 0.00000000e+00 0.00000000e+00 0.00000000e+00 9.99953923e-03]"
1786943026.2720537,0.0,0.0,0.0,"[9.99920781e-03 0.00000000e+00 0.00000000e+00 0.00000000e+00
 0.00000000e+00 7.97695644e-09 0.00000000e+00 9.99920006e-03
 0.00000000e+00 0.00000000e+00 0.00000000e+00 0.00000000e+00
 0.00000000e+00 0.00000000e+00 0.00000000e+00 0.00000000e+00
 0.00000000e+00 0.00000000e+00 0.00000000e+00 0.00000000e+00
 0.00000000e+00 0.00000000e+00 0.00000000e+00 0.00000000e+00
 0.00000000e+00 0.00000000e+00 0.00000000e+00 0.00000000e+00
 0.00000000e+00 0.00000000e+00 7.97695644e-09 0.00000000e+00
 0.00000000e+00 0.00000000e+00 0.00000000e+00 9.99936208e-03]"
1786943026.3194802,0.0,0.0,0.0,"[9.99900865e-03 0.00000000e+00 0.00000000e+00 0.00000000e+00
 0.00000000e+00 8.80181595e-09 0.00000000e+00 9.99900010e-03
 0.00000000e+00 0.00000000e+00 0.00000000e+00 0.00000000e+00
 0.00000000e+00 0.00000000e+00 0.00000000e+00 0.00000000e+00
 0.00000000e+00 0.00000000e+00 0.00000000e+00 0.00000000e+00
 0.00000000e+00 0.00000000e+00 0.00000000e+00 0.00000000e+00
 0.00000000e+00 0.00000000e+00 0.00000000e+00 0.00000000e+00
 0.00000000e+00 0.00000000e+00 8.80181595e-09 0.00000000e+00
 0.00000000e+00 0.00000000e+00 0.00000000e+00 9.99917887e-03]"
1786943026.36297,0.0,0.0,0.0,"[9.99890905e-03 0.00000000e+00 0.00000000e+00 0.00000000e+00
 0.00000000e+00 9.18806639e-09 0.00000000e+00 9.99890012e-03
 0.00000000e+00 0.00000000e+00 0.00000000e+00 0.00000000e+00
 0.00000000e+00 0.00000000e+00 0.00000000e+00 0.00000000e+00
 0.00000000e+00 0.00000000e+00 0.00000000e+00 0.00000000e+00
 0.00000000e+00 0.00000000e+00 0.00000000e+00 0.00000000e+00
 0.00000000e+00 0.00000000e+00 0.00000000e+00 0.00000000e+00
 0.00000000e+00 0.00000000e+00 9.18806639e-09 0.00000000e+00
 0.00000000e+00 0.00000000e+00 0.00000000e+00 9.99908673e-03]"
1786943026.4119008,0.0,0.0,0.0,"[9.99870981e-03 0.00000000e+00 0.00000000e+00 0.00000000e+00
 0.00000000e+00 9.91732112e-09 0.00000000e+00 9.99870017e-03
 0.00000000e+00 0.00000000e+00 0.00000000e+00 0.00000000e+00
 0.00000000e+00 0.00000000e+00 0.00000000e+00 0.00000000e+00
 0.00000000e+00 0.00000000e+00 0.00000000e+00 0.00000000e+00
 0.00000000e+00 0.00000000e+00 0.00000000e+00 0.00000000e+00
 0.00000000e+00 0.00000000e+00 0.00000000e+00 0.00000000e+00
 0.00000000e+00 0.00000000e+00 9.91732112e-09 0.00000000e+00
 0.00000000e+00 0.00000000e+00 0.00000000e+00 9.99890159e-03]"
1786943026.4627113,0.0,0.0,0.0,"[9.99861026e-03 0.00000000e+00 0.00000000e+00 0.00000000e+00
 0.00000000e+00 1.03526574e-08 0.00000000e+00 9.99860020e-03
 0.00000000e+00 0.00000000e+00 0.00000000e+00 0.00000000e+00
 0.00000000e+00 0.00000000e+00 0.00000000e+00 0.00000000e+00
 0.00000000e+00 0.00000000e+00 0.00000000e+00 0.00000000e+00
 0.00000000e+00 0.00000000e+00 0.00000000e+00 0.00000000e+00
 0.00000000e+00 0.00000000e+00 0.00000000e+00 0.00000000e+00
 0.00000000e+00 0.00000000e+00 1.03526574e-08 0.00000000e+00
 0.00000000e+00 0.00000000e+00 0.00000000e+00 9.99881046e-03]"
1786943026.5124197,0.0,0.0,0.0,"[9.99841117e-03 0.00000000e+00 0.00000000e+00 0.00000000e+00
 0.00000000e+00 1.12336586e-08 0.00000000e+00 9.99840026e-03
 0.00000000e+00 0.00000000e+00 0.00000000e+00 0.00000000e+00
 0.00000000e+00 0.00000000e+00 0.00000000e+00 0.00000000e+00
 0.00000000e+00 0.00000000e+00 0.00000000e+00 0.00000000e+00
 0.00000000e+00 0.00000000e+00 0.00000000e+00 0.00000000e+00
 0.00000000e+00 0.00000000e+00 0.00000000e+00 0.00000000e+00
 0.00000000e+00 0.00000000e+00 1.12336586e-08 0.00000000e+00
 0.00000000e+00 0.00000000e+00 0.00000000e+00 9.99862842e-03]"
1786943026.5998988,0.0,0.0,0.0,"[9.99841117e-03 0.00000000e+00 0.00000000e+00 0.00000000e+00
 0.00000000e+00 1.12336586e-08 0.00000000e+00 9.99840026e-03
 0.00000000e+00 0.00000000e+00 0.00000000e+00 0.00000000e+00
 0.00000000e+00 0.00000000e+00 0.00000000e+00 0.00000000e+00
 0.00000000e+00 0.00000000e+00 0.00000000e+00 0.00000000e+00
 0.00000000e+00 0.00000000e+00 0.00000000e+00 0.00000000e+00
 0.00000000e+00 0.00000000e+00 0.00000000e+00 0.00000000e+00
 0.00000000e+00 0.00000000e+00 1.12336586e-08 0.00000000e+00
 0.00000000e+00 0.00000000e+00 0.00000000e+00 9.99862842e-03]"
1786943026.6153538,0.0,0.0,0.0,"[9.99831494e-03 0.00000000e+00 0.00000000e+00 0.00000000e+00
 0.00000000e+00 1.50796346e-08 0.00000000e+00 9.99830029e-03
 0.00000000e+00 0.00000000e+00 0.00000000e+00 0.00000000e+00
 0.00000000e+00 0.00000000e+00 0.00000000e+00 0.00000000e+00
 0.00000000e+00 0.00000000e+00 0.00000000e+00 0.00000000e+00
 0.00000000e+00 0.00000000e+00 0.00000000e+00 0.00000000e+00
 0.00000000e+00 0.00000000e+00 0.00000000e+00 0.00000000e+00
 0.00000000e+00 0.00000000e+00 1.50796346e-08 0.00000000e+00
 0.00000000e+00 0.00000000e+00 0.00000000e+00 9.99860656e-03]"
1786943026.6637254,0.0,0.0,0.0,"[9.99821536e-03 0.00000000e+00 0.00000000e+00 0.00000000e+00
 0.00000000e+00 1.54759707e-08 0.00000000e+00 9.99820032e-03
 0.00000000e+00 0.00000000e+00 0.00000000e+00 0.00000000e+00
 0.00000000e+00 0.00000000e+00 0.00000000e+00 0.00000000e+00
 0.00000000e+00 0.00000000e+00 0.00000000e+00 0.00000000e+00
 0.00000000e+00 0.00000000e+00 0.00000000e+00 0.00000000e+00
 0.00000000e+00 0.00000000e+00 0.00000000e+00 0.00000000e+00
 0.00000000e+00 0.00000000e+00 1.54759707e-08 0.00000000e+00
 0.00000000e+00 0.00000000e+00 0.00000000e+00 9.99851465e-03]"
1786943026.7224429,0.0,0.0,0.0,"[9.99801628e-03 0.00000000e+00 0.00000000e+00 0.00000000e+00
 0.00000000e+00 1.63394933e-08 0.00000000e+00 9.99800040e-03
 0.00000000e+00 0.00000000e+00 0.00000000e+00 0.00000000e+00
 0.00000000e+00 0.00000000e+00 0.00000000e+00 0.00000000e+00
 0.00000000e+00 0.00000000e+00 0.00000000e+00 0.00000000e+00
 0.00000000e+00 0.00000000e+00 0.00000000e+00 0.00000000e+00
 0.00000000e+00 0.00000000e+00 0.00000000e+00 0.00000000e+00
 0.00000000e+00 0.00000000e+00 1.63394933e-08 0.00000000e+00
 0.00000000e+00 0.00000000e+00 0.00000000e+00 9.99833226e-03]"
1786943026.762123,0.0,0.0,0.0,"[9.99791680e-03 0.00000000e+00 0.00000000e+00 0.00000000e+00
 0.00000000e+00 1.68413936e-08 0.00000000e+00 9.99790044e-03
 0.00000000e+00 0.00000000e+00 0.00000000e+00 0.00000000e+00
 0.00000000e+00 0.00000000e+00 0.00000000e+00 0.00000000e+00
 0.00000000e+00 0.00000000e+00 0.00000000e+00 0.00000000e+00
 0.00000000e+00 0.00000000e+00 0.00000000e+00 0.00000000e+00
 0.00000000e+00 0.00000000e+00 0.00000000e+00 0.00000000e+00
 0.00000000e+00 0.00000000e+00 1.68413936e-08 0.00000000e+00
 0.00000000e+00 0.00000000e+00 0.00000000e+00 9.99824250e-03]"
1786943026.8122637,0.0,0.0,0.0,"[9.99771771e-03 0.00000000e+00 0.00000000e+00 0.00000000e+00
 0.00000000e+00 1.76853053e-08 0.00000000e+00 9.99770053e-03
 0.00000000e+00 0.00000000e+00 0.00000000e+00 0.00000000e+00
 0.00000000e+00 0.00000000e+00 0.00000000e+00 0.00000000e+00
 0.00000000e+00 0.00000000e+00 0.00000000e+00 0.00000000e+00
 0.00000000e+00 0.00000000e+00 0.00000000e+00 0.00000000e+00
 0.00000000e+00 0.00000000e+00 0.00000000e+00 0.00000000e+00
 0.00000000e+00 0.00000000e+00 1.76853053e-08 0.00000000e+00
 0.00000000e+00 0.00000000e+00 0.00000000e+00 9.99805973e-03]"
1786943026.8633497,0.0,0.0,0.0,"[9.99761812e-03 0.00000000e+00 0.00000000e+00 0.00000000e+00
 0.00000000e+00 1.80606831e-08 0.00000000e+00 9.99760058e-03
 0.00000000e+00 0.00000000e+00 0.00000000e+00 0.00000000e+00
 0.00000000e+00 0.00000000e+00 0.00000000e+00 0.00000000e+00
 0.00000000e+00 0.00000000e+00 0.00000000e+00 0.00000000e+00
 0.00000000e+00 0.00000000e+00 0.00000000e+00 0.00000000e+00
 0.00000000e+00 0.00000000e+00 0.00000000e+00 0.00000000e+00
 0.00000000e+00 0.00000000e+00 1.80606831e-08 0.00000000e+00
 0.00000000e+00 0.00000000e+00 0.00000000e+00 9.99796740e-03]"
1786943026.9167507,0.0,0.0,0.0,"[9.99741918e-03 0.00000000e+00 0.00000000e+00 0.00000000e+00
 0.00000000e+00 1.90407449e-08 0.00000000e+00 9.99740068e-03
 0.00000000e+00 0.00000000e+00 0.00000000e+00 0.00000000e+00
 0.00000000e+00 0.00000000e+00 0.00000000e+00 0.00000000e+00
 0.00000000e+00 0.00000000e+00 0.00000000e+00 0.00000000e+00
 0.00000000e+00 0.00000000e+00 0.00000000e+00 0.00000000e+00
 0.00000000e+00 0.00000000e+00 0.00000000e+00 0.00000000e+00
 0.00000000e+00 0.00000000e+00 1.90407449e-08 0.00000000e+00
 0.00000000e+00 0.00000000e+00 0.00000000e+00 9.99778740e-03]"
1786943026.962417,0.0,0.0,0.0,"[9.99731971e-03 0.00000000e+00 0.00000000e+00 0.00000000e+00
 0.00000000e+00 1.95354142e-08 0.00000000e+00 9.99730073e-03
 0.00000000e+00 0.00000000e+00 0.00000000e+00 0.00000000e+00
 0.00000000e+00 0.00000000e+00 0.00000000e+00 0.00000000e+00
 0.00000000e+00 0.00000000e+00 0.00000000e+00 0.00000000e+00
 0.00000000e+00 0.00000000e+00 0.00000000e+00 0.00000000e+00
 0.00000000e+00 0.00000000e+00 0.00000000e+00 0.00000000e+00
 0.00000000e+00 0.00000000e+00 1.95354142e-08 0.00000000e+00
 0.00000000e+00 0.00000000e+00 0.00000000e+00 9.99769750e-03]"
1786943027.014252,0.0,0.0,0.0,"[9.99712052e-03 0.00000000e+00 0.00000000e+00 0.00000000e+00
 0.00000000e+00 2.02494533e-08 0.00000000e+00 9.99710084e-03
 0.00000000e+00 0.00000000e+00 0.00000000e+00 0.00000000e+00
 0.00000000e+00 0.00000000e+00 0.00000000e+00 0.00000000e+00
 0.00000000e+00 0.00000000e+00 0.00000000e+00 0.00000000e+00
 0.00000000e+00 0.00000000e+00 0.00000000e+00 0.00000000e+00
 0.00000000e+00 0.00000000e+00 0.00000000e+00 0.00000000e+00
 0.00000000e+00 0.00000000e+00 2.02494533e-08 0.00000000e+00
 0.00000000e+00 0.00000000e+00 0.00000000e+00 9.99751212e-03]"
1786943027.0722306,0.0,0.0,0.0,"[9.99702096e-03 0.00000000e+00 0.00000000e+00 0.00000000e+00
 0.00000000e+00 2.06471843e-08 0.00000000e+00 9.99700090e-03
 0.00000000e+00 0.00000000e+00 0.00000000e+00 0.00000000e+00
 0.00000000e+00 0.00000000e+00 0.00000000e+00 0.00000000e+00
 0.00000000e+00 0.00000000e+00 0.00000000e+00 0.00000000e+00
 0.00000000e+00 0.00000000e+00 0.00000000e+00 0.00000000e+00
 0.00000000e+00 0.00000000e+00 0.00000000e+00 0.00000000e+00
 0.00000000e+00 0.00000000e+00 2.06471843e-08 0.00000000e+00
 0.00000000e+00 0.00000000e+00 0.00000000e+00 9.99742025e-03]"
1786943027.1123345,0.0,0.0,0.0,"[9.99682195e-03 0.00000000e+00 0.00000000e+00 0.00000000e+00
 0.00000000e+00 2.15403808e-08 0.00000000e+00 9.99680102e-03
 0.00000000e+00 0.00000000e+00 0.00000000e+00 0.00000000e+00
 0.00000000e+00 0.00000000e+00 0.00000000e+00 0.00000000e+00
 0.00000000e+00 0.00000000e+00 0.00000000e+00 0.00000000e+00
 0.00000000e+00 0.00000000e+00 0.00000000e+00 0.00000000e+00
 0.00000000e+00 0.00000000e+00 0.00000000e+00 0.00000000e+00
 0.00000000e+00 0.00000000e+00 2.15403808e-08 0.00000000e+00
 0.00000000e+00 0.00000000e+00 0.00000000e+00 9.99723852e-03]"
1786943027.1752152,0.0,0.0,0.0,"[9.99672243e-03 0.00000000e+00 0.00000000e+00 0.00000000e+00
 0.00000000e+00 2.19687211e-08 0.00000000e+00 9.99670109e-03
 0.00000000e+00 0.00000000e+00 0.00000000e+00 0.00000000e+00
 0.00000000e+00 0.00000000e+00 0.00000000e+00 0.00000000e+00
 0.00000000e+00 0.00000000e+00 0.00000000e+00 0.00000000e+00
 0.00000000e+00 0.00000000e+00 0.00000000e+00 0.00000000e+00
 0.00000000e+00 0.00000000e+00 0.00000000e+00 0.00000000e+00
 0.00000000e+00 0.00000000e+00 2.19687211e-08 0.00000000e+00
 0.00000000e+00 0.00000000e+00 0.00000000e+00 9.99714728e-03]"
1786943027.2134533,0.0,0.0,0.0,"[9.99652348e-03 0.00000000e+00 0.00000000e+00 0.00000000e+00
 0.00000000e+00 2.29060034e-08 0.00000000e+00 9.99650122e-03
 0.00000000e+00 0.00000000e+00 0.00000000e+00 0.00000000e+00
 0.00000000e+00 0.00000000e+00 0.00000000e+00 0.00000000e+00
 0.00000000e+00 0.00000000e+00 0.00000000e+00 0.00000000e+00
 0.00000000e+00 0.00000000e+00 0.00000000e+00 0.00000000e+00
 0.00000000e+00 0.00000000e+00 0.00000000e+00 0.00000000e+00
 0.00000000e+00 0.00000000e+00 2.29060034e-08 0.00000000e+00
 0.00000000e+00 0.00000000e+00 0.00000000e+00 9.99696646e-03]"
1786943027.2645488,0.0,0.0,0.0,"[9.99642402e-03 0.00000000e+00 0.00000000e+00 0.00000000e+00
 0.00000000e+00 2.33846189e-08 0.00000000e+00 9.99640130e-03
 0.00000000e+00 0.00000000e+00 0.00000000e+00 0.00000000e+00
 0.00000000e+00 0.00000000e+00 0.00000000e+00 0.00000000e+00
 0.00000000e+00 0.00000000e+00 0.00000000e+00 0.00000000e+00
 0.00000000e+00 0.00000000e+00 0.00000000e+00 0.00000000e+00
 0.00000000e+00 0.00000000e+00 0.00000000e+00 0.00000000e+00
 0.00000000e+00 0.00000000e+00 2.33846189e-08 0.00000000e+00
 0.00000000e+00 0.00000000e+00 0.00000000e+00 9.99687625e-03]"
1786943027.3122764,0.0,0.0,0.0,"[9.99622498e-03 0.00000000e+00 0.00000000e+00 0.00000000e+00
 0.00000000e+00 2.42221646e-08 0.00000000e+00 9.99620144e-03
 0.00000000e+00 0.00000000e+00 0.00000000e+00 0.00000000e+00
 0.00000000e+00 0.00000000e+00 0.00000000e+00 0.00000000e+00
 0.00000000e+00 0.00000000e+00 0.00000000e+00 0.00000000e+00
 0.00000000e+00 0.00000000e+00 0.00000000e+00 0.00000000e+00
 0.00000000e+00 0.00000000e+00 0.00000000e+00 0.00000000e+00
 0.00000000e+00 0.00000000e+00 2.42221646e-08 0.00000000e+00
 0.00000000e+00 0.00000000e+00 0.00000000e+00 9.99669341e-03]"
1786943027.3681705,0.0,0.0,0.0,"[9.99612545e-03 0.00000000e+00 0.00000000e+00 0.00000000e+00
 0.00000000e+00 2.46329186e-08 0.00000000e+00 9.99610152e-03
 0.00000000e+00 0.00000000e+00 0.00000000e+00 0.00000000e+00
 0.00000000e+00 0.00000000e+00 0.00000000e+00 0.00000000e+00
 0.00000000e+00 0.00000000e+00 0.00000000e+00 0.00000000e+00
 0.00000000e+00 0.00000000e+00 0.00000000e+00 0.00000000e+00
 0.00000000e+00 0.00000000e+00 0.00000000e+00 0.00000000e+00
 0.00000000e+00 0.00000000e+00 2.46329186e-08 0.00000000e+00
 0.00000000e+00 0.00000000e+00 0.00000000e+00 9.99660183e-03]"
1786943027.4175735,0.0,0.0,0.0,"[9.99602595e-03 0.00000000e+00 0.00000000e+00 0.00000000e+00
 0.00000000e+00 2.50593640e-08 0.00000000e+00 9.99600160e-03
 0.00000000e+00 0.00000000e+00 0.00000000e+00 0.00000000e+00
 0.00000000e+00 0.00000000e+00 0.00000000e+00 0.00000000e+00
 0.00000000e+00 0.00000000e+00 0.00000000e+00 0.00000000e+00
 0.00000000e+00 0.00000000e+00 0.00000000e+00 0.00000000e+00
 0.00000000e+00 0.00000000e+00 0.00000000e+00 0.00000000e+00
 0.00000000e+00 0.00000000e+00 2.50593640e-08 0.00000000e+00
 0.00000000e+00 0.00000000e+00 0.00000000e+00 9.99651057e-03]"
1786943027.4663985,0.0,0.0,0.0,"[9.99582715e-03 0.00000000e+00 0.00000000e+00 0.00000000e+00
 0.00000000e+00 2.61318474e-08 0.00000000e+00 9.99580176e-03
 0.00000000e+00 0.00000000e+00 0.00000000e+00 0.00000000e+00
 0.00000000e+00 0.00000000e+00 0.00000000e+00 0.00000000e+00
 0.00000000e+00 0.00000000e+00 0.00000000e+00 0.00000000e+00
 0.00000000e+00 0.00000000e+00 0.00000000e+00 0.00000000e+00
 0.00000000e+00 0.00000000e+00 0.00000000e+00 0.00000000e+00
 0.00000000e+00 0.00000000e+00 2.61318474e-08 0.00000000e+00
 0.00000000e+00 0.00000000e+00 0.00000000e+00 9.99633251e-03]"
1786943027.511977,0.0,0.0,0.0,"[9.99562815e-03 0.00000000e+00 0.00000000e+00 0.00000000e+00
 0.00000000e+00 2.69770139e-08 0.00000000e+00 9.99560194e-03
 0.00000000e+00 0.00000000e+00 0.00000000e+00 0.00000000e+00
 0.00000000e+00 0.00000000e+00 0.00000000e+00 0.00000000e+00
 0.00000000e+00 0.00000000e+00 0.00000000e+00 0.00000000e+00
 0.00000000e+00 0.00000000e+00 0.00000000e+00 0.00000000e+00
 0.00000000e+00 0.00000000e+00 0.00000000e+00 0.00000000e+00
 0.00000000e+00 0.00000000e+00 2.69770139e-08 0.00000000e+00
 0.00000000e+00 0.00000000e+00 0.00000000e+00 9.99614985e-03]"
1786943027.5650673,0.0,0.0,0.0,"[9.99552855e-03 0.00000000e+00 0.00000000e+00 0.00000000e+00
 0.00000000e+00 2.73019581e-08 0.00000000e+00 9.99550202e-03
 0.00000000e+00 0.00000000e+00 0.00000000e+00 0.00000000e+00
 0.00000000e+00 0.00000000e+00 0.00000000e+00 0.00000000e+00
 0.00000000e+00 0.00000000e+00 0.00000000e+00 0.00000000e+00
 0.00000000e+00 0.00000000e+00 0.00000000e+00 0.00000000e+00
 0.00000000e+00 0.00000000e+00 0.00000000e+00 0.00000000e+00
 0.00000000e+00 0.00000000e+00 2.73019581e-08 0.00000000e+00
 0.00000000e+00 0.00000000e+00 0.00000000e+00 9.99605654e-03]"
1786943027.6229732,0.0,0.0,0.0,"[9.99542905e-03 0.00000000e+00 0.00000000e+00 0.00000000e+00
 0.00000000e+00 2.77250074e-08 0.00000000e+00 9.99540212e-03
 0.00000000e+00 0.00000000e+00 0.00000000e+00 0.00000000e+00
 0.00000000e+00 0.00000000e+00 0.00000000e+00 0.00000000e+00
 0.00000000e+00 0.00000000e+00 0.00000000e+00 0.00000000e+00
 0.00000000e+00 0.00000000e+00 0.00000000e+00 0.00000000e+00
 0.00000000e+00 0.00000000e+00 0.00000000e+00 0.00000000e+00
 0.00000000e+00 0.00000000e+00 2.77250074e-08 0.00000000e+00
 0.00000000e+00 0.00000000e+00 0.00000000e+00 9.99596522e-03]"
1786943027.66988,0.0,0.0,0.0,"[9.99523048e-03 0.00000000e+00 0.00000000e+00 0.00000000e+00
 0.00000000e+00 2.89955773e-08 0.00000000e+00 9.99520230e-03
 0.00000000e+00 0.00000000e+00 0.00000000e+00 0.00000000e+00
 0.00000000e+00 0.00000000e+00 0.00000000e+00 0.00000000e+00
 0.00000000e+00 0.00000000e+00 0.00000000e+00 0.00000000e+00
 0.00000000e+00 0.00000000e+00 0.00000000e+00 0.00000000e+00
 0.00000000e+00 0.00000000e+00 0.00000000e+00 0.00000000e+00
 0.00000000e+00 0.00000000e+00 2.89955773e-08 0.00000000e+00
 0.00000000e+00 0.00000000e+00 0.00000000e+00 9.99579122e-03]"
1786943027.7239027,0.0,0.0,0.0,"[9.99503145e-03 0.00000000e+00 0.00000000e+00 0.00000000e+00
 0.00000000e+00 2.97976508e-08 0.00000000e+00 9.99500250e-03
 0.00000000e+00 0.00000000e+00 0.00000000e+00 0.00000000e+00
 0.00000000e+00 0.00000000e+00 0.00000000e+00 0.00000000e+00
 0.00000000e+00 0.00000000e+00 0.00000000e+00 0.00000000e+00
 0.00000000e+00 0.00000000e+00 0.00000000e+00 0.00000000e+00
 0.00000000e+00 0.00000000e+00 0.00000000e+00 0.00000000e+00
 0.00000000e+00 0.00000000e+00 2.97976508e-08 0.00000000e+00
 0.00000000e+00 0.00000000e+00 0.00000000e+00 9.99560770e-03]"
1786943027.7638383,0.0,0.0,0.0,"[9.99493200e-03 0.00000000e+00 0.00000000e+00 0.00000000e+00
 0.00000000e+00 3.02540717e-08 0.00000000e+00 9.99490260e-03
 0.00000000e+00 0.00000000e+00 0.00000000e+00 0.00000000e+00
 0.00000000e+00 0.00000000e+00 0.00000000e+00 0.00000000e+00
 0.00000000e+00 0.00000000e+00 0.00000000e+00 0.00000000e+00
 0.00000000e+00 0.00000000e+00 0.00000000e+00 0.00000000e+00
 0.00000000e+00 0.00000000e+00 0.00000000e+00 0.00000000e+00
 0.00000000e+00 0.00000000e+00 3.02540717e-08 0.00000000e+00
 0.00000000e+00 0.00000000e+00 0.00000000e+00 9.99551707e-03]"
1786943027.8137193,0.0,0.0,0.0,"[9.99473304e-03 0.00000000e+00 0.00000000e+00 0.00000000e+00
 0.00000000e+00 3.11167328e-08 0.00000000e+00 9.99470281e-03
 0.00000000e+00 0.00000000e+00 0.00000000e+00 0.00000000e+00
 0.00000000e+00 0.00000000e+00 0.00000000e+00 0.00000000e+00
 0.00000000e+00 0.00000000e+00 0.00000000e+00 0.00000000e+00
 0.00000000e+00 0.00000000e+00 0.00000000e+00 0.00000000e+00
 0.00000000e+00 0.00000000e+00 0.00000000e+00 0.00000000e+00
 0.00000000e+00 0.00000000e+00 3.11167328e-08 0.00000000e+00
 0.00000000e+00 0.00000000e+00 0.00000000e+00 9.99533480e-03]"
1786943027.8649397,0.0,0.0,0.0,"[9.99463363e-03 0.00000000e+00 0.00000000e+00 0.00000000e+00
 0.00000000e+00 3.16106235e-08 0.00000000e+00 9.99460291e-03
 0.00000000e+00 0.00000000e+00 0.00000000e+00 0.00000000e+00
 0.00000000e+00 0.00000000e+00 0.00000000e+00 0.00000000e+00
 0.00000000e+00 0.00000000e+00 0.00000000e+00 0.00000000e+00
 0.00000000e+00 0.00000000e+00 0.00000000e+00 0.00000000e+00
 0.00000000e+00 0.00000000e+00 0.00000000e+00 0.00000000e+00
 0.00000000e+00 0.00000000e+00 3.16106235e-08 0.00000000e+00
 0.00000000e+00 0.00000000e+00 0.00000000e+00 9.99524494e-03]"
1786943027.9209774,0.0,0.0,0.0,"[9.99453413e-03 0.00000000e+00 0.00000000e+00 0.00000000e+00
 0.00000000e+00 3.20099676e-08 0.00000000e+00 9.99450302e-03
 0.00000000e+00 0.00000000e+00 0.00000000e+00 0.00000000e+00
 0.00000000e+00 0.00000000e+00 0.00000000e+00 0.00000000e+00
 0.00000000e+00 0.00000000e+00 0.00000000e+00 0.00000000e+00
 0.00000000e+00 0.00000000e+00 0.00000000e+00 0.00000000e+00
 0.00000000e+00 0.00000000e+00 0.00000000e+00 0.00000000e+00
 0.00000000e+00 0.00000000e+00 3.20099676e-08 0.00000000e+00
 0.00000000e+00 0.00000000e+00 0.00000000e+00 9.99515316e-03]"
1786943027.9638898,0.0,0.0,0.0,"[9.99433538e-03 0.00000000e+00 0.00000000e+00 0.00000000e+00
 0.00000000e+00 3.30684143e-08 0.00000000e+00 9.99430325e-03
 0.00000000e+00 0.00000000e+00 0.00000000e+00 0.00000000e+00
 0.00000000e+00 0.00000000e+00 0.00000000e+00 0.00000000e+00
 0.00000000e+00 0.00000000e+00 0.00000000e+00 0.00000000e+00
 0.00000000e+00 0.00000000e+00 0.00000000e+00 0.00000000e+00
 0.00000000e+00 0.00000000e+00 0.00000000e+00 0.00000000e+00
 0.00000000e+00 0.00000000e+00 3.30684143e-08 0.00000000e+00
 0.00000000e+00 0.00000000e+00 0.00000000e+00 9.99497488e-03]"
1786943028.0141428,0.0,0.0,0.0,"[9.99413653e-03 0.00000000e+00 0.00000000e+00 0.00000000e+00
 0.00000000e+00 3.40149001e-08 0.00000000e+00 9.99410348e-03
 0.00000000e+00 0.00000000e+00 0.00000000e+00 0.00000000e+00
 0.00000000e+00 0.00000000e+00 0.00000000e+00 0.00000000e+00
 0.00000000e+00 0.00000000e+00 0.00000000e+00 0.00000000e+00
 0.00000000e+00 0.00000000e+00 0.00000000e+00 0.00000000e+00
 0.00000000e+00 0.00000000e+00 0.00000000e+00 0.00000000e+00
 0.00000000e+00 0.00000000e+00 3.40149001e-08 0.00000000e+00
 0.00000000e+00 0.00000000e+00 0.00000000e+00 9.99479434e-03]"
1786943028.0623715,0.0,0.0,0.0,"[9.99403702e-03 0.00000000e+00 0.00000000e+00 0.00000000e+00
 0.00000000e+00 3.43998398e-08 0.00000000e+00 9.99400360e-03
 0.00000000e+00 0.00000000e+00 0.00000000e+00 0.00000000e+00
 0.00000000e+00 0.00000000e+00 0.00000000e+00 0.00000000e+00
 0.00000000e+00 0.00000000e+00 0.00000000e+00 0.00000000e+00
 0.00000000e+00 0.00000000e+00 0.00000000e+00 0.00000000e+00
 0.00000000e+00 0.00000000e+00 0.00000000e+00 0.00000000e+00
 0.00000000e+00 0.00000000e+00 3.43998398e-08 0.00000000e+00
 0.00000000e+00 0.00000000e+00 0.00000000e+00 9.99470227e-03]"
1786943028.112281,0.0,0.0,0.0,"[9.99383809e-03 0.00000000e+00 0.00000000e+00 0.00000000e+00
 0.00000000e+00 3.52429557e-08 0.00000000e+00 9.99380384e-03
 0.00000000e+00 0.00000000e+00 0.00000000e+00 0.00000000e+00
 0.00000000e+00 0.00000000e+00 0.00000000e+00 0.00000000e+00
 0.00000000e+00 0.00000000e+00 0.00000000e+00 0.00000000e+00
 0.00000000e+00 0.00000000e+00 0.00000000e+00 0.00000000e+00
 0.00000000e+00 0.00000000e+00 0.00000000e+00 0.00000000e+00
 0.00000000e+00 0.00000000e+00 3.52429557e-08 0.00000000e+00
 0.00000000e+00 0.00000000e+00 0.00000000e+00 9.99451964e-03]"
1786943028.1739419,0.0,0.0,0.0,"[9.99373860e-03 0.00000000e+00 0.00000000e+00 0.00000000e+00
 0.00000000e+00 3.56420705e-08 0.00000000e+00 9.99370397e-03
 0.00000000e+00 0.00000000e+00 0.00000000e+00 0.00000000e+00
 0.00000000e+00 0.00000000e+00 0.00000000e+00 0.00000000e+00
 0.00000000e+00 0.00000000e+00 0.00000000e+00 0.00000000e+00
 0.00000000e+00 0.00000000e+00 0.00000000e+00 0.00000000e+00
 0.00000000e+00 0.00000000e+00 0.00000000e+00 0.00000000e+00
 0.00000000e+00 0.00000000e+00 3.56420705e-08 0.00000000e+00
 0.00000000e+00 0.00000000e+00 0.00000000e+00 9.99442787e-03]"
1786943028.2123098,0.0,0.0,0.0,"[9.99363940e-03 0.00000000e+00 0.00000000e+00 0.00000000e+00
 0.00000000e+00 3.63322960e-08 0.00000000e+00 9.99360409e-03
 0.00000000e+00 0.00000000e+00 0.00000000e+00 0.00000000e+00
 0.00000000e+00 0.00000000e+00 0.00000000e+00 0.00000000e+00
 0.00000000e+00 0.00000000e+00 0.00000000e+00 0.00000000e+00
 0.00000000e+00 0.00000000e+00 0.00000000e+00 0.00000000e+00
 0.00000000e+00 0.00000000e+00 0.00000000e+00 0.00000000e+00
 0.00000000e+00 0.00000000e+00 3.63322960e-08 0.00000000e+00
 0.00000000e+00 0.00000000e+00 0.00000000e+00 9.99434202e-03]"
1786943028.2634199,0.0,0.0,0.0,"[9.99344034e-03 0.00000000e+00 0.00000000e+00 0.00000000e+00
 0.00000000e+00 3.70400284e-08 0.00000000e+00 9.99340435e-03
 0.00000000e+00 0.00000000e+00 0.00000000e+00 0.00000000e+00
 0.00000000e+00 0.00000000e+00 0.00000000e+00 0.00000000e+00
 0.00000000e+00 0.00000000e+00 0.00000000e+00 0.00000000e+00
 0.00000000e+00 0.00000000e+00 0.00000000e+00 0.00000000e+00
 0.00000000e+00 0.00000000e+00 0.00000000e+00 0.00000000e+00
 0.00000000e+00 0.00000000e+00 3.70400284e-08 0.00000000e+00
 0.00000000e+00 0.00000000e+00 0.00000000e+00 9.99415665e-03]"
1786943028.3123436,0.0,0.0,0.0,"[9.99324145e-03 0.00000000e+00 0.00000000e+00 0.00000000e+00
 0.00000000e+00 3.79084974e-08 0.00000000e+00 9.99320462e-03
 0.00000000e+00 0.00000000e+00 0.00000000e+00 0.00000000e+00
 0.00000000e+00 0.00000000e+00 0.00000000e+00 0.00000000e+00
 0.00000000e+00 0.00000000e+00 0.00000000e+00 0.00000000e+00
 0.00000000e+00 0.00000000e+00 0.00000000e+00 0.00000000e+00
 0.00000000e+00 0.00000000e+00 0.00000000e+00 0.00000000e+00
 0.00000000e+00 0.00000000e+00 3.79084974e-08 0.00000000e+00
 0.00000000e+00 0.00000000e+00 0.00000000e+00 9.99397456e-03]"
1786943028.363145,0.0,0.0,0.0,"[9.99314198e-03 0.00000000e+00 0.00000000e+00 0.00000000e+00
 0.00000000e+00 3.83118046e-08 0.00000000e+00 9.99310476e-03
 0.00000000e+00 0.00000000e+00 0.00000000e+00 0.00000000e+00
 0.00000000e+00 0.00000000e+00 0.00000000e+00 0.00000000e+00
 0.00000000e+00 0.00000000e+00 0.00000000e+00 0.00000000e+00
 0.00000000e+00 0.00000000e+00 0.00000000e+00 0.00000000e+00
 0.00000000e+00 0.00000000e+00 0.00000000e+00 0.00000000e+00
 0.00000000e+00 0.00000000e+00 3.83118046e-08 0.00000000e+00
 0.00000000e+00 0.00000000e+00 0.00000000e+00 9.99388289e-03]"
1786943028.4173517,0.0,0.0,0.0,"[9.99294310e-03 0.00000000e+00 0.00000000e+00 0.00000000e+00
 0.00000000e+00 3.91750717e-08 0.00000000e+00 9.99290504e-03
 0.00000000e+00 0.00000000e+00 0.00000000e+00 0.00000000e+00
 0.00000000e+00 0.00000000e+00 0.00000000e+00 0.00000000e+00
 0.00000000e+00 0.00000000e+00 0.00000000e+00 0.00000000e+00
 0.00000000e+00 0.00000000e+00 0.00000000e+00 0.00000000e+00
 0.00000000e+00 0.00000000e+00 0.00000000e+00 0.00000000e+00
 0.00000000e+00 0.00000000e+00 3.91750717e-08 0.00000000e+00
 0.00000000e+00 0.00000000e+00 0.00000000e+00 9.99370070e-03]"
1786943028.46197,0.0,0.0,0.0,"[9.99284364e-03 0.00000000e+00 0.00000000e+00 0.00000000e+00
 0.00000000e+00 3.95836438e-08 0.00000000e+00 9.99280518e-03
 0.00000000e+00 0.00000000e+00 0.00000000e+00 0.00000000e+00
 0.00000000e+00 0.00000000e+00 0.00000000e+00 0.00000000e+00
 0.00000000e+00 0.00000000e+00 0.00000000e+00 0.00000000e+00
 0.00000000e+00 0.00000000e+00 0.00000000e+00 0.00000000e+00
 0.00000000e+00 0.00000000e+00 0.00000000e+00 0.00000000e+00
 0.00000000e+00 0.00000000e+00 3.95836438e-08 0.00000000e+00
 0.00000000e+00 0.00000000e+00 0.00000000e+00 9.99360914e-03]"
1786943028.5127373,0.0,0.0,0.0,"[9.99264481e-03 0.00000000e+00 0.00000000e+00 0.00000000e+00
 0.00000000e+00 4.04878603e-08 0.00000000e+00 9.99260547e-03
 0.00000000e+00 0.00000000e+00 0.00000000e+00 0.00000000e+00
 0.00000000e+00 0.00000000e+00 0.00000000e+00 0.00000000e+00
 0.00000000e+00 0.00000000e+00 0.00000000e+00 0.00000000e+00
 0.00000000e+00 0.00000000e+00 0.00000000e+00 0.00000000e+00
 0.00000000e+00 0.00000000e+00 0.00000000e+00 0.00000000e+00
 0.00000000e+00 0.00000000e+00 4.04878603e-08 0.00000000e+00
 0.00000000e+00 0.00000000e+00 0.00000000e+00 9.99342780e-03]"
1786943028.5631614,0.0,0.0,0.0,"[9.99254531e-03 0.00000000e+00 0.00000000e+00 0.00000000e+00
 0.00000000e+00 4.08511856e-08 0.00000000e+00 9.99250562e-03
 0.00000000e+00 0.00000000e+00 0.00000000e+00 0.00000000e+00
 0.00000000e+00 0.00000000e+00 0.00000000e+00 0.00000000e+00
 0.00000000e+00 0.00000000e+00 0.00000000e+00 0.00000000e+00
 0.00000000e+00 0.00000000e+00 0.00000000e+00 0.00000000e+00
 0.00000000e+00 0.00000000e+00 0.00000000e+00 0.00000000e+00
 0.00000000e+00 0.00000000e+00 4.08511856e-08 0.00000000e+00
 0.00000000e+00 0.00000000e+00 0.00000000e+00 9.99333533e-03]"
1786943028.6162193,0.0,0.0,0.0,"[9.99244588e-03 0.00000000e+00 0.00000000e+00 0.00000000e+00
 0.00000000e+00 4.12797338e-08 0.00000000e+00 9.99240577e-03
 0.00000000e+00 0.00000000e+00 0.00000000e+00 0.00000000e+00
 0.00000000e+00 0.00000000e+00 0.00000000e+00 0.00000000e+00
 0.00000000e+00 0.00000000e+00 0.00000000e+00 0.00000000e+00
 0.00000000e+00 0.00000000e+00 0.00000000e+00 0.00000000e+00
 0.00000000e+00 0.00000000e+00 0.00000000e+00 0.00000000e+00
 0.00000000e+00 0.00000000e+00 4.12797338e-08 0.00000000e+00
 0.00000000e+00 0.00000000e+00 0.00000000e+00 9.99324418e-03]"
1786943028.6757045,0.0,0.0,0.0,"[9.99224717e-03 0.00000000e+00 0.00000000e+00 0.00000000e+00
 0.00000000e+00 4.22934643e-08 0.00000000e+00 9.99220608e-03
 0.00000000e+00 0.00000000e+00 0.00000000e+00 0.00000000e+00
 0.00000000e+00 0.00000000e+00 0.00000000e+00 0.00000000e+00
 0.00000000e+00 0.00000000e+00 0.00000000e+00 0.00000000e+00
 0.00000000e+00 0.00000000e+00 0.00000000e+00 0.00000000e+00
 0.00000000e+00 0.00000000e+00 0.00000000e+00 0.00000000e+00
 0.00000000e+00 0.00000000e+00 4.22934643e-08 0.00000000e+00
 0.00000000e+00 0.00000000e+00 0.00000000e+00 9.99306508e-03]"
1786943028.7121859,0.0,0.0,0.0,"[9.99204838e-03 0.00000000e+00 0.00000000e+00 0.00000000e+00
 0.00000000e+00 4.32085474e-08 0.00000000e+00 9.99200639e-03
 0.00000000e+00 0.00000000e+00 0.00000000e+00 0.00000000e+00
 0.00000000e+00 0.00000000e+00 0.00000000e+00 0.00000000e+00
 0.00000000e+00 0.00000000e+00 0.00000000e+00 0.00000000e+00
 0.00000000e+00 0.00000000e+00 0.00000000e+00 0.00000000e+00
 0.00000000e+00 0.00000000e+00 0.00000000e+00 0.00000000e+00
 0.00000000e+00 0.00000000e+00 4.32085474e-08 0.00000000e+00
 0.00000000e+00 0.00000000e+00 0.00000000e+00 9.99288398e-03]"
1786943028.7626424,0.0,0.0,0.0,"[9.99194894e-03 0.00000000e+00 0.00000000e+00 0.00000000e+00
 0.00000000e+00 4.36255219e-08 0.00000000e+00 9.99190656e-03
 0.00000000e+00 0.00000000e+00 0.00000000e+00 0.00000000e+00
 0.00000000e+00 0.00000000e+00 0.00000000e+00 0.00000000e+00
 0.00000000e+00 0.00000000e+00 0.00000000e+00 0.00000000e+00
 0.00000000e+00 0.00000000e+00 0.00000000e+00 0.00000000e+00
 0.00000000e+00 0.00000000e+00 0.00000000e+00 0.00000000e+00
 0.00000000e+00 0.00000000e+00 4.36255219e-08 0.00000000e+00
 0.00000000e+00 0.00000000e+00 0.00000000e+00 9.99279261e-03]"
1786943028.812859,0.0,0.0,0.0,"[9.99175015e-03 0.00000000e+00 0.00000000e+00 0.00000000e+00
 0.00000000e+00 4.45299122e-08 0.00000000e+00 9.99170688e-03
 0.00000000e+00 0.00000000e+00 0.00000000e+00 0.00000000e+00
 0.00000000e+00 0.00000000e+00 0.00000000e+00 0.00000000e+00
 0.00000000e+00 0.00000000e+00 0.00000000e+00 0.00000000e+00
 0.00000000e+00 0.00000000e+00 0.00000000e+00 0.00000000e+00
 0.00000000e+00 0.00000000e+00 0.00000000e+00 0.00000000e+00
 0.00000000e+00 0.00000000e+00 4.45299122e-08 0.00000000e+00
 0.00000000e+00 0.00000000e+00 0.00000000e+00 9.99261131e-03]"
1786943028.8622286,0.0,0.0,0.0,"[9.99165092e-03 0.00000000e+00 0.00000000e+00 0.00000000e+00
 0.00000000e+00 4.51494125e-08 0.00000000e+00 9.99160705e-03
 0.00000000e+00 0.00000000e+00 0.00000000e+00 0.00000000e+00
 0.00000000e+00 0.00000000e+00 0.00000000e+00 0.00000000e+00
 0.00000000e+00 0.00000000e+00 0.00000000e+00 0.00000000e+00
 0.00000000e+00 0.00000000e+00 0.00000000e+00 0.00000000e+00
 0.00000000e+00 0.00000000e+00 0.00000000e+00 0.00000000e+00
 0.00000000e+00 0.00000000e+00 4.51494125e-08 0.00000000e+00
 0.00000000e+00 0.00000000e+00 0.00000000e+00 9.99252405e-03]"
1786943028.9139943,0.0,0.0,0.0,"[9.99145197e-03 0.00000000e+00 0.00000000e+00 0.00000000e+00
 0.00000000e+00 4.58810274e-08 0.00000000e+00 9.99140739e-03
 0.00000000e+00 0.00000000e+00 0.00000000e+00 0.00000000e+00
 0.00000000e+00 0.00000000e+00 0.00000000e+00 0.00000000e+00
 0.00000000e+00 0.00000000e+00 0.00000000e+00 0.00000000e+00
 0.00000000e+00 0.00000000e+00 0.00000000e+00 0.00000000e+00
 0.00000000e+00 0.00000000e+00 0.00000000e+00 0.00000000e+00
 0.00000000e+00 0.00000000e+00 4.58810274e-08 0.00000000e+00
 0.00000000e+00 0.00000000e+00 0.00000000e+00 9.99233925e-03]"
1786943028.962305,0.0,0.0,0.0,"[9.99135254e-03 0.00000000e+00 0.00000000e+00 0.00000000e+00
 0.00000000e+00 4.62927247e-08 0.00000000e+00 9.99130756e-03
 0.00000000e+00 0.00000000e+00 0.00000000e+00 0.00000000e+00
 0.00000000e+00 0.00000000e+00 0.00000000e+00 0.00000000e+00
 0.00000000e+00 0.00000000e+00 0.00000000e+00 0.00000000e+00
 0.00000000e+00 0.00000000e+00 0.00000000e+00 0.00000000e+00
 0.00000000e+00 0.00000000e+00 0.00000000e+00 0.00000000e+00
 0.00000000e+00 0.00000000e+00 4.62927247e-08 0.00000000e+00
 0.00000000e+00 0.00000000e+00 0.00000000e+00 9.99224779e-03]"
1786943029.0179834,0.0,0.0,0.0,"[9.99115367e-03 0.00000000e+00 0.00000000e+00 0.00000000e+00
 0.00000000e+00 4.70879637e-08 0.00000000e+00 9.99110791e-03
 0.00000000e+00 0.00000000e+00 0.00000000e+00 0.00000000e+00
 0.00000000e+00 0.00000000e+00 0.00000000e+00 0.00000000e+00
 0.00000000e+00 0.00000000e+00 0.00000000e+00 0.00000000e+00
 0.00000000e+00 0.00000000e+00 0.00000000e+00 0.00000000e+00
 0.00000000e+00 0.00000000e+00 0.00000000e+00 0.00000000e+00
 0.00000000e+00 0.00000000e+00 4.70879637e-08 0.00000000e+00
 0.00000000e+00 0.00000000e+00 0.00000000e+00 9.99206429e-03]"
1786943029.0725832,0.0,0.0,0.0,"[9.99105427e-03 0.00000000e+00 0.00000000e+00 0.00000000e+00
 0.00000000e+00 4.75223488e-08 0.00000000e+00 9.99100809e-03
 0.00000000e+00 0.00000000e+00 0.00000000e+00 0.00000000e+00
 0.00000000e+00 0.00000000e+00 0.00000000e+00 0.00000000e+00
 0.00000000e+00 0.00000000e+00 0.00000000e+00 0.00000000e+00
 0.00000000e+00 0.00000000e+00 0.00000000e+00 0.00000000e+00
 0.00000000e+00 0.00000000e+00 0.00000000e+00 0.00000000e+00
 0.00000000e+00 0.00000000e+00 4.75223488e-08 0.00000000e+00
 0.00000000e+00 0.00000000e+00 0.00000000e+00 9.99197329e-03]"
1786943029.1180217,0.0,0.0,0.0,"[9.99085548e-03 0.00000000e+00 0.00000000e+00 0.00000000e+00
 0.00000000e+00 4.83977966e-08 0.00000000e+00 9.99080846e-03
 0.00000000e+00 0.00000000e+00 0.00000000e+00 0.00000000e+00
 0.00000000e+00 0.00000000e+00 0.00000000e+00 0.00000000e+00
 0.00000000e+00 0.00000000e+00 0.00000000e+00 0.00000000e+00
 0.00000000e+00 0.00000000e+00 0.00000000e+00 0.00000000e+00
 0.00000000e+00 0.00000000e+00 0.00000000e+00 0.00000000e+00
 0.00000000e+00 0.00000000e+00 4.83977966e-08 0.00000000e+00
 0.00000000e+00 0.00000000e+00 0.00000000e+00 9.99179144e-03]"
1786943029.172432,0.0,0.0,0.0,"[9.99075626e-03 0.00000000e+00 0.00000000e+00 0.00000000e+00
 0.00000000e+00 4.90110350e-08 0.00000000e+00 9.99070864e-03
 0.00000000e+00 0.00000000e+00 0.00000000e+00 0.00000000e+00
 0.00000000e+00 0.00000000e+00 0.00000000e+00 0.00000000e+00
 0.00000000e+00 0.00000000e+00 0.00000000e+00 0.00000000e+00
 0.00000000e+00 0.00000000e+00 0.00000000e+00 0.00000000e+00
 0.00000000e+00 0.00000000e+00 0.00000000e+00 0.00000000e+00
 0.00000000e+00 0.00000000e+00 4.90110350e-08 0.00000000e+00
 0.00000000e+00 0.00000000e+00 0.00000000e+00 9.99170408e-03]"
1786943029.2201624,0.0,0.0,0.0,"[9.99055739e-03 0.00000000e+00 0.00000000e+00 0.00000000e+00
 0.00000000e+00 4.97853358e-08 0.00000000e+00 9.99050902e-03
 0.00000000e+00 0.00000000e+00 0.00000000e+00 0.00000000e+00
 0.00000000e+00 0.00000000e+00 0.00000000e+00 0.00000000e+00
 0.00000000e+00 0.00000000e+00 0.00000000e+00 0.00000000e+00
 0.00000000e+00 0.00000000e+00 0.00000000e+00 0.00000000e+00
 0.00000000e+00 0.00000000e+00 0.00000000e+00 0.00000000e+00
 0.00000000e+00 0.00000000e+00 4.97853358e-08 0.00000000e+00
 0.00000000e+00 0.00000000e+00 0.00000000e+00 9.99152018e-03]"
1786943029.2640145,0.0,0.0,0.0,"[9.99045793e-03 0.00000000e+00 0.00000000e+00 0.00000000e+00
 0.00000000e+00 5.01444143e-08 0.00000000e+00 9.99040921e-03
 0.00000000e+00 0.00000000e+00 0.00000000e+00 0.00000000e+00
 0.00000000e+00 0.00000000e+00 0.00000000e+00 0.00000000e+00
 0.00000000e+00 0.00000000e+00 0.00000000e+00 0.00000000e+00
 0.00000000e+00 0.00000000e+00 0.00000000e+00 0.00000000e+00
 0.00000000e+00 0.00000000e+00 0.00000000e+00 0.00000000e+00
 0.00000000e+00 0.00000000e+00 5.01444143e-08 0.00000000e+00
 0.00000000e+00 0.00000000e+00 0.00000000e+00 9.99142766e-03]"
1786943029.3142278,0.0,0.0,0.0,"[9.99025915e-03 0.00000000e+00 0.00000000e+00 0.00000000e+00
 0.00000000e+00 5.10040811e-08 0.00000000e+00 9.99020959e-03
 0.00000000e+00 0.00000000e+00 0.00000000e+00 0.00000000e+00
 0.00000000e+00 0.00000000e+00 0.00000000e+00 0.00000000e+00
 0.00000000e+00 0.00000000e+00 0.00000000e+00 0.00000000e+00
 0.00000000e+00 0.00000000e+00 0.00000000e+00 0.00000000e+00
 0.00000000e+00 0.00000000e+00 0.00000000e+00 0.00000000e+00
 0.00000000e+00 0.00000000e+00 5.10040811e-08 0.00000000e+00
 0.00000000e+00 0.00000000e+00 0.00000000e+00 9.99124551e-03]"
1786943029.3769507,0.0,0.0,0.0,"[9.99015977e-03 0.00000000e+00 0.00000000e+00 0.00000000e+00
 0.00000000e+00 5.14421818e-08 0.00000000e+00 9.99010979e-03
 0.00000000e+00 0.00000000e+00 0.00000000e+00 0.00000000e+00
 0.00000000e+00 0.00000000e+00 0.00000000e+00 0.00000000e+00
 0.00000000e+00 0.00000000e+00 0.00000000e+00 0.00000000e+00
 0.00000000e+00 0.00000000e+00 0.00000000e+00 0.00000000e+00
 0.00000000e+00 0.00000000e+00 0.00000000e+00 0.00000000e+00
 0.00000000e+00 0.00000000e+00 5.14421818e-08 0.00000000e+00
 0.00000000e+00 0.00000000e+00 0.00000000e+00 9.99115460e-03]"
1786943029.4134362,0.0,0.0,0.0,"[9.98996112e-03 0.00000000e+00 0.00000000e+00 0.00000000e+00
 0.00000000e+00 5.24191770e-08 0.00000000e+00 9.98991019e-03
 0.00000000e+00 0.00000000e+00 0.00000000e+00 0.00000000e+00
 0.00000000e+00 0.00000000e+00 0.00000000e+00 0.00000000e+00
 0.00000000e+00 0.00000000e+00 0.00000000e+00 0.00000000e+00
 0.00000000e+00 0.00000000e+00 0.00000000e+00 0.00000000e+00
 0.00000000e+00 0.00000000e+00 0.00000000e+00 0.00000000e+00
 0.00000000e+00 0.00000000e+00 5.24191770e-08 0.00000000e+00
 0.00000000e+00 0.00000000e+00 0.00000000e+00 9.99097485e-03]"
1786943029.4620626,0.0,0.0,0.0,"[9.98986165e-03 0.00000000e+00 0.00000000e+00 0.00000000e+00
 0.00000000e+00 5.27557729e-08 0.00000000e+00 9.98981039e-03
 0.00000000e+00 0.00000000e+00 0.00000000e+00 0.00000000e+00
 0.00000000e+00 0.00000000e+00 0.00000000e+00 0.00000000e+00
 0.00000000e+00 0.00000000e+00 0.00000000e+00 0.00000000e+00
 0.00000000e+00 0.00000000e+00 0.00000000e+00 0.00000000e+00
 0.00000000e+00 0.00000000e+00 0.00000000e+00 0.00000000e+00
 0.00000000e+00 0.00000000e+00 5.27557729e-08 0.00000000e+00
 0.00000000e+00 0.00000000e+00 0.00000000e+00 9.99088189e-03]"
1786943029.5124793,0.0,0.0,0.0,"[9.98966289e-03 0.00000000e+00 0.00000000e+00 0.00000000e+00
 0.00000000e+00 5.36005647e-08 0.00000000e+00 9.98961080e-03
 0.00000000e+00 0.00000000e+00 0.00000000e+00 0.00000000e+00
 0.00000000e+00 0.00000000e+00 0.00000000e+00 0.00000000e+00
 0.00000000e+00 0.00000000e+00 0.00000000e+00 0.00000000e+00
 0.00000000e+00 0.00000000e+00 0.00000000e+00 0.00000000e+00
 0.00000000e+00 0.00000000e+00 0.00000000e+00 0.00000000e+00
 0.00000000e+00 0.00000000e+00 5.36005647e-08 0.00000000e+00
 0.00000000e+00 0.00000000e+00 0.00000000e+00 9.99069946e-03]"
1786943029.5622115,0.0,0.0,0.0,"[9.98956351e-03 0.00000000e+00 0.00000000e+00 0.00000000e+00
 0.00000000e+00 5.40332039e-08 0.00000000e+00 9.98951101e-03
 0.00000000e+00 0.00000000e+00 0.00000000e+00 0.00000000e+00
 0.00000000e+00 0.00000000e+00 0.00000000e+00 0.00000000e+00
 0.00000000e+00 0.00000000e+00 0.00000000e+00 0.00000000e+00
 0.00000000e+00 0.00000000e+00 0.00000000e+00 0.00000000e+00
 0.00000000e+00 0.00000000e+00 0.00000000e+00 0.00000000e+00
 0.00000000e+00 0.00000000e+00 5.40332039e-08 0.00000000e+00
 0.00000000e+00 0.00000000e+00 0.00000000e+00 9.99060845e-03]"
1786943029.6136627,0.0,0.0,0.0,"[9.98936483e-03 0.00000000e+00 0.00000000e+00 0.00000000e+00
 0.00000000e+00 5.49509376e-08 0.00000000e+00 9.98931144e-03
 0.00000000e+00 0.00000000e+00 0.00000000e+00 0.00000000e+00
 0.00000000e+00 0.00000000e+00 0.00000000e+00 0.00000000e+00
 0.00000000e+00 0.00000000e+00 0.00000000e+00 0.00000000e+00
 0.00000000e+00 0.00000000e+00 0.00000000e+00 0.00000000e+00
 0.00000000e+00 0.00000000e+00 0.00000000e+00 0.00000000e+00
 0.00000000e+00 0.00000000e+00 5.49509376e-08 0.00000000e+00
 0.00000000e+00 0.00000000e+00 0.00000000e+00 9.99042751e-03]"
1786943029.6667538,0.0,0.0,0.0,"[9.98926548e-03 0.00000000e+00 0.00000000e+00 0.00000000e+00
 0.00000000e+00 5.53951708e-08 0.00000000e+00 9.98921165e-03
 0.00000000e+00 0.00000000e+00 0.00000000e+00 0.00000000e+00
 0.00000000e+00 0.00000000e+00 0.00000000e+00 0.00000000e+00
 0.00000000e+00 0.00000000e+00 0.00000000e+00 0.00000000e+00
 0.00000000e+00 0.00000000e+00 0.00000000e+00 0.00000000e+00
 0.00000000e+00 0.00000000e+00 0.00000000e+00 0.00000000e+00
 0.00000000e+00 0.00000000e+00 5.53951708e-08 0.00000000e+00
 0.00000000e+00 0.00000000e+00 0.00000000e+00 9.99033675e-03]"
1786943029.7159839,0.0,0.0,0.0,"[9.98906678e-03 0.00000000e+00 0.00000000e+00 0.00000000e+00
 0.00000000e+00 5.62865413e-08 0.00000000e+00 9.98901209e-03
 0.00000000e+00 0.00000000e+00 0.00000000e+00 0.00000000e+00
 0.00000000e+00 0.00000000e+00 0.00000000e+00 0.00000000e+00
 0.00000000e+00 0.00000000e+00 0.00000000e+00 0.00000000e+00
 0.00000000e+00 0.00000000e+00 0.00000000e+00 0.00000000e+00
 0.00000000e+00 0.00000000e+00 0.00000000e+00 0.00000000e+00
 0.00000000e+00 0.00000000e+00 5.62865413e-08 0.00000000e+00
 0.00000000e+00 0.00000000e+00 0.00000000e+00 9.99015529e-03]"
1786943029.7620795,0.0,0.0,0.0,"[9.98896772e-03 0.00000000e+00 0.00000000e+00 0.00000000e+00
 0.00000000e+00 5.70293303e-08 0.00000000e+00 9.98891231e-03
 0.00000000e+00 0.00000000e+00 0.00000000e+00 0.00000000e+00
 0.00000000e+00 0.00000000e+00 0.00000000e+00 0.00000000e+00
 0.00000000e+00 0.00000000e+00 0.00000000e+00 0.00000000e+00
 0.00000000e+00 0.00000000e+00 0.00000000e+00 0.00000000e+00
 0.00000000e+00 0.00000000e+00 0.00000000e+00 0.00000000e+00
 0.00000000e+00 0.00000000e+00 5.70293303e-08 0.00000000e+00
 0.00000000e+00 0.00000000e+00 0.00000000e+00 9.99007060e-03]"
1786943029.8180687,0.0,0.0,0.0,"[9.98886812e-03 0.00000000e+00 0.00000000e+00 0.00000000e+00
 0.00000000e+00 5.72135065e-08 0.00000000e+00 9.98881253e-03
 0.00000000e+00 0.00000000e+00 0.00000000e+00 0.00000000e+00
 0.00000000e+00 0.00000000e+00 0.00000000e+00 0.00000000e+00
 0.00000000e+00 0.00000000e+00 0.00000000e+00 0.00000000e+00
 0.00000000e+00 0.00000000e+00 0.00000000e+00 0.00000000e+00
 0.00000000e+00 0.00000000e+00 0.00000000e+00 0.00000000e+00
 0.00000000e+00 0.00000000e+00 5.72135065e-08 0.00000000e+00
 0.00000000e+00 0.00000000e+00 0.00000000e+00 9.98997456e-03]"
1786943029.8641114,0.0,0.0,0.0,"[9.98866944e-03 0.00000000e+00 0.00000000e+00 0.00000000e+00
 0.00000000e+00 5.81030516e-08 0.00000000e+00 9.98861298e-03
 0.00000000e+00 0.00000000e+00 0.00000000e+00 0.00000000e+00
 0.00000000e+00 0.00000000e+00 0.00000000e+00 0.00000000e+00
 0.00000000e+00 0.00000000e+00 0.00000000e+00 0.00000000e+00
 0.00000000e+00 0.00000000e+00 0.00000000e+00 0.00000000e+00
 0.00000000e+00 0.00000000e+00 0.00000000e+00 0.00000000e+00
 0.00000000e+00 0.00000000e+00 5.81030516e-08 0.00000000e+00
 0.00000000e+00 0.00000000e+00 0.00000000e+00 9.98979308e-03]"
1786943029.9127312,0.0,0.0,0.0,"[9.98847068e-03 0.00000000e+00 0.00000000e+00 0.00000000e+00
 0.00000000e+00 5.89109341e-08 0.00000000e+00 9.98841344e-03
 0.00000000e+00 0.00000000e+00 0.00000000e+00 0.00000000e+00
 0.00000000e+00 0.00000000e+00 0.00000000e+00 0.00000000e+00
 0.00000000e+00 0.00000000e+00 0.00000000e+00 0.00000000e+00
 0.00000000e+00 0.00000000e+00 0.00000000e+00 0.00000000e+00
 0.00000000e+00 0.00000000e+00 0.00000000e+00 0.00000000e+00
 0.00000000e+00 0.00000000e+00 5.89109341e-08 0.00000000e+00
 0.00000000e+00 0.00000000e+00 0.00000000e+00 9.98960995e-03]"
1786943029.9627235,0.0,0.0,0.0,"[9.98837144e-03 0.00000000e+00 0.00000000e+00 0.00000000e+00
 0.00000000e+00 5.94568728e-08 0.00000000e+00 9.98831367e-03
 0.00000000e+00 0.00000000e+00 0.00000000e+00 0.00000000e+00
 0.00000000e+00 0.00000000e+00 0.00000000e+00 0.00000000e+00
 0.00000000e+00 0.00000000e+00 0.00000000e+00 0.00000000e+00
 0.00000000e+00 0.00000000e+00 0.00000000e+00 0.00000000e+00
 0.00000000e+00 0.00000000e+00 0.00000000e+00 0.00000000e+00
 0.00000000e+00 0.00000000e+00 5.94568728e-08 0.00000000e+00
 0.00000000e+00 0.00000000e+00 0.00000000e+00 9.98952127e-03]"
1786943030.0119355,0.0,0.0,0.0,"[9.98817272e-03 0.00000000e+00 0.00000000e+00 0.00000000e+00
 0.00000000e+00 6.02889762e-08 0.00000000e+00 9.98811414e-03
 0.00000000e+00 0.00000000e+00 0.00000000e+00 0.00000000e+00
 0.00000000e+00 0.00000000e+00 0.00000000e+00 0.00000000e+00
 0.00000000e+00 0.00000000e+00 0.00000000e+00 0.00000000e+00
 0.00000000e+00 0.00000000e+00 0.00000000e+00 0.00000000e+00
 0.00000000e+00 0.00000000e+00 0.00000000e+00 0.00000000e+00
 0.00000000e+00 0.00000000e+00 6.02889762e-08 0.00000000e+00
 0.00000000e+00 0.00000000e+00 0.00000000e+00 9.98933864e-03]"
1786943030.062967,0.0,0.0,0.0,"[9.98807329e-03 0.00000000e+00 0.00000000e+00 0.00000000e+00
 0.00000000e+00 6.06241691e-08 0.00000000e+00 9.98801438e-03
 0.00000000e+00 0.00000000e+00 0.00000000e+00 0.00000000e+00
 0.00000000e+00 0.00000000e+00 0.00000000e+00 0.00000000e+00
 0.00000000e+00 0.00000000e+00 0.00000000e+00 0.00000000e+00
 0.00000000e+00 0.00000000e+00 0.00000000e+00 0.00000000e+00
 0.00000000e+00 0.00000000e+00 0.00000000e+00 0.00000000e+00
 0.00000000e+00 0.00000000e+00 6.06241691e-08 0.00000000e+00
 0.00000000e+00 0.00000000e+00 0.00000000e+00 9.98924569e-03]"
1786943030.1118922,0.0,0.0,0.0,"[9.98787460e-03 0.00000000e+00 0.00000000e+00 0.00000000e+00
 0.00000000e+00 6.14809226e-08 0.00000000e+00 9.98781487e-03
 0.00000000e+00 0.00000000e+00 0.00000000e+00 0.00000000e+00
 0.00000000e+00 0.00000000e+00 0.00000000e+00 0.00000000e+00
 0.00000000e+00 0.00000000e+00 0.00000000e+00 0.00000000e+00
 0.00000000e+00 0.00000000e+00 0.00000000e+00 0.00000000e+00
 0.00000000e+00 0.00000000e+00 0.00000000e+00 0.00000000e+00
 0.00000000e+00 0.00000000e+00 6.14809226e-08 0.00000000e+00
 0.00000000e+00 0.00000000e+00 0.00000000e+00 9.98906357e-03]"
1786943030.1621084,0.0,0.0,0.0,"[9.98777527e-03 0.00000000e+00 0.00000000e+00 0.00000000e+00
 0.00000000e+00 6.19109312e-08 0.00000000e+00 9.98771511e-03
 0.00000000e+00 0.00000000e+00 0.00000000e+00 0.00000000e+00
 0.00000000e+00 0.00000000e+00 0.00000000e+00 0.00000000e+00
 0.00000000e+00 0.00000000e+00 0.00000000e+00 0.00000000e+00
 0.00000000e+00 0.00000000e+00 0.00000000e+00 0.00000000e+00
 0.00000000e+00 0.00000000e+00 0.00000000e+00 0.00000000e+00
 0.00000000e+00 0.00000000e+00 6.19109312e-08 0.00000000e+00
 0.00000000e+00 0.00000000e+00 0.00000000e+00 9.98897255e-03]"
1786943030.2120678,0.0,0.0,0.0,"[9.98757659e-03 0.00000000e+00 0.00000000e+00 0.00000000e+00
 0.00000000e+00 6.27648670e-08 0.00000000e+00 9.98751561e-03
 0.00000000e+00 0.00000000e+00 0.00000000e+00 0.00000000e+00
 0.00000000e+00 0.00000000e+00 0.00000000e+00 0.00000000e+00
 0.00000000e+00 0.00000000e+00 0.00000000e+00 0.00000000e+00
 0.00000000e+00 0.00000000e+00 0.00000000e+00 0.00000000e+00
 0.00000000e+00 0.00000000e+00 0.00000000e+00 0.00000000e+00
 0.00000000e+00 0.00000000e+00 6.27648670e-08 0.00000000e+00
 0.00000000e+00 0.00000000e+00 0.00000000e+00 9.98879039e-03]"
1786943030.2631838,0.0,0.0,0.0,"[9.98747760e-03 0.00000000e+00 0.00000000e+00 0.00000000e+00
 0.00000000e+00 6.35419591e-08 0.00000000e+00 9.98741586e-03
 0.00000000e+00 0.00000000e+00 0.00000000e+00 0.00000000e+00
 0.00000000e+00 0.00000000e+00 0.00000000e+00 0.00000000e+00
 0.00000000e+00 0.00000000e+00 0.00000000e+00 0.00000000e+00
 0.00000000e+00 0.00000000e+00 0.00000000e+00 0.00000000e+00
 0.00000000e+00 0.00000000e+00 0.00000000e+00 0.00000000e+00
 0.00000000e+00 0.00000000e+00 6.35419591e-08 0.00000000e+00
 0.00000000e+00 0.00000000e+00 0.00000000e+00 9.98870642e-03]"
1786943030.3122885,0.0,0.0,0.0,"[9.98727873e-03 0.00000000e+00 0.00000000e+00 0.00000000e+00
 0.00000000e+00 6.41861425e-08 0.00000000e+00 9.98721636e-03
 0.00000000e+00 0.00000000e+00 0.00000000e+00 0.00000000e+00
 0.00000000e+00 0.00000000e+00 0.00000000e+00 0.00000000e+00
 0.00000000e+00 0.00000000e+00 0.00000000e+00 0.00000000e+00
 0.00000000e+00 0.00000000e+00 0.00000000e+00 0.00000000e+00
 0.00000000e+00 0.00000000e+00 0.00000000e+00 0.00000000e+00
 0.00000000e+00 0.00000000e+00 6.41861425e-08 0.00000000e+00
 0.00000000e+00 0.00000000e+00 0.00000000e+00 9.98852001e-03]"
1786943030.3622158,0.0,0.0,0.0,"[9.98717937e-03 0.00000000e+00 0.00000000e+00 0.00000000e+00
 0.00000000e+00 6.45850895e-08 0.00000000e+00 9.98711662e-03
 0.00000000e+00 0.00000000e+00 0.00000000e+00 0.00000000e+00
 0.00000000e+00 0.00000000e+00 0.00000000e+00 0.00000000e+00
 0.00000000e+00 0.00000000e+00 0.00000000e+00 0.00000000e+00
 0.00000000e+00 0.00000000e+00 0.00000000e+00 0.00000000e+00
 0.00000000e+00 0.00000000e+00 0.00000000e+00 0.00000000e+00
 0.00000000e+00 0.00000000e+00 6.45850895e-08 0.00000000e+00
 0.00000000e+00 0.00000000e+00 0.00000000e+00 9.98842837e-03]"
1786943030.4138694,0.0,0.0,0.0,"[9.98698087e-03 0.00000000e+00 0.00000000e+00 0.00000000e+00
 0.00000000e+00 6.55928730e-08 0.00000000e+00 9.98691714e-03
 0.00000000e+00 0.00000000e+00 0.00000000e+00 0.00000000e+00
 0.00000000e+00 0.00000000e+00 0.00000000e+00 0.00000000e+00
 0.00000000e+00 0.00000000e+00 0.00000000e+00 0.00000000e+00
 0.00000000e+00 0.00000000e+00 0.00000000e+00 0.00000000e+00
 0.00000000e+00 0.00000000e+00 0.00000000e+00 0.00000000e+00
 0.00000000e+00 0.00000000e+00 6.55928730e-08 0.00000000e+00
 0.00000000e+00 0.00000000e+00 0.00000000e+00 9.98824936e-03]"
1786943030.46202,0.0,0.0,0.0,"[9.98688147e-03 0.00000000e+00 0.00000000e+00 0.00000000e+00
 0.00000000e+00 6.59336349e-08 0.00000000e+00 9.98681740e-03
 0.00000000e+00 0.00000000e+00 0.00000000e+00 0.00000000e+00
 0.00000000e+00 0.00000000e+00 0.00000000e+00 0.00000000e+00
 0.00000000e+00 0.00000000e+00 0.00000000e+00 0.00000000e+00
 0.00000000e+00 0.00000000e+00 0.00000000e+00 0.00000000e+00
 0.00000000e+00 0.00000000e+00 0.00000000e+00 0.00000000e+00
 0.00000000e+00 0.00000000e+00 6.59336349e-08 0.00000000e+00
 0.00000000e+00 0.00000000e+00 0.00000000e+00 9.98815654e-03]"
1786943030.512235,0.0,0.0,0.0,"[9.98668288e-03 0.00000000e+00 0.00000000e+00 0.00000000e+00
 0.00000000e+00 6.68466979e-08 0.00000000e+00 9.98661793e-03
 0.00000000e+00 0.00000000e+00 0.00000000e+00 0.00000000e+00
 0.00000000e+00 0.00000000e+00 0.00000000e+00 0.00000000e+00
 0.00000000e+00 0.00000000e+00 0.00000000e+00 0.00000000e+00
 0.00000000e+00 0.00000000e+00 0.00000000e+00 0.00000000e+00
 0.00000000e+00 0.00000000e+00 0.00000000e+00 0.00000000e+00
 0.00000000e+00 0.00000000e+00 6.68466979e-08 0.00000000e+00
 0.00000000e+00 0.00000000e+00 0.00000000e+00 9.98797562e-03]"
1786943030.562812,0.0,0.0,0.0,"[9.98658350e-03 0.00000000e+00 0.00000000e+00 0.00000000e+00
 0.00000000e+00 6.72087629e-08 0.00000000e+00 9.98651820e-03
 0.00000000e+00 0.00000000e+00 0.00000000e+00 0.00000000e+00
 0.00000000e+00 0.00000000e+00 0.00000000e+00 0.00000000e+00
 0.00000000e+00 0.00000000e+00 0.00000000e+00 0.00000000e+00
 0.00000000e+00 0.00000000e+00 0.00000000e+00 0.00000000e+00
 0.00000000e+00 0.00000000e+00 0.00000000e+00 0.00000000e+00
 0.00000000e+00 0.00000000e+00 6.72087629e-08 0.00000000e+00
 0.00000000e+00 0.00000000e+00 0.00000000e+00 9.98788324e-03]"
1786943030.6121151,0.0,0.0,0.0,"[9.98638486e-03 0.00000000e+00 0.00000000e+00 0.00000000e+00
 0.00000000e+00 6.80429258e-08 0.00000000e+00 9.98631874e-03
 0.00000000e+00 0.00000000e+00 0.00000000e+00 0.00000000e+00
 0.00000000e+00 0.00000000e+00 0.00000000e+00 0.00000000e+00
 0.00000000e+00 0.00000000e+00 0.00000000e+00 0.00000000e+00
 0.00000000e+00 0.00000000e+00 0.00000000e+00 0.00000000e+00
 0.00000000e+00 0.00000000e+00 0.00000000e+00 0.00000000e+00
 0.00000000e+00 0.00000000e+00 6.80429258e-08 0.00000000e+00
 0.00000000e+00 0.00000000e+00 0.00000000e+00 9.98770072e-03]"
1786943030.6641033,0.0,0.0,0.0,"[9.98628574e-03 0.00000000e+00 0.00000000e+00 0.00000000e+00
 0.00000000e+00 6.86725403e-08 0.00000000e+00 9.98621902e-03
 0.00000000e+00 0.00000000e+00 0.00000000e+00 0.00000000e+00
 0.00000000e+00 0.00000000e+00 0.00000000e+00 0.00000000e+00
 0.00000000e+00 0.00000000e+00 0.00000000e+00 0.00000000e+00
 0.00000000e+00 0.00000000e+00 0.00000000e+00 0.00000000e+00
 0.00000000e+00 0.00000000e+00 0.00000000e+00 0.00000000e+00
 0.00000000e+00 0.00000000e+00 6.86725403e-08 0.00000000e+00
 0.00000000e+00 0.00000000e+00 0.00000000e+00 9.98761379e-03]"
1786943030.7131293,0.0,0.0,0.0,"[9.98608710e-03 0.00000000e+00 0.00000000e+00 0.00000000e+00
 0.00000000e+00 6.94990414e-08 0.00000000e+00 9.98601957e-03
 0.00000000e+00 0.00000000e+00 0.00000000e+00 0.00000000e+00
 0.00000000e+00 0.00000000e+00 0.00000000e+00 0.00000000e+00
 0.00000000e+00 0.00000000e+00 0.00000000e+00 0.00000000e+00
 0.00000000e+00 0.00000000e+00 0.00000000e+00 0.00000000e+00
 0.00000000e+00 0.00000000e+00 0.00000000e+00 0.00000000e+00
 0.00000000e+00 0.00000000e+00 6.94990414e-08 0.00000000e+00
 0.00000000e+00 0.00000000e+00 0.00000000e+00 9.98743113e-03]"
1786943030.764691,0.0,0.0,0.0,"[9.98598767e-03 0.00000000e+00 0.00000000e+00 0.00000000e+00
 0.00000000e+00 6.97990607e-08 0.00000000e+00 9.98591985e-03
 0.00000000e+00 0.00000000e+00 0.00000000e+00 0.00000000e+00
 0.00000000e+00 0.00000000e+00 0.00000000e+00 0.00000000e+00
 0.00000000e+00 0.00000000e+00 0.00000000e+00 0.00000000e+00
 0.00000000e+00 0.00000000e+00 0.00000000e+00 0.00000000e+00
 0.00000000e+00 0.00000000e+00 0.00000000e+00 0.00000000e+00
 0.00000000e+00 0.00000000e+00 6.97990607e-08 0.00000000e+00
 0.00000000e+00 0.00000000e+00 0.00000000e+00 9.98733750e-03]"
1786943030.8181949,0.0,0.0,0.0,"[9.98578910e-03 0.00000000e+00 0.00000000e+00 0.00000000e+00
 0.00000000e+00 7.06826774e-08 0.00000000e+00 9.98572042e-03
 0.00000000e+00 0.00000000e+00 0.00000000e+00 0.00000000e+00
 0.00000000e+00 0.00000000e+00 0.00000000e+00 0.00000000e+00
 0.00000000e+00 0.00000000e+00 0.00000000e+00 0.00000000e+00
 0.00000000e+00 0.00000000e+00 0.00000000e+00 0.00000000e+00
 0.00000000e+00 0.00000000e+00 0.00000000e+00 0.00000000e+00
 0.00000000e+00 0.00000000e+00 7.06826774e-08 0.00000000e+00
 0.00000000e+00 0.00000000e+00 0.00000000e+00 9.98715602e-03]"
1786943030.8624609,0.0,0.0,0.0,"[9.98568983e-03 0.00000000e+00 0.00000000e+00 0.00000000e+00
 0.00000000e+00 7.11366592e-08 0.00000000e+00 9.98562071e-03
 0.00000000e+00 0.00000000e+00 0.00000000e+00 0.00000000e+00
 0.00000000e+00 0.00000000e+00 0.00000000e+00 0.00000000e+00
 0.00000000e+00 0.00000000e+00 0.00000000e+00 0.00000000e+00
 0.00000000e+00 0.00000000e+00 0.00000000e+00 0.00000000e+00
 0.00000000e+00 0.00000000e+00 0.00000000e+00 0.00000000e+00
 0.00000000e+00 0.00000000e+00 7.11366592e-08 0.00000000e+00
 0.00000000e+00 0.00000000e+00 0.00000000e+00 9.98706552e-03]"
1786943030.9125369,0.0,0.0,0.0,"[9.98549127e-03 0.00000000e+00 0.00000000e+00 0.00000000e+00
 0.00000000e+00 7.20276688e-08 0.00000000e+00 9.98542128e-03
 0.00000000e+00 0.00000000e+00 0.00000000e+00 0.00000000e+00
 0.00000000e+00 0.00000000e+00 0.00000000e+00 0.00000000e+00
 0.00000000e+00 0.00000000e+00 0.00000000e+00 0.00000000e+00
 0.00000000e+00 0.00000000e+00 0.00000000e+00 0.00000000e+00
 0.00000000e+00 0.00000000e+00 0.00000000e+00 0.00000000e+00
 0.00000000e+00 0.00000000e+00 7.20276688e-08 0.00000000e+00
 0.00000000e+00 0.00000000e+00 0.00000000e+00 9.98688420e-03]"
1786943030.9631577,0.0,0.0,0.0,"[9.98539193e-03 0.00000000e+00 0.00000000e+00 0.00000000e+00
 0.00000000e+00 7.24028705e-08 0.00000000e+00 9.98532158e-03
 0.00000000e+00 0.00000000e+00 0.00000000e+00 0.00000000e+00
 0.00000000e+00 0.00000000e+00 0.00000000e+00 0.00000000e+00
 0.00000000e+00 0.00000000e+00 0.00000000e+00 0.00000000e+00
 0.00000000e+00 0.00000000e+00 0.00000000e+00 0.00000000e+00
 0.00000000e+00 0.00000000e+00 0.00000000e+00 0.00000000e+00
 0.00000000e+00 0.00000000e+00 7.24028705e-08 0.00000000e+00
 0.00000000e+00 0.00000000e+00 0.00000000e+00 9.98679211e-03]"
1786943031.0173936,0.0,0.0,0.0,"[9.98519331e-03 0.00000000e+00 0.00000000e+00 0.00000000e+00
 0.00000000e+00 7.32153505e-08 0.00000000e+00 9.98512217e-03
 0.00000000e+00 0.00000000e+00 0.00000000e+00 0.00000000e+00
 0.00000000e+00 0.00000000e+00 0.00000000e+00 0.00000000e+00
 0.00000000e+00 0.00000000e+00 0.00000000e+00 0.00000000e+00
 0.00000000e+00 0.00000000e+00 0.00000000e+00 0.00000000e+00
 0.00000000e+00 0.00000000e+00 0.00000000e+00 0.00000000e+00
 0.00000000e+00 0.00000000e+00 7.32153505e-08 0.00000000e+00
 0.00000000e+00 0.00000000e+00 0.00000000e+00 9.98660920e-03]"
1786943031.0636442,0.0,0.0,0.0,"[9.98509403e-03 0.00000000e+00 0.00000000e+00 0.00000000e+00
 0.00000000e+00 7.36486438e-08 0.00000000e+00 9.98502247e-03
 0.00000000e+00 0.00000000e+00 0.00000000e+00 0.00000000e+00
 0.00000000e+00 0.00000000e+00 0.00000000e+00 0.00000000e+00
 0.00000000e+00 0.00000000e+00 0.00000000e+00 0.00000000e+00
 0.00000000e+00 0.00000000e+00 0.00000000e+00 0.00000000e+00
 0.00000000e+00 0.00000000e+00 0.00000000e+00 0.00000000e+00
 0.00000000e+00 0.00000000e+00 7.36486438e-08 0.00000000e+00
 0.00000000e+00 0.00000000e+00 0.00000000e+00 9.98651830e-03]"
1786943031.1184056,0.0,0.0,0.0,"[9.98499475e-03 0.00000000e+00 0.00000000e+00 0.00000000e+00
 0.00000000e+00 7.40865002e-08 0.00000000e+00 9.98492277e-03
 0.00000000e+00 0.00000000e+00 0.00000000e+00 0.00000000e+00
 0.00000000e+00 0.00000000e+00 0.00000000e+00 0.00000000e+00
 0.00000000e+00 0.00000000e+00 0.00000000e+00 0.00000000e+00
 0.00000000e+00 0.00000000e+00 0.00000000e+00 0.00000000e+00
 0.00000000e+00 0.00000000e+00 0.00000000e+00 0.00000000e+00
 0.00000000e+00 0.00000000e+00 7.40865002e-08 0.00000000e+00
 0.00000000e+00 0.00000000e+00 0.00000000e+00 9.98642750e-03]"
1786943031.1664855,0.0,0.0,0.0,"[9.98479634e-03 0.00000000e+00 0.00000000e+00 0.00000000e+00
 0.00000000e+00 7.50919240e-08 0.00000000e+00 9.98472337e-03
 0.00000000e+00 0.00000000e+00 0.00000000e+00 0.00000000e+00
 0.00000000e+00 0.00000000e+00 0.00000000e+00 0.00000000e+00
 0.00000000e+00 0.00000000e+00 0.00000000e+00 0.00000000e+00
 0.00000000e+00 0.00000000e+00 0.00000000e+00 0.00000000e+00
 0.00000000e+00 0.00000000e+00 0.00000000e+00 0.00000000e+00
 0.00000000e+00 0.00000000e+00 7.50919240e-08 0.00000000e+00
 0.00000000e+00 0.00000000e+00 0.00000000e+00 9.98624852e-03]"
1786943031.2185402,0.0,0.0,0.0,"[9.98459788e-03 0.00000000e+00 0.00000000e+00 0.00000000e+00
 0.00000000e+00 7.60493064e-08 0.00000000e+00 9.98452399e-03
 0.00000000e+00 0.00000000e+00 0.00000000e+00 0.00000000e+00
 0.00000000e+00 0.00000000e+00 0.00000000e+00 0.00000000e+00
 0.00000000e+00 0.00000000e+00 0.00000000e+00 0.00000000e+00
 0.00000000e+00 0.00000000e+00 0.00000000e+00 0.00000000e+00
 0.00000000e+00 0.00000000e+00 0.00000000e+00 0.00000000e+00
 0.00000000e+00 0.00000000e+00 7.60493064e-08 0.00000000e+00
 0.00000000e+00 0.00000000e+00 0.00000000e+00 9.98606858e-03]"
1786943031.2633657,0.0,0.0,0.0,"[9.98449852e-03 0.00000000e+00 0.00000000e+00 0.00000000e+00
 0.00000000e+00 7.63865607e-08 0.00000000e+00 9.98442430e-03
 0.00000000e+00 0.00000000e+00 0.00000000e+00 0.00000000e+00
 0.00000000e+00 0.00000000e+00 0.00000000e+00 0.00000000e+00
 0.00000000e+00 0.00000000e+00 0.00000000e+00 0.00000000e+00
 0.00000000e+00 0.00000000e+00 0.00000000e+00 0.00000000e+00
 0.00000000e+00 0.00000000e+00 0.00000000e+00 0.00000000e+00
 0.00000000e+00 0.00000000e+00 7.63865607e-08 0.00000000e+00
 0.00000000e+00 0.00000000e+00 0.00000000e+00 9.98597574e-03]"
1786943031.3120866,0.0,0.0,0.0,"[9.98430003e-03 0.00000000e+00 0.00000000e+00 0.00000000e+00
 0.00000000e+00 7.72954781e-08 0.00000000e+00 9.98422492e-03
 0.00000000e+00 0.00000000e+00 0.00000000e+00 0.00000000e+00
 0.00000000e+00 0.00000000e+00 0.00000000e+00 0.00000000e+00
 0.00000000e+00 0.00000000e+00 0.00000000e+00 0.00000000e+00
 0.00000000e+00 0.00000000e+00 0.00000000e+00 0.00000000e+00
 0.00000000e+00 0.00000000e+00 0.00000000e+00 0.00000000e+00
 0.00000000e+00 0.00000000e+00 7.72954781e-08 0.00000000e+00
 0.00000000e+00 0.00000000e+00 0.00000000e+00 9.98579483e-03]"
1786943031.3623726,0.0,0.0,0.0,"[9.98420072e-03 0.00000000e+00 0.00000000e+00 0.00000000e+00
 0.00000000e+00 7.76809012e-08 0.00000000e+00 9.98412524e-03
 0.00000000e+00 0.00000000e+00 0.00000000e+00 0.00000000e+00
 0.00000000e+00 0.00000000e+00 0.00000000e+00 0.00000000e+00
 0.00000000e+00 0.00000000e+00 0.00000000e+00 0.00000000e+00
 0.00000000e+00 0.00000000e+00 0.00000000e+00 0.00000000e+00
 0.00000000e+00 0.00000000e+00 0.00000000e+00 0.00000000e+00
 0.00000000e+00 0.00000000e+00 7.76809012e-08 0.00000000e+00
 0.00000000e+00 0.00000000e+00 0.00000000e+00 9.98570297e-03]"
1786943031.4245567,0.0,0.0,0.0,"[9.98400218e-03 0.00000000e+00 0.00000000e+00 0.00000000e+00
 0.00000000e+00 7.85238950e-08 0.00000000e+00 9.98392588e-03
 0.00000000e+00 0.00000000e+00 0.00000000e+00 0.00000000e+00
 0.00000000e+00 0.00000000e+00 0.00000000e+00 0.00000000e+00
 0.00000000e+00 0.00000000e+00 0.00000000e+00 0.00000000e+00
 0.00000000e+00 0.00000000e+00 0.00000000e+00 0.00000000e+00
 0.00000000e+00 0.00000000e+00 0.00000000e+00 0.00000000e+00
 0.00000000e+00 0.00000000e+00 7.85238950e-08 0.00000000e+00
 0.00000000e+00 0.00000000e+00 0.00000000e+00 9.98552073e-03]"
1786943031.4640222,0.0,0.0,0.0,"[9.98390291e-03 0.00000000e+00 0.00000000e+00 0.00000000e+00
 0.00000000e+00 7.89513853e-08 0.00000000e+00 9.98382620e-03
 0.00000000e+00 0.00000000e+00 0.00000000e+00 0.00000000e+00
 0.00000000e+00 0.00000000e+00 0.00000000e+00 0.00000000e+00
 0.00000000e+00 0.00000000e+00 0.00000000e+00 0.00000000e+00
 0.00000000e+00 0.00000000e+00 0.00000000e+00 0.00000000e+00
 0.00000000e+00 0.00000000e+00 0.00000000e+00 0.00000000e+00
 0.00000000e+00 0.00000000e+00 7.89513853e-08 0.00000000e+00
 0.00000000e+00 0.00000000e+00 0.00000000e+00 9.98542974e-03]"
1786943031.5128427,0.0,0.0,0.0,"[9.98370440e-03 0.00000000e+00 0.00000000e+00 0.00000000e+00
 0.00000000e+00 7.98116726e-08 0.00000000e+00 9.98362685e-03
 0.00000000e+00 0.00000000e+00 0.00000000e+00 0.00000000e+00
 0.00000000e+00 0.00000000e+00 0.00000000e+00 0.00000000e+00
 0.00000000e+00 0.00000000e+00 0.00000000e+00 0.00000000e+00
 0.00000000e+00 0.00000000e+00 0.00000000e+00 0.00000000e+00
 0.00000000e+00 0.00000000e+00 0.00000000e+00 0.00000000e+00
 0.00000000e+00 0.00000000e+00 7.98116726e-08 0.00000000e+00
 0.00000000e+00 0.00000000e+00 0.00000000e+00 9.98524786e-03]"
1786943031.5711038,0.0,0.0,0.0,"[9.98360515e-03 0.00000000e+00 0.00000000e+00 0.00000000e+00
 0.00000000e+00 8.02456267e-08 0.00000000e+00 9.98352718e-03
 0.00000000e+00 0.00000000e+00 0.00000000e+00 0.00000000e+00
 0.00000000e+00 0.00000000e+00 0.00000000e+00 0.00000000e+00
 0.00000000e+00 0.00000000e+00 0.00000000e+00 0.00000000e+00
 0.00000000e+00 0.00000000e+00 0.00000000e+00 0.00000000e+00
 0.00000000e+00 0.00000000e+00 0.00000000e+00 0.00000000e+00
 0.00000000e+00 0.00000000e+00 8.02456267e-08 0.00000000e+00
 0.00000000e+00 0.00000000e+00 0.00000000e+00 9.98515700e-03]"
1786943031.6119862,0.0,0.0,0.0,"[9.98340666e-03 0.00000000e+00 0.00000000e+00 0.00000000e+00
 0.00000000e+00 8.11224157e-08 0.00000000e+00 9.98332784e-03
 0.00000000e+00 0.00000000e+00 0.00000000e+00 0.00000000e+00
 0.00000000e+00 0.00000000e+00 0.00000000e+00 0.00000000e+00
 0.00000000e+00 0.00000000e+00 0.00000000e+00 0.00000000e+00
 0.00000000e+00 0.00000000e+00 0.00000000e+00 0.00000000e+00
 0.00000000e+00 0.00000000e+00 0.00000000e+00 0.00000000e+00
 0.00000000e+00 0.00000000e+00 8.11224157e-08 0.00000000e+00
 0.00000000e+00 0.00000000e+00 0.00000000e+00 9.98497547e-03]"
1786943031.6623433,0.0,0.0,0.0,"[9.98330743e-03 0.00000000e+00 0.00000000e+00 0.00000000e+00
 0.00000000e+00 8.15700234e-08 0.00000000e+00 9.98322818e-03
 0.00000000e+00 0.00000000e+00 0.00000000e+00 0.00000000e+00
 0.00000000e+00 0.00000000e+00 0.00000000e+00 0.00000000e+00
 0.00000000e+00 0.00000000e+00 0.00000000e+00 0.00000000e+00
 0.00000000e+00 0.00000000e+00 0.00000000e+00 0.00000000e+00
 0.00000000e+00 0.00000000e+00 0.00000000e+00 0.00000000e+00
 0.00000000e+00 0.00000000e+00 8.15700234e-08 0.00000000e+00
 0.00000000e+00 0.00000000e+00 0.00000000e+00 9.98488490e-03]"
1786943031.7122607,0.0,0.0,0.0,"[9.98320814e-03 0.00000000e+00 0.00000000e+00 0.00000000e+00
 0.00000000e+00 8.19530186e-08 0.00000000e+00 9.98312851e-03
 0.00000000e+00 0.00000000e+00 0.00000000e+00 0.00000000e+00
 0.00000000e+00 0.00000000e+00 0.00000000e+00 0.00000000e+00
 0.00000000e+00 0.00000000e+00 0.00000000e+00 0.00000000e+00
 0.00000000e+00 0.00000000e+00 0.00000000e+00 0.00000000e+00
 0.00000000e+00 0.00000000e+00 0.00000000e+00 0.00000000e+00
 0.00000000e+00 0.00000000e+00 8.19530186e-08 0.00000000e+00
 0.00000000e+00 0.00000000e+00 0.00000000e+00 9.98479301e-03]"
1786943031.7634633,0.0,0.0,0.0,"[9.98300977e-03 0.00000000e+00 0.00000000e+00 0.00000000e+00
 0.00000000e+00 8.29312563e-08 0.00000000e+00 9.98292919e-03
 0.00000000e+00 0.00000000e+00 0.00000000e+00 0.00000000e+00
 0.00000000e+00 0.00000000e+00 0.00000000e+00 0.00000000e+00
 0.00000000e+00 0.00000000e+00 0.00000000e+00 0.00000000e+00
 0.00000000e+00 0.00000000e+00 0.00000000e+00 0.00000000e+00
 0.00000000e+00 0.00000000e+00 0.00000000e+00 0.00000000e+00
 0.00000000e+00 0.00000000e+00 8.29312563e-08 0.00000000e+00
 0.00000000e+00 0.00000000e+00 0.00000000e+00 9.98461356e-03]"
1786943031.8169136,0.0,0.0,0.0,"[9.98281130e-03 0.00000000e+00 0.00000000e+00 0.00000000e+00
 0.00000000e+00 8.37969505e-08 0.00000000e+00 9.98272988e-03
 0.00000000e+00 0.00000000e+00 0.00000000e+00 0.00000000e+00
 0.00000000e+00 0.00000000e+00 0.00000000e+00 0.00000000e+00
 0.00000000e+00 0.00000000e+00 0.00000000e+00 0.00000000e+00
 0.00000000e+00 0.00000000e+00 0.00000000e+00 0.00000000e+00
 0.00000000e+00 0.00000000e+00 0.00000000e+00 0.00000000e+00
 0.00000000e+00 0.00000000e+00 8.37969505e-08 0.00000000e+00
 0.00000000e+00 0.00000000e+00 0.00000000e+00 9.98443183e-03]"
1786943031.8622684,0.0,0.0,0.0,"[9.98271204e-03 0.00000000e+00 0.00000000e+00 0.00000000e+00
 0.00000000e+00 8.42091653e-08 0.00000000e+00 9.98263022e-03
 0.00000000e+00 0.00000000e+00 0.00000000e+00 0.00000000e+00
 0.00000000e+00 0.00000000e+00 0.00000000e+00 0.00000000e+00
 0.00000000e+00 0.00000000e+00 0.00000000e+00 0.00000000e+00
 0.00000000e+00 0.00000000e+00 0.00000000e+00 0.00000000e+00
 0.00000000e+00 0.00000000e+00 0.00000000e+00 0.00000000e+00
 0.00000000e+00 0.00000000e+00 8.42091653e-08 0.00000000e+00
 0.00000000e+00 0.00000000e+00 0.00000000e+00 9.98434055e-03]"
1786943031.926733,0.0,0.0,0.0,"[9.98251360e-03 0.00000000e+00 0.00000000e+00 0.00000000e+00
 0.00000000e+00 8.50883428e-08 0.00000000e+00 9.98243092e-03
 0.00000000e+00 0.00000000e+00 0.00000000e+00 0.00000000e+00
 0.00000000e+00 0.00000000e+00 0.00000000e+00 0.00000000e+00
 0.00000000e+00 0.00000000e+00 0.00000000e+00 0.00000000e+00
 0.00000000e+00 0.00000000e+00 0.00000000e+00 0.00000000e+00
 0.00000000e+00 0.00000000e+00 0.00000000e+00 0.00000000e+00
 0.00000000e+00 0.00000000e+00 8.50883428e-08 0.00000000e+00
 0.00000000e+00 0.00000000e+00 0.00000000e+00 9.98415910e-03]"
1786943031.9626145,0.0,0.0,0.0,"[9.98241437e-03 0.00000000e+00 0.00000000e+00 0.00000000e+00
 0.00000000e+00 8.55213935e-08 0.00000000e+00 9.98233127e-03
 0.00000000e+00 0.00000000e+00 0.00000000e+00 0.00000000e+00
 0.00000000e+00 0.00000000e+00 0.00000000e+00 0.00000000e+00
 0.00000000e+00 0.00000000e+00 0.00000000e+00 0.00000000e+00
 0.00000000e+00 0.00000000e+00 0.00000000e+00 0.00000000e+00
 0.00000000e+00 0.00000000e+00 0.00000000e+00 0.00000000e+00
 0.00000000e+00 0.00000000e+00 8.55213935e-08 0.00000000e+00
 0.00000000e+00 0.00000000e+00 0.00000000e+00 9.98406825e-03]"
1786943032.013001,0.0,0.0,0.0,"[9.98221588e-03 0.00000000e+00 0.00000000e+00 0.00000000e+00
 0.00000000e+00 8.63473109e-08 0.00000000e+00 9.98213198e-03
 0.00000000e+00 0.00000000e+00 0.00000000e+00 0.00000000e+00
 0.00000000e+00 0.00000000e+00 0.00000000e+00 0.00000000e+00
 0.00000000e+00 0.00000000e+00 0.00000000e+00 0.00000000e+00
 0.00000000e+00 0.00000000e+00 0.00000000e+00 0.00000000e+00
 0.00000000e+00 0.00000000e+00 0.00000000e+00 0.00000000e+00
 0.00000000e+00 0.00000000e+00 8.63473109e-08 0.00000000e+00
 0.00000000e+00 0.00000000e+00 0.00000000e+00 9.98388573e-03]"
1786943032.064736,0.0,0.0,0.0,"[9.98211665e-03 0.00000000e+00 0.00000000e+00 0.00000000e+00
 0.00000000e+00 8.67692443e-08 0.00000000e+00 9.98203234e-03
 0.00000000e+00 0.00000000e+00 0.00000000e+00 0.00000000e+00
 0.00000000e+00 0.00000000e+00 0.00000000e+00 0.00000000e+00
 0.00000000e+00 0.00000000e+00 0.00000000e+00 0.00000000e+00
 0.00000000e+00 0.00000000e+00 0.00000000e+00 0.00000000e+00
 0.00000000e+00 0.00000000e+00 0.00000000e+00 0.00000000e+00
 0.00000000e+00 0.00000000e+00 8.67692443e-08 0.00000000e+00
 0.00000000e+00 0.00000000e+00 0.00000000e+00 9.98379466e-03]"
1786943032.1238763,0.0,0.0,0.0,"[9.98191821e-03 0.00000000e+00 0.00000000e+00 0.00000000e+00
 0.00000000e+00 8.76292592e-08 0.00000000e+00 9.98183306e-03
 0.00000000e+00 0.00000000e+00 0.00000000e+00 0.00000000e+00
 0.00000000e+00 0.00000000e+00 0.00000000e+00 0.00000000e+00
 0.00000000e+00 0.00000000e+00 0.00000000e+00 0.00000000e+00
 0.00000000e+00 0.00000000e+00 0.00000000e+00 0.00000000e+00
 0.00000000e+00 0.00000000e+00 0.00000000e+00 0.00000000e+00
 0.00000000e+00 0.00000000e+00 8.76292592e-08 0.00000000e+00
 0.00000000e+00 0.00000000e+00 0.00000000e+00 9.98361285e-03]"
1786943032.1622887,0.0,0.0,0.0,"[9.98181900e-03 0.00000000e+00 0.00000000e+00 0.00000000e+00
 0.00000000e+00 8.80647485e-08 0.00000000e+00 9.98173343e-03
 0.00000000e+00 0.00000000e+00 0.00000000e+00 0.00000000e+00
 0.00000000e+00 0.00000000e+00 0.00000000e+00 0.00000000e+00
 0.00000000e+00 0.00000000e+00 0.00000000e+00 0.00000000e+00
 0.00000000e+00 0.00000000e+00 0.00000000e+00 0.00000000e+00
 0.00000000e+00 0.00000000e+00 0.00000000e+00 0.00000000e+00
 0.00000000e+00 0.00000000e+00 8.80647485e-08 0.00000000e+00
 0.00000000e+00 0.00000000e+00 0.00000000e+00 9.98352206e-03]"
1786943032.212444,0.0,0.0,0.0,"[9.98162056e-03 0.00000000e+00 0.00000000e+00 0.00000000e+00
 0.00000000e+00 8.89196049e-08 0.00000000e+00 9.98153416e-03
 0.00000000e+00 0.00000000e+00 0.00000000e+00 0.00000000e+00
 0.00000000e+00 0.00000000e+00 0.00000000e+00 0.00000000e+00
 0.00000000e+00 0.00000000e+00 0.00000000e+00 0.00000000e+00
 0.00000000e+00 0.00000000e+00 0.00000000e+00 0.00000000e+00
 0.00000000e+00 0.00000000e+00 0.00000000e+00 0.00000000e+00
 0.00000000e+00 0.00000000e+00 8.89196049e-08 0.00000000e+00
 0.00000000e+00 0.00000000e+00 0.00000000e+00 9.98334016e-03]"
1786943032.2622828,0.0,0.0,0.0,"[9.98152136e-03 0.00000000e+00 0.00000000e+00 0.00000000e+00
 0.00000000e+00 8.93599034e-08 0.00000000e+00 9.98143453e-03
 0.00000000e+00 0.00000000e+00 0.00000000e+00 0.00000000e+00
 0.00000000e+00 0.00000000e+00 0.00000000e+00 0.00000000e+00
 0.00000000e+00 0.00000000e+00 0.00000000e+00 0.00000000e+00
 0.00000000e+00 0.00000000e+00 0.00000000e+00 0.00000000e+00
 0.00000000e+00 0.00000000e+00 0.00000000e+00 0.00000000e+00
 0.00000000e+00 0.00000000e+00 8.93599034e-08 0.00000000e+00
 0.00000000e+00 0.00000000e+00 0.00000000e+00 9.98324947e-03]"
1786943032.312392,0.0,0.0,0.0,"[9.98132291e-03 0.00000000e+00 0.00000000e+00 0.00000000e+00
 0.00000000e+00 9.01909327e-08 0.00000000e+00 9.98123528e-03
 0.00000000e+00 0.00000000e+00 0.00000000e+00 0.00000000e+00
 0.00000000e+00 0.00000000e+00 0.00000000e+00 0.00000000e+00
 0.00000000e+00 0.00000000e+00 0.00000000e+00 0.00000000e+00
 0.00000000e+00 0.00000000e+00 0.00000000e+00 0.00000000e+00
 0.00000000e+00 0.00000000e+00 0.00000000e+00 0.00000000e+00
 0.00000000e+00 0.00000000e+00 9.01909327e-08 0.00000000e+00
 0.00000000e+00 0.00000000e+00 0.00000000e+00 9.98306709e-03]"
1786943032.3648524,0.0,0.0,0.0,"[9.98122427e-03 0.00000000e+00 0.00000000e+00 0.00000000e+00
 0.00000000e+00 9.12042305e-08 0.00000000e+00 9.98113565e-03
 0.00000000e+00 0.00000000e+00 0.00000000e+00 0.00000000e+00
 0.00000000e+00 0.00000000e+00 0.00000000e+00 0.00000000e+00
 0.00000000e+00 0.00000000e+00 0.00000000e+00 0.00000000e+00
 0.00000000e+00 0.00000000e+00 0.00000000e+00 0.00000000e+00
 0.00000000e+00 0.00000000e+00 0.00000000e+00 0.00000000e+00
 0.00000000e+00 0.00000000e+00 9.12042305e-08 0.00000000e+00
 0.00000000e+00 0.00000000e+00 0.00000000e+00 9.98298805e-03]"
1786943032.4124367,0.0,0.0,0.0,"[9.98102554e-03 0.00000000e+00 0.00000000e+00 0.00000000e+00
 0.00000000e+00 9.17247178e-08 0.00000000e+00 9.98093641e-03
 0.00000000e+00 0.00000000e+00 0.00000000e+00 0.00000000e+00
 0.00000000e+00 0.00000000e+00 0.00000000e+00 0.00000000e+00
 0.00000000e+00 0.00000000e+00 0.00000000e+00 0.00000000e+00
 0.00000000e+00 0.00000000e+00 0.00000000e+00 0.00000000e+00
 0.00000000e+00 0.00000000e+00 0.00000000e+00 0.00000000e+00
 0.00000000e+00 0.00000000e+00 9.17247178e-08 0.00000000e+00
 0.00000000e+00 0.00000000e+00 0.00000000e+00 9.98279938e-03]"
1786943032.4659553,0.0,0.0,0.0,"[9.98092631e-03 0.00000000e+00 0.00000000e+00 0.00000000e+00
 0.00000000e+00 9.21307520e-08 0.00000000e+00 9.98083679e-03
 0.00000000e+00 0.00000000e+00 0.00000000e+00 0.00000000e+00
 0.00000000e+00 0.00000000e+00 0.00000000e+00 0.00000000e+00
 0.00000000e+00 0.00000000e+00 0.00000000e+00 0.00000000e+00
 0.00000000e+00 0.00000000e+00 0.00000000e+00 0.00000000e+00
 0.00000000e+00 0.00000000e+00 0.00000000e+00 0.00000000e+00
 0.00000000e+00 0.00000000e+00 9.21307520e-08 0.00000000e+00
 0.00000000e+00 0.00000000e+00 0.00000000e+00 9.98270801e-03]"
1786943032.5120437,0.0,0.0,0.0,"[9.98072790e-03 0.00000000e+00 0.00000000e+00 0.00000000e+00
 0.00000000e+00 9.29741145e-08 0.00000000e+00 9.98063756e-03
 0.00000000e+00 0.00000000e+00 0.00000000e+00 0.00000000e+00
 0.00000000e+00 0.00000000e+00 0.00000000e+00 0.00000000e+00
 0.00000000e+00 0.00000000e+00 0.00000000e+00 0.00000000e+00
 0.00000000e+00 0.00000000e+00 0.00000000e+00 0.00000000e+00
 0.00000000e+00 0.00000000e+00 0.00000000e+00 0.00000000e+00
 0.00000000e+00 0.00000000e+00 9.29741145e-08 0.00000000e+00
 0.00000000e+00 0.00000000e+00 0.00000000e+00 9.98252591e-03]"
1786943032.5629923,0.0,0.0,0.0,"[9.98062870e-03 0.00000000e+00 0.00000000e+00 0.00000000e+00
 0.00000000e+00 9.33951203e-08 0.00000000e+00 9.98053795e-03
 0.00000000e+00 0.00000000e+00 0.00000000e+00 0.00000000e+00
 0.00000000e+00 0.00000000e+00 0.00000000e+00 0.00000000e+00
 0.00000000e+00 0.00000000e+00 0.00000000e+00 0.00000000e+00
 0.00000000e+00 0.00000000e+00 0.00000000e+00 0.00000000e+00
 0.00000000e+00 0.00000000e+00 0.00000000e+00 0.00000000e+00
 0.00000000e+00 0.00000000e+00 9.33951203e-08 0.00000000e+00
 0.00000000e+00 0.00000000e+00 0.00000000e+00 9.98243485e-03]"
1786943032.6130843,0.0,0.0,0.0,"[9.98043034e-03 0.00000000e+00 0.00000000e+00 0.00000000e+00
 0.00000000e+00 9.42828332e-08 0.00000000e+00 9.98033873e-03
 0.00000000e+00 0.00000000e+00 0.00000000e+00 0.00000000e+00
 0.00000000e+00 0.00000000e+00 0.00000000e+00 0.00000000e+00
 0.00000000e+00 0.00000000e+00 0.00000000e+00 0.00000000e+00
 0.00000000e+00 0.00000000e+00 0.00000000e+00 0.00000000e+00
 0.00000000e+00 0.00000000e+00 0.00000000e+00 0.00000000e+00
 0.00000000e+00 0.00000000e+00 9.42828332e-08 0.00000000e+00
 0.00000000e+00 0.00000000e+00 0.00000000e+00 9.98225366e-03]"
1786943032.6624591,0.0,0.0,0.0,"[9.98033112e-03 0.00000000e+00 0.00000000e+00 0.00000000e+00
 0.00000000e+00 9.46805171e-08 0.00000000e+00 9.98023913e-03
 0.00000000e+00 0.00000000e+00 0.00000000e+00 0.00000000e+00
 0.00000000e+00 0.00000000e+00 0.00000000e+00 0.00000000e+00
 0.00000000e+00 0.00000000e+00 0.00000000e+00 0.00000000e+00
 0.00000000e+00 0.00000000e+00 0.00000000e+00 0.00000000e+00
 0.00000000e+00 0.00000000e+00 0.00000000e+00 0.00000000e+00
 0.00000000e+00 0.00000000e+00 9.46805171e-08 0.00000000e+00
 0.00000000e+00 0.00000000e+00 0.00000000e+00 9.98216213e-03]"
1786943032.712327,0.0,0.0,0.0,"[9.98013279e-03 0.00000000e+00 0.00000000e+00 0.00000000e+00
 0.00000000e+00 9.55764390e-08 0.00000000e+00 9.98003992e-03
 0.00000000e+00 0.00000000e+00 0.00000000e+00 0.00000000e+00
 0.00000000e+00 0.00000000e+00 0.00000000e+00 0.00000000e+00
 0.00000000e+00 0.00000000e+00 0.00000000e+00 0.00000000e+00
 0.00000000e+00 0.00000000e+00 0.00000000e+00 0.00000000e+00
 0.00000000e+00 0.00000000e+00 0.00000000e+00 0.00000000e+00
 0.00000000e+00 0.00000000e+00 9.55764390e-08 0.00000000e+00
 0.00000000e+00 0.00000000e+00 0.00000000e+00 9.98198112e-03]"
1786943032.763893,0.0,0.0,0.0,"[9.98003356e-03 0.00000000e+00 0.00000000e+00 0.00000000e+00
 0.00000000e+00 9.59570282e-08 0.00000000e+00 9.97994032e-03
 0.00000000e+00 0.00000000e+00 0.00000000e+00 0.00000000e+00
 0.00000000e+00 0.00000000e+00 0.00000000e+00 0.00000000e+00
 0.00000000e+00 0.00000000e+00 0.00000000e+00 0.00000000e+00
 0.00000000e+00 0.00000000e+00 0.00000000e+00 0.00000000e+00
 0.00000000e+00 0.00000000e+00 0.00000000e+00 0.00000000e+00
 0.00000000e+00 0.00000000e+00 9.59570282e-08 0.00000000e+00
 0.00000000e+00 0.00000000e+00 0.00000000e+00 9.98188925e-03]"
1786943032.8122263,0.0,0.0,0.0,"[9.97983526e-03 0.00000000e+00 0.00000000e+00 0.00000000e+00
 0.00000000e+00 9.68794627e-08 0.00000000e+00 9.97974113e-03
 0.00000000e+00 0.00000000e+00 0.00000000e+00 0.00000000e+00
 0.00000000e+00 0.00000000e+00 0.00000000e+00 0.00000000e+00
 0.00000000e+00 0.00000000e+00 0.00000000e+00 0.00000000e+00
 0.00000000e+00 0.00000000e+00 0.00000000e+00 0.00000000e+00
 0.00000000e+00 0.00000000e+00 0.00000000e+00 0.00000000e+00
 0.00000000e+00 0.00000000e+00 9.68794627e-08 0.00000000e+00
 0.00000000e+00 0.00000000e+00 0.00000000e+00 9.98170879e-03]"
1786943032.8632047,0.0,0.0,0.0,"[9.97973604e-03 0.00000000e+00 0.00000000e+00 0.00000000e+00
 0.00000000e+00 9.72664995e-08 0.00000000e+00 9.97964153e-03
 0.00000000e+00 0.00000000e+00 0.00000000e+00 0.00000000e+00
 0.00000000e+00 0.00000000e+00 0.00000000e+00 0.00000000e+00
 0.00000000e+00 0.00000000e+00 0.00000000e+00 0.00000000e+00
 0.00000000e+00 0.00000000e+00 0.00000000e+00 0.00000000e+00
 0.00000000e+00 0.00000000e+00 0.00000000e+00 0.00000000e+00
 0.00000000e+00 0.00000000e+00 9.72664995e-08 0.00000000e+00
 0.00000000e+00 0.00000000e+00 0.00000000e+00 9.98161706e-03]"
1786943032.9123197,0.0,0.0,0.0,"[9.97953766e-03 0.00000000e+00 0.00000000e+00 0.00000000e+00
 0.00000000e+00 9.80944096e-08 0.00000000e+00 9.97944235e-03
 0.00000000e+00 0.00000000e+00 0.00000000e+00 0.00000000e+00
 0.00000000e+00 0.00000000e+00 0.00000000e+00 0.00000000e+00
 0.00000000e+00 0.00000000e+00 0.00000000e+00 0.00000000e+00
 0.00000000e+00 0.00000000e+00 0.00000000e+00 0.00000000e+00
 0.00000000e+00 0.00000000e+00 0.00000000e+00 0.00000000e+00
 0.00000000e+00 0.00000000e+00 9.80944096e-08 0.00000000e+00
 0.00000000e+00 0.00000000e+00 0.00000000e+00 9.98143469e-03]"
1786943032.9622533,0.0,0.0,0.0,"[9.97943855e-03 0.00000000e+00 0.00000000e+00 0.00000000e+00
 0.00000000e+00 9.85862732e-08 0.00000000e+00 9.97934276e-03
 0.00000000e+00 0.00000000e+00 0.00000000e+00 0.00000000e+00
 0.00000000e+00 0.00000000e+00 0.00000000e+00 0.00000000e+00
 0.00000000e+00 0.00000000e+00 0.00000000e+00 0.00000000e+00
 0.00000000e+00 0.00000000e+00 0.00000000e+00 0.00000000e+00
 0.00000000e+00 0.00000000e+00 0.00000000e+00 0.00000000e+00
 0.00000000e+00 0.00000000e+00 9.85862732e-08 0.00000000e+00
 0.00000000e+00 0.00000000e+00 0.00000000e+00 9.98134509e-03]"
1786943033.0383124,0.0,0.0,0.0,"[9.97933934e-03 0.00000000e+00 0.00000000e+00 0.00000000e+00
 0.00000000e+00 9.89700784e-08 0.00000000e+00 9.97924317e-03
 0.00000000e+00 0.00000000e+00 0.00000000e+00 0.00000000e+00
 0.00000000e+00 0.00000000e+00 0.00000000e+00 0.00000000e+00
 0.00000000e+00 0.00000000e+00 0.00000000e+00 0.00000000e+00
 0.00000000e+00 0.00000000e+00 0.00000000e+00 0.00000000e+00
 0.00000000e+00 0.00000000e+00 0.00000000e+00 0.00000000e+00
 0.00000000e+00 0.00000000e+00 9.89700784e-08 0.00000000e+00
 0.00000000e+00 0.00000000e+00 0.00000000e+00 9.98125330e-03]"
1786943033.0629623,0.0,0.0,0.0,"[9.97914135e-03 0.00000000e+00 0.00000000e+00 0.00000000e+00
 0.00000000e+00 1.00179484e-07 0.00000000e+00 9.97904401e-03
 0.00000000e+00 0.00000000e+00 0.00000000e+00 0.00000000e+00
 0.00000000e+00 0.00000000e+00 0.00000000e+00 0.00000000e+00
 0.00000000e+00 0.00000000e+00 0.00000000e+00 0.00000000e+00
 0.00000000e+00 0.00000000e+00 0.00000000e+00 0.00000000e+00
 0.00000000e+00 0.00000000e+00 0.00000000e+00 0.00000000e+00
 0.00000000e+00 0.00000000e+00 1.00179484e-07 0.00000000e+00
 0.00000000e+00 0.00000000e+00 0.00000000e+00 9.98107870e-03]"
1786943033.1130714,0.0,0.0,0.0,"[9.97894293e-03 0.00000000e+00 0.00000000e+00 0.00000000e+00
 0.00000000e+00 1.00939938e-07 0.00000000e+00 9.97884485e-03
 0.00000000e+00 0.00000000e+00 0.00000000e+00 0.00000000e+00
 0.00000000e+00 0.00000000e+00 0.00000000e+00 0.00000000e+00
 0.00000000e+00 0.00000000e+00 0.00000000e+00 0.00000000e+00
 0.00000000e+00 0.00000000e+00 0.00000000e+00 0.00000000e+00
 0.00000000e+00 0.00000000e+00 0.00000000e+00 0.00000000e+00
 0.00000000e+00 0.00000000e+00 1.00939938e-07 0.00000000e+00
 0.00000000e+00 0.00000000e+00 0.00000000e+00 9.98089498e-03]"
1786943033.1635592,0.0,0.0,0.0,"[9.97884412e-03 0.00000000e+00 0.00000000e+00 0.00000000e+00
 0.00000000e+00 1.01736464e-07 0.00000000e+00 9.97874527e-03
 0.00000000e+00 0.00000000e+00 0.00000000e+00 0.00000000e+00
 0.00000000e+00 0.00000000e+00 0.00000000e+00 0.00000000e+00
 0.00000000e+00 0.00000000e+00 0.00000000e+00 0.00000000e+00
 0.00000000e+00 0.00000000e+00 0.00000000e+00 0.00000000e+00
 0.00000000e+00 0.00000000e+00 0.00000000e+00 0.00000000e+00
 0.00000000e+00 0.00000000e+00 1.01736464e-07 0.00000000e+00
 0.00000000e+00 0.00000000e+00 0.00000000e+00 9.98081158e-03]"
1786943033.2120838,0.0,0.0,0.0,"[9.97864557e-03 0.00000000e+00 0.00000000e+00 0.00000000e+00
 0.00000000e+00 1.02343041e-07 0.00000000e+00 9.97854613e-03
 0.00000000e+00 0.00000000e+00 0.00000000e+00 0.00000000e+00
 0.00000000e+00 0.00000000e+00 0.00000000e+00 0.00000000e+00
 0.00000000e+00 0.00000000e+00 0.00000000e+00 0.00000000e+00
 0.00000000e+00 0.00000000e+00 0.00000000e+00 0.00000000e+00
 0.00000000e+00 0.00000000e+00 0.00000000e+00 0.00000000e+00
 0.00000000e+00 0.00000000e+00 1.02343041e-07 0.00000000e+00
 0.00000000e+00 0.00000000e+00 0.00000000e+00 9.98062476e-03]"
1786943033.2623315,0.0,0.0,0.0,"[9.97854633e-03 0.00000000e+00 0.00000000e+00 0.00000000e+00
 0.00000000e+00 1.02688145e-07 0.00000000e+00 9.97844656e-03
 0.00000000e+00 0.00000000e+00 0.00000000e+00 0.00000000e+00
 0.00000000e+00 0.00000000e+00 0.00000000e+00 0.00000000e+00
 0.00000000e+00 0.00000000e+00 0.00000000e+00 0.00000000e+00
 0.00000000e+00 0.00000000e+00 0.00000000e+00 0.00000000e+00
 0.00000000e+00 0.00000000e+00 0.00000000e+00 0.00000000e+00
 0.00000000e+00 0.00000000e+00 1.02688145e-07 0.00000000e+00
 0.00000000e+00 0.00000000e+00 0.00000000e+00 9.98053220e-03]"
1786943033.314547,0.0,0.0,0.0,"[9.97834818e-03 0.00000000e+00 0.00000000e+00 0.00000000e+00
 0.00000000e+00 1.03703075e-07 0.00000000e+00 9.97824742e-03
 0.00000000e+00 0.00000000e+00 0.00000000e+00 0.00000000e+00
 0.00000000e+00 0.00000000e+00 0.00000000e+00 0.00000000e+00
 0.00000000e+00 0.00000000e+00 0.00000000e+00 0.00000000e+00
 0.00000000e+00 0.00000000e+00 0.00000000e+00 0.00000000e+00
 0.00000000e+00 0.00000000e+00 0.00000000e+00 0.00000000e+00
 0.00000000e+00 0.00000000e+00 1.03703075e-07 0.00000000e+00
 0.00000000e+00 0.00000000e+00 0.00000000e+00 9.98035367e-03]"
1786943033.3620358,0.0,0.0,0.0,"[9.97824912e-03 0.00000000e+00 0.00000000e+00 0.00000000e+00
 0.00000000e+00 1.04221477e-07 0.00000000e+00 9.97814786e-03
 0.00000000e+00 0.00000000e+00 0.00000000e+00 0.00000000e+00
 0.00000000e+00 0.00000000e+00 0.00000000e+00 0.00000000e+00
 0.00000000e+00 0.00000000e+00 0.00000000e+00 0.00000000e+00
 0.00000000e+00 0.00000000e+00 0.00000000e+00 0.00000000e+00
 0.00000000e+00 0.00000000e+00 0.00000000e+00 0.00000000e+00
 0.00000000e+00 0.00000000e+00 1.04221477e-07 0.00000000e+00
 0.00000000e+00 0.00000000e+00 0.00000000e+00 9.98026464e-03]"
1786943033.4136016,0.0,0.0,0.0,"[9.97805063e-03 0.00000000e+00 0.00000000e+00 0.00000000e+00
 0.00000000e+00 1.04870662e-07 0.00000000e+00 9.97794873e-03
 0.00000000e+00 0.00000000e+00 0.00000000e+00 0.00000000e+00
 0.00000000e+00 0.00000000e+00 0.00000000e+00 0.00000000e+00
 0.00000000e+00 0.00000000e+00 0.00000000e+00 0.00000000e+00
 0.00000000e+00 0.00000000e+00 0.00000000e+00 0.00000000e+00
 0.00000000e+00 0.00000000e+00 0.00000000e+00 0.00000000e+00
 0.00000000e+00 0.00000000e+00 1.04870662e-07 0.00000000e+00
 0.00000000e+00 0.00000000e+00 0.00000000e+00 9.98007870e-03]"
1786943033.4643316,0.0,0.0,0.0,"[9.97795149e-03 0.00000000e+00 0.00000000e+00 0.00000000e+00
 0.00000000e+00 1.05296792e-07 0.00000000e+00 9.97784917e-03
 0.00000000e+00 0.00000000e+00 0.00000000e+00 0.00000000e+00
 0.00000000e+00 0.00000000e+00 0.00000000e+00 0.00000000e+00
 0.00000000e+00 0.00000000e+00 0.00000000e+00 0.00000000e+00
 0.00000000e+00 0.00000000e+00 0.00000000e+00 0.00000000e+00
 0.00000000e+00 0.00000000e+00 0.00000000e+00 0.00000000e+00
 0.00000000e+00 0.00000000e+00 1.05296792e-07 0.00000000e+00
 0.00000000e+00 0.00000000e+00 0.00000000e+00 9.97998780e-03]"
1786943033.5119507,0.0,0.0,0.0,"[9.97775335e-03 0.00000000e+00 0.00000000e+00 0.00000000e+00
 0.00000000e+00 1.06304492e-07 0.00000000e+00 9.97765006e-03
 0.00000000e+00 0.00000000e+00 0.00000000e+00 0.00000000e+00
 0.00000000e+00 0.00000000e+00 0.00000000e+00 0.00000000e+00
 0.00000000e+00 0.00000000e+00 0.00000000e+00 0.00000000e+00
 0.00000000e+00 0.00000000e+00 0.00000000e+00 0.00000000e+00
 0.00000000e+00 0.00000000e+00 0.00000000e+00 0.00000000e+00
 0.00000000e+00 0.00000000e+00 1.06304492e-07 0.00000000e+00
 0.00000000e+00 0.00000000e+00 0.00000000e+00 9.97980915e-03]"
1786943033.5624244,0.0,0.0,0.0,"[9.97765408e-03 0.00000000e+00 0.00000000e+00 0.00000000e+00
 0.00000000e+00 1.06592656e-07 0.00000000e+00 9.97755051e-03
 0.00000000e+00 0.00000000e+00 0.00000000e+00 0.00000000e+00
 0.00000000e+00 0.00000000e+00 0.00000000e+00 0.00000000e+00
 0.00000000e+00 0.00000000e+00 0.00000000e+00 0.00000000e+00
 0.00000000e+00 0.00000000e+00 0.00000000e+00 0.00000000e+00
 0.00000000e+00 0.00000000e+00 0.00000000e+00 0.00000000e+00
 0.00000000e+00 0.00000000e+00 1.06592656e-07 0.00000000e+00
 0.00000000e+00 0.00000000e+00 0.00000000e+00 9.97971545e-03]"
1786943033.6198385,0.0,0.0,0.0,"[9.97745583e-03 0.00000000e+00 0.00000000e+00 0.00000000e+00
 0.00000000e+00 1.07460305e-07 0.00000000e+00 9.97735141e-03
 0.00000000e+00 0.00000000e+00 0.00000000e+00 0.00000000e+00
 0.00000000e+00 0.00000000e+00 0.00000000e+00 0.00000000e+00
 0.00000000e+00 0.00000000e+00 0.00000000e+00 0.00000000e+00
 0.00000000e+00 0.00000000e+00 0.00000000e+00 0.00000000e+00
 0.00000000e+00 0.00000000e+00 0.00000000e+00 0.00000000e+00
 0.00000000e+00 0.00000000e+00 1.07460305e-07 0.00000000e+00
 0.00000000e+00 0.00000000e+00 0.00000000e+00 9.97953398e-03]"
1786943033.6639004,0.0,0.0,0.0,"[9.97735671e-03 0.00000000e+00 0.00000000e+00 0.00000000e+00
 0.00000000e+00 1.07906677e-07 0.00000000e+00 9.97725187e-03
 0.00000000e+00 0.00000000e+00 0.00000000e+00 0.00000000e+00
 0.00000000e+00 0.00000000e+00 0.00000000e+00 0.00000000e+00
 0.00000000e+00 0.00000000e+00 0.00000000e+00 0.00000000e+00
 0.00000000e+00 0.00000000e+00 0.00000000e+00 0.00000000e+00
 0.00000000e+00 0.00000000e+00 0.00000000e+00 0.00000000e+00
 0.00000000e+00 0.00000000e+00 1.07906677e-07 0.00000000e+00
 0.00000000e+00 0.00000000e+00 0.00000000e+00 9.97944350e-03]"
1786943033.7135508,0.0,0.0,0.0,"[9.97715844e-03 0.00000000e+00 0.00000000e+00 0.00000000e+00
 0.00000000e+00 1.08742898e-07 0.00000000e+00 9.97705278e-03
 0.00000000e+00 0.00000000e+00 0.00000000e+00 0.00000000e+00
 0.00000000e+00 0.00000000e+00 0.00000000e+00 0.00000000e+00
 0.00000000e+00 0.00000000e+00 0.00000000e+00 0.00000000e+00
 0.00000000e+00 0.00000000e+00 0.00000000e+00 0.00000000e+00
 0.00000000e+00 0.00000000e+00 0.00000000e+00 0.00000000e+00
 0.00000000e+00 0.00000000e+00 1.08742898e-07 0.00000000e+00
 0.00000000e+00 0.00000000e+00 0.00000000e+00 9.97926139e-03]"
1786943033.7620795,0.0,0.0,0.0,"[9.97705929e-03 0.00000000e+00 0.00000000e+00 0.00000000e+00
 0.00000000e+00 1.09150224e-07 0.00000000e+00 9.97695324e-03
 0.00000000e+00 0.00000000e+00 0.00000000e+00 0.00000000e+00
 0.00000000e+00 0.00000000e+00 0.00000000e+00 0.00000000e+00
 0.00000000e+00 0.00000000e+00 0.00000000e+00 0.00000000e+00
 0.00000000e+00 0.00000000e+00 0.00000000e+00 0.00000000e+00
 0.00000000e+00 0.00000000e+00 0.00000000e+00 0.00000000e+00
 0.00000000e+00 0.00000000e+00 1.09150224e-07 0.00000000e+00
 0.00000000e+00 0.00000000e+00 0.00000000e+00 9.97917013e-03]"
1786943033.8197212,0.0,0.0,0.0,"[9.97686105e-03 0.00000000e+00 0.00000000e+00 0.00000000e+00
 0.00000000e+00 1.10009628e-07 0.00000000e+00 9.97675416e-03
 0.00000000e+00 0.00000000e+00 0.00000000e+00 0.00000000e+00
 0.00000000e+00 0.00000000e+00 0.00000000e+00 0.00000000e+00
 0.00000000e+00 0.00000000e+00 0.00000000e+00 0.00000000e+00
 0.00000000e+00 0.00000000e+00 0.00000000e+00 0.00000000e+00
 0.00000000e+00 0.00000000e+00 0.00000000e+00 0.00000000e+00
 0.00000000e+00 0.00000000e+00 1.10009628e-07 0.00000000e+00
 0.00000000e+00 0.00000000e+00 0.00000000e+00 9.97898851e-03]"
1786943033.8637972,0.0,0.0,0.0,"[9.97676195e-03 0.00000000e+00 0.00000000e+00 0.00000000e+00
 0.00000000e+00 1.10448628e-07 0.00000000e+00 9.97665463e-03
 0.00000000e+00 0.00000000e+00 0.00000000e+00 0.00000000e+00
 0.00000000e+00 0.00000000e+00 0.00000000e+00 0.00000000e+00
 0.00000000e+00 0.00000000e+00 0.00000000e+00 0.00000000e+00
 0.00000000e+00 0.00000000e+00 0.00000000e+00 0.00000000e+00
 0.00000000e+00 0.00000000e+00 0.00000000e+00 0.00000000e+00
 0.00000000e+00 0.00000000e+00 1.10448628e-07 0.00000000e+00
 0.00000000e+00 0.00000000e+00 0.00000000e+00 9.97889789e-03]"
1786943033.91296,0.0,0.0,0.0,"[9.97656375e-03 0.00000000e+00 0.00000000e+00 0.00000000e+00
 0.00000000e+00 1.11338468e-07 0.00000000e+00 9.97645556e-03
 0.00000000e+00 0.00000000e+00 0.00000000e+00 0.00000000e+00
 0.00000000e+00 0.00000000e+00 0.00000000e+00 0.00000000e+00
 0.00000000e+00 0.00000000e+00 0.00000000e+00 0.00000000e+00
 0.00000000e+00 0.00000000e+00 0.00000000e+00 0.00000000e+00
 0.00000000e+00 0.00000000e+00 0.00000000e+00 0.00000000e+00
 0.00000000e+00 0.00000000e+00 1.11338468e-07 0.00000000e+00
 0.00000000e+00 0.00000000e+00 0.00000000e+00 9.97871690e-03]"
1786943033.9620073,0.0,0.0,0.0,"[9.97646475e-03 0.00000000e+00 0.00000000e+00 0.00000000e+00
 0.00000000e+00 1.11888477e-07 0.00000000e+00 9.97635604e-03
 0.00000000e+00 0.00000000e+00 0.00000000e+00 0.00000000e+00
 0.00000000e+00 0.00000000e+00 0.00000000e+00 0.00000000e+00
 0.00000000e+00 0.00000000e+00 0.00000000e+00 0.00000000e+00
 0.00000000e+00 0.00000000e+00 0.00000000e+00 0.00000000e+00
 0.00000000e+00 0.00000000e+00 0.00000000e+00 0.00000000e+00
 0.00000000e+00 0.00000000e+00 1.11888477e-07 0.00000000e+00
 0.00000000e+00 0.00000000e+00 0.00000000e+00 9.97862854e-03]"
1786943034.0120249,0.0,0.0,0.0,"[9.97626640e-03 0.00000000e+00 0.00000000e+00 0.00000000e+00
 0.00000000e+00 1.12607144e-07 0.00000000e+00 9.97615698e-03
 0.00000000e+00 0.00000000e+00 0.00000000e+00 0.00000000e+00
 0.00000000e+00 0.00000000e+00 0.00000000e+00 0.00000000e+00
 0.00000000e+00 0.00000000e+00 0.00000000e+00 0.00000000e+00
 0.00000000e+00 0.00000000e+00 0.00000000e+00 0.00000000e+00
 0.00000000e+00 0.00000000e+00 0.00000000e+00 0.00000000e+00
 0.00000000e+00 0.00000000e+00 1.12607144e-07 0.00000000e+00
 0.00000000e+00 0.00000000e+00 0.00000000e+00 9.97844408e-03]"
1786943034.0631094,0.0,0.0,0.0,"[9.97616738e-03 0.00000000e+00 0.00000000e+00 0.00000000e+00
 0.00000000e+00 1.13129564e-07 0.00000000e+00 9.97605746e-03
 0.00000000e+00 0.00000000e+00 0.00000000e+00 0.00000000e+00
 0.00000000e+00 0.00000000e+00 0.00000000e+00 0.00000000e+00
 0.00000000e+00 0.00000000e+00 0.00000000e+00 0.00000000e+00
 0.00000000e+00 0.00000000e+00 0.00000000e+00 0.00000000e+00
 0.00000000e+00 0.00000000e+00 0.00000000e+00 0.00000000e+00
 0.00000000e+00 0.00000000e+00 1.13129564e-07 0.00000000e+00
 0.00000000e+00 0.00000000e+00 0.00000000e+00 9.97835517e-03]"
1786943034.1124125,0.0,0.0,0.0,"[9.97596907e-03 0.00000000e+00 0.00000000e+00 0.00000000e+00
 0.00000000e+00 1.13881149e-07 0.00000000e+00 9.97585842e-03
 0.00000000e+00 0.00000000e+00 0.00000000e+00 0.00000000e+00
 0.00000000e+00 0.00000000e+00 0.00000000e+00 0.00000000e+00
 0.00000000e+00 0.00000000e+00 0.00000000e+00 0.00000000e+00
 0.00000000e+00 0.00000000e+00 0.00000000e+00 0.00000000e+00
 0.00000000e+00 0.00000000e+00 0.00000000e+00 0.00000000e+00
 0.00000000e+00 0.00000000e+00 1.13881149e-07 0.00000000e+00
 0.00000000e+00 0.00000000e+00 0.00000000e+00 9.97817140e-03]"
1786943034.1630096,0.0,0.0,0.0,"[9.97587001e-03 0.00000000e+00 0.00000000e+00 0.00000000e+00
 0.00000000e+00 1.14344990e-07 0.00000000e+00 9.97575891e-03
 0.00000000e+00 0.00000000e+00 0.00000000e+00 0.00000000e+00
 0.00000000e+00 0.00000000e+00 0.00000000e+00 0.00000000e+00
 0.00000000e+00 0.00000000e+00 0.00000000e+00 0.00000000e+00
 0.00000000e+00 0.00000000e+00 0.00000000e+00 0.00000000e+00
 0.00000000e+00 0.00000000e+00 0.00000000e+00 0.00000000e+00
 0.00000000e+00 0.00000000e+00 1.14344990e-07 0.00000000e+00
 0.00000000e+00 0.00000000e+00 0.00000000e+00 9.97808130e-03]"
1786943034.2143648,0.0,0.0,0.0,"[9.97567177e-03 0.00000000e+00 0.00000000e+00 0.00000000e+00
 0.00000000e+00 1.15157720e-07 0.00000000e+00 9.97555988e-03
 0.00000000e+00 0.00000000e+00 0.00000000e+00 0.00000000e+00
 0.00000000e+00 0.00000000e+00 0.00000000e+00 0.00000000e+00
 0.00000000e+00 0.00000000e+00 0.00000000e+00 0.00000000e+00
 0.00000000e+00 0.00000000e+00 0.00000000e+00 0.00000000e+00
 0.00000000e+00 0.00000000e+00 0.00000000e+00 0.00000000e+00
 0.00000000e+00 0.00000000e+00 1.15157720e-07 0.00000000e+00
 0.00000000e+00 0.00000000e+00 0.00000000e+00 9.97789878e-03]"
1786943034.263374,0.0,0.0,0.0,"[9.97557267e-03 0.00000000e+00 0.00000000e+00 0.00000000e+00
 0.00000000e+00 1.15580765e-07 0.00000000e+00 9.97546037e-03
 0.00000000e+00 0.00000000e+00 0.00000000e+00 0.00000000e+00
 0.00000000e+00 0.00000000e+00 0.00000000e+00 0.00000000e+00
 0.00000000e+00 0.00000000e+00 0.00000000e+00 0.00000000e+00
 0.00000000e+00 0.00000000e+00 0.00000000e+00 0.00000000e+00
 0.00000000e+00 0.00000000e+00 0.00000000e+00 0.00000000e+00
 0.00000000e+00 0.00000000e+00 1.15580765e-07 0.00000000e+00
 0.00000000e+00 0.00000000e+00 0.00000000e+00 9.97780786e-03]"
1786943034.314174,0.0,0.0,0.0,"[9.97537448e-03 0.00000000e+00 0.00000000e+00 0.00000000e+00
 0.00000000e+00 1.16432325e-07 0.00000000e+00 9.97526135e-03
 0.00000000e+00 0.00000000e+00 0.00000000e+00 0.00000000e+00
 0.00000000e+00 0.00000000e+00 0.00000000e+00 0.00000000e+00
 0.00000000e+00 0.00000000e+00 0.00000000e+00 0.00000000e+00
 0.00000000e+00 0.00000000e+00 0.00000000e+00 0.00000000e+00
 0.00000000e+00 0.00000000e+00 0.00000000e+00 0.00000000e+00
 0.00000000e+00 0.00000000e+00 1.16432325e-07 0.00000000e+00
 0.00000000e+00 0.00000000e+00 0.00000000e+00 9.97762614e-03]"
1786943034.3619666,0.0,0.0,0.0,"[9.97527539e-03 0.00000000e+00 0.00000000e+00 0.00000000e+00
 0.00000000e+00 1.16857773e-07 0.00000000e+00 9.97516185e-03
 0.00000000e+00 0.00000000e+00 0.00000000e+00 0.00000000e+00
 0.00000000e+00 0.00000000e+00 0.00000000e+00 0.00000000e+00
 0.00000000e+00 0.00000000e+00 0.00000000e+00 0.00000000e+00
 0.00000000e+00 0.00000000e+00 0.00000000e+00 0.00000000e+00
 0.00000000e+00 0.00000000e+00 0.00000000e+00 0.00000000e+00
 0.00000000e+00 0.00000000e+00 1.16857773e-07 0.00000000e+00
 0.00000000e+00 0.00000000e+00 0.00000000e+00 9.97753528e-03]"
1786943034.4138622,0.0,0.0,0.0,"[9.97507721e-03 0.00000000e+00 0.00000000e+00 0.00000000e+00
 0.00000000e+00 1.17706651e-07 0.00000000e+00 9.97496284e-03
 0.00000000e+00 0.00000000e+00 0.00000000e+00 0.00000000e+00
 0.00000000e+00 0.00000000e+00 0.00000000e+00 0.00000000e+00
 0.00000000e+00 0.00000000e+00 0.00000000e+00 0.00000000e+00
 0.00000000e+00 0.00000000e+00 0.00000000e+00 0.00000000e+00
 0.00000000e+00 0.00000000e+00 0.00000000e+00 0.00000000e+00
 0.00000000e+00 0.00000000e+00 1.17706651e-07 0.00000000e+00
 0.00000000e+00 0.00000000e+00 0.00000000e+00 9.97735352e-03]"
1786943034.4621153,0.0,0.0,0.0,"[9.97497814e-03 0.00000000e+00 0.00000000e+00 0.00000000e+00
 0.00000000e+00 1.18141459e-07 0.00000000e+00 9.97486334e-03
 0.00000000e+00 0.00000000e+00 0.00000000e+00 0.00000000e+00
 0.00000000e+00 0.00000000e+00 0.00000000e+00 0.00000000e+00
 0.00000000e+00 0.00000000e+00 0.00000000e+00 0.00000000e+00
 0.00000000e+00 0.00000000e+00 0.00000000e+00 0.00000000e+00
 0.00000000e+00 0.00000000e+00 0.00000000e+00 0.00000000e+00
 0.00000000e+00 0.00000000e+00 1.18141459e-07 0.00000000e+00
 0.00000000e+00 0.00000000e+00 0.00000000e+00 9.97726285e-03]"
1786943034.5121803,0.0,0.0,0.0,"[9.97477997e-03 0.00000000e+00 0.00000000e+00 0.00000000e+00
 0.00000000e+00 1.18991963e-07 0.00000000e+00 9.97466435e-03
 0.00000000e+00 0.00000000e+00 0.00000000e+00 0.00000000e+00
 0.00000000e+00 0.00000000e+00 0.00000000e+00 0.00000000e+00
 0.00000000e+00 0.00000000e+00 0.00000000e+00 0.00000000e+00
 0.00000000e+00 0.00000000e+00 0.00000000e+00 0.00000000e+00
 0.00000000e+00 0.00000000e+00 0.00000000e+00 0.00000000e+00
 0.00000000e+00 0.00000000e+00 1.18991963e-07 0.00000000e+00
 0.00000000e+00 0.00000000e+00 0.00000000e+00 9.97708113e-03]"
1786943034.5626144,0.0,0.0,0.0,"[9.97468093e-03 0.00000000e+00 0.00000000e+00 0.00000000e+00
 0.00000000e+00 1.19452408e-07 0.00000000e+00 9.97456486e-03
 0.00000000e+00 0.00000000e+00 0.00000000e+00 0.00000000e+00
 0.00000000e+00 0.00000000e+00 0.00000000e+00 0.00000000e+00
 0.00000000e+00 0.00000000e+00 0.00000000e+00 0.00000000e+00
 0.00000000e+00 0.00000000e+00 0.00000000e+00 0.00000000e+00
 0.00000000e+00 0.00000000e+00 0.00000000e+00 0.00000000e+00
 0.00000000e+00 0.00000000e+00 1.19452408e-07 0.00000000e+00
 0.00000000e+00 0.00000000e+00 0.00000000e+00 9.97699099e-03]"
1786943034.6121418,0.0,0.0,0.0,"[9.97448277e-03 0.00000000e+00 0.00000000e+00 0.00000000e+00
 0.00000000e+00 1.20302087e-07 0.00000000e+00 9.97436588e-03
 0.00000000e+00 0.00000000e+00 0.00000000e+00 0.00000000e+00
 0.00000000e+00 0.00000000e+00 0.00000000e+00 0.00000000e+00
 0.00000000e+00 0.00000000e+00 0.00000000e+00 0.00000000e+00
 0.00000000e+00 0.00000000e+00 0.00000000e+00 0.00000000e+00
 0.00000000e+00 0.00000000e+00 0.00000000e+00 0.00000000e+00
 0.00000000e+00 0.00000000e+00 1.20302087e-07 0.00000000e+00
 0.00000000e+00 0.00000000e+00 0.00000000e+00 9.97680927e-03]"
1786943034.6630948,0.0,0.0,0.0,"[9.97438369e-03 0.00000000e+00 0.00000000e+00 0.00000000e+00
 0.00000000e+00 1.20724263e-07 0.00000000e+00 9.97426639e-03
 0.00000000e+00 0.00000000e+00 0.00000000e+00 0.00000000e+00
 0.00000000e+00 0.00000000e+00 0.00000000e+00 0.00000000e+00
 0.00000000e+00 0.00000000e+00 0.00000000e+00 0.00000000e+00
 0.00000000e+00 0.00000000e+00 0.00000000e+00 0.00000000e+00
 0.00000000e+00 0.00000000e+00 0.00000000e+00 0.00000000e+00
 0.00000000e+00 0.00000000e+00 1.20724263e-07 0.00000000e+00
 0.00000000e+00 0.00000000e+00 0.00000000e+00 9.97671835e-03]"
1786943034.7124598,0.0,0.0,0.0,"[9.97418566e-03 0.00000000e+00 0.00000000e+00 0.00000000e+00
 0.00000000e+00 1.21688296e-07 0.00000000e+00 9.97406742e-03
 0.00000000e+00 0.00000000e+00 0.00000000e+00 0.00000000e+00
 0.00000000e+00 0.00000000e+00 0.00000000e+00 0.00000000e+00
 0.00000000e+00 0.00000000e+00 0.00000000e+00 0.00000000e+00
 0.00000000e+00 0.00000000e+00 0.00000000e+00 0.00000000e+00
 0.00000000e+00 0.00000000e+00 0.00000000e+00 0.00000000e+00
 0.00000000e+00 0.00000000e+00 1.21688296e-07 0.00000000e+00
 0.00000000e+00 0.00000000e+00 0.00000000e+00 9.97653897e-03]"
1786943034.762038,0.0,0.0,0.0,"[9.97408653e-03 0.00000000e+00 0.00000000e+00 0.00000000e+00
 0.00000000e+00 1.22050561e-07 0.00000000e+00 9.97396794e-03
 0.00000000e+00 0.00000000e+00 0.00000000e+00 0.00000000e+00
 0.00000000e+00 0.00000000e+00 0.00000000e+00 0.00000000e+00
 0.00000000e+00 0.00000000e+00 0.00000000e+00 0.00000000e+00
 0.00000000e+00 0.00000000e+00 0.00000000e+00 0.00000000e+00
 0.00000000e+00 0.00000000e+00 0.00000000e+00 0.00000000e+00
 0.00000000e+00 0.00000000e+00 1.22050561e-07 0.00000000e+00
 0.00000000e+00 0.00000000e+00 0.00000000e+00 9.97644684e-03]"
1786943034.8120198,0.0,0.0,0.0,"[9.97388850e-03 0.00000000e+00 0.00000000e+00 0.00000000e+00
 0.00000000e+00 1.23001662e-07 0.00000000e+00 9.97376899e-03
 0.00000000e+00 0.00000000e+00 0.00000000e+00 0.00000000e+00
 0.00000000e+00 0.00000000e+00 0.00000000e+00 0.00000000e+00
 0.00000000e+00 0.00000000e+00 0.00000000e+00 0.00000000e+00
 0.00000000e+00 0.00000000e+00 0.00000000e+00 0.00000000e+00
 0.00000000e+00 0.00000000e+00 0.00000000e+00 0.00000000e+00
 0.00000000e+00 0.00000000e+00 1.23001662e-07 0.00000000e+00
 0.00000000e+00 0.00000000e+00 0.00000000e+00 9.97626720e-03]"
1786943034.8690286,0.0,0.0,0.0,"[9.97378935e-03 0.00000000e+00 0.00000000e+00 0.00000000e+00
 0.00000000e+00 1.23337712e-07 0.00000000e+00 9.97366951e-03
 0.00000000e+00 0.00000000e+00 0.00000000e+00 0.00000000e+00
 0.00000000e+00 0.00000000e+00 0.00000000e+00 0.00000000e+00
 0.00000000e+00 0.00000000e+00 0.00000000e+00 0.00000000e+00
 0.00000000e+00 0.00000000e+00 0.00000000e+00 0.00000000e+00
 0.00000000e+00 0.00000000e+00 0.00000000e+00 0.00000000e+00
 0.00000000e+00 0.00000000e+00 1.23337712e-07 0.00000000e+00
 0.00000000e+00 0.00000000e+00 0.00000000e+00 9.97617455e-03]"
1786943034.923316,0.0,0.0,0.0,"[9.97359120e-03 0.00000000e+00 0.00000000e+00 0.00000000e+00
 0.00000000e+00 1.24147733e-07 0.00000000e+00 9.97347057e-03
 0.00000000e+00 0.00000000e+00 0.00000000e+00 0.00000000e+00
 0.00000000e+00 0.00000000e+00 0.00000000e+00 0.00000000e+00
 0.00000000e+00 0.00000000e+00 0.00000000e+00 0.00000000e+00
 0.00000000e+00 0.00000000e+00 0.00000000e+00 0.00000000e+00
 0.00000000e+00 0.00000000e+00 0.00000000e+00 0.00000000e+00
 0.00000000e+00 0.00000000e+00 1.24147733e-07 0.00000000e+00
 0.00000000e+00 0.00000000e+00 0.00000000e+00 9.97599206e-03]"
1786943034.9690526,0.0,0.0,0.0,"[9.97349215e-03 0.00000000e+00 0.00000000e+00 0.00000000e+00
 0.00000000e+00 1.24580512e-07 0.00000000e+00 9.97337110e-03
 0.00000000e+00 0.00000000e+00 0.00000000e+00 0.00000000e+00
 0.00000000e+00 0.00000000e+00 0.00000000e+00 0.00000000e+00
 0.00000000e+00 0.00000000e+00 0.00000000e+00 0.00000000e+00
 0.00000000e+00 0.00000000e+00 0.00000000e+00 0.00000000e+00
 0.00000000e+00 0.00000000e+00 0.00000000e+00 0.00000000e+00
 0.00000000e+00 0.00000000e+00 1.24580512e-07 0.00000000e+00
 0.00000000e+00 0.00000000e+00 0.00000000e+00 9.97590138e-03]"
1786943035.027433,0.0,0.0,0.0,"[9.97329406e-03 0.00000000e+00 0.00000000e+00 0.00000000e+00
 0.00000000e+00 1.25447739e-07 0.00000000e+00 9.97317217e-03
 0.00000000e+00 0.00000000e+00 0.00000000e+00 0.00000000e+00
 0.00000000e+00 0.00000000e+00 0.00000000e+00 0.00000000e+00
 0.00000000e+00 0.00000000e+00 0.00000000e+00 0.00000000e+00
 0.00000000e+00 0.00000000e+00 0.00000000e+00 0.00000000e+00
 0.00000000e+00 0.00000000e+00 0.00000000e+00 0.00000000e+00
 0.00000000e+00 0.00000000e+00 1.25447739e-07 0.00000000e+00
 0.00000000e+00 0.00000000e+00 0.00000000e+00 9.97572006e-03]"
1786943035.063949,0.0,0.0,0.0,"[9.97319500e-03 0.00000000e+00 0.00000000e+00 0.00000000e+00
 0.00000000e+00 1.25869434e-07 0.00000000e+00 9.97307270e-03
 0.00000000e+00 0.00000000e+00 0.00000000e+00 0.00000000e+00
 0.00000000e+00 0.00000000e+00 0.00000000e+00 0.00000000e+00
 0.00000000e+00 0.00000000e+00 0.00000000e+00 0.00000000e+00
 0.00000000e+00 0.00000000e+00 0.00000000e+00 0.00000000e+00
 0.00000000e+00 0.00000000e+00 0.00000000e+00 0.00000000e+00
 0.00000000e+00 0.00000000e+00 1.25869434e-07 0.00000000e+00
 0.00000000e+00 0.00000000e+00 0.00000000e+00 9.97562917e-03]"
1786943035.1216054,0.0,0.0,0.0,"[9.97309599e-03 0.00000000e+00 0.00000000e+00 0.00000000e+00
 0.00000000e+00 1.26324707e-07 0.00000000e+00 9.97297324e-03
 0.00000000e+00 0.00000000e+00 0.00000000e+00 0.00000000e+00
 0.00000000e+00 0.00000000e+00 0.00000000e+00 0.00000000e+00
 0.00000000e+00 0.00000000e+00 0.00000000e+00 0.00000000e+00
 0.00000000e+00 0.00000000e+00 0.00000000e+00 0.00000000e+00
 0.00000000e+00 0.00000000e+00 0.00000000e+00 0.00000000e+00
 0.00000000e+00 0.00000000e+00 1.26324707e-07 0.00000000e+00
 0.00000000e+00 0.00000000e+00 0.00000000e+00 9.97553895e-03]"
1786943035.162453,0.0,0.0,0.0,"[9.97289789e-03 0.00000000e+00 0.00000000e+00 0.00000000e+00
 0.00000000e+00 1.27172005e-07 0.00000000e+00 9.97277433e-03
 0.00000000e+00 0.00000000e+00 0.00000000e+00 0.00000000e+00
 0.00000000e+00 0.00000000e+00 0.00000000e+00 0.00000000e+00
 0.00000000e+00 0.00000000e+00 0.00000000e+00 0.00000000e+00
 0.00000000e+00 0.00000000e+00 0.00000000e+00 0.00000000e+00
 0.00000000e+00 0.00000000e+00 0.00000000e+00 0.00000000e+00
 0.00000000e+00 0.00000000e+00 1.27172005e-07 0.00000000e+00
 0.00000000e+00 0.00000000e+00 0.00000000e+00 9.97535724e-03]"
1786943035.2124822,0.0,0.0,0.0,"[9.97269983e-03 0.00000000e+00 0.00000000e+00 0.00000000e+00
 0.00000000e+00 1.28043126e-07 0.00000000e+00 9.97257542e-03
 0.00000000e+00 0.00000000e+00 0.00000000e+00 0.00000000e+00
 0.00000000e+00 0.00000000e+00 0.00000000e+00 0.00000000e+00
 0.00000000e+00 0.00000000e+00 0.00000000e+00 0.00000000e+00
 0.00000000e+00 0.00000000e+00 0.00000000e+00 0.00000000e+00
 0.00000000e+00 0.00000000e+00 0.00000000e+00 0.00000000e+00
 0.00000000e+00 0.00000000e+00 1.28043126e-07 0.00000000e+00
 0.00000000e+00 0.00000000e+00 0.00000000e+00 9.97517603e-03]"
1786943035.2739186,0.0,0.0,0.0,"[9.97260077e-03 0.00000000e+00 0.00000000e+00 0.00000000e+00
 0.00000000e+00 1.28443726e-07 0.00000000e+00 9.97247597e-03
 0.00000000e+00 0.00000000e+00 0.00000000e+00 0.00000000e+00
 0.00000000e+00 0.00000000e+00 0.00000000e+00 0.00000000e+00
 0.00000000e+00 0.00000000e+00 0.00000000e+00 0.00000000e+00
 0.00000000e+00 0.00000000e+00 0.00000000e+00 0.00000000e+00
 0.00000000e+00 0.00000000e+00 0.00000000e+00 0.00000000e+00
 0.00000000e+00 0.00000000e+00 1.28443726e-07 0.00000000e+00
 0.00000000e+00 0.00000000e+00 0.00000000e+00 9.97508471e-03]"
1786943035.3124206,0.0,0.0,0.0,"[9.97240271e-03 0.00000000e+00 0.00000000e+00 0.00000000e+00
 0.00000000e+00 1.29309657e-07 0.00000000e+00 9.97227707e-03
 0.00000000e+00 0.00000000e+00 0.00000000e+00 0.00000000e+00
 0.00000000e+00 0.00000000e+00 0.00000000e+00 0.00000000e+00
 0.00000000e+00 0.00000000e+00 0.00000000e+00 0.00000000e+00
 0.00000000e+00 0.00000000e+00 0.00000000e+00 0.00000000e+00
 0.00000000e+00 0.00000000e+00 0.00000000e+00 0.00000000e+00
 0.00000000e+00 0.00000000e+00 1.29309657e-07 0.00000000e+00
 0.00000000e+00 0.00000000e+00 0.00000000e+00 9.97490340e-03]"
1786943035.3623185,0.0,0.0,0.0,"[9.97230382e-03 0.00000000e+00 0.00000000e+00 0.00000000e+00
 0.00000000e+00 1.29873223e-07 0.00000000e+00 9.97217762e-03
 0.00000000e+00 0.00000000e+00 0.00000000e+00 0.00000000e+00
 0.00000000e+00 0.00000000e+00 0.00000000e+00 0.00000000e+00
 0.00000000e+00 0.00000000e+00 0.00000000e+00 0.00000000e+00
 0.00000000e+00 0.00000000e+00 0.00000000e+00 0.00000000e+00
 0.00000000e+00 0.00000000e+00 0.00000000e+00 0.00000000e+00
 0.00000000e+00 0.00000000e+00 1.29873223e-07 0.00000000e+00
 0.00000000e+00 0.00000000e+00 0.00000000e+00 9.97481541e-03]"
1786943035.4124022,0.0,0.0,0.0,"[9.97210563e-03 0.00000000e+00 0.00000000e+00 0.00000000e+00
 0.00000000e+00 1.30592131e-07 0.00000000e+00 9.97197874e-03
 0.00000000e+00 0.00000000e+00 0.00000000e+00 0.00000000e+00
 0.00000000e+00 0.00000000e+00 0.00000000e+00 0.00000000e+00
 0.00000000e+00 0.00000000e+00 0.00000000e+00 0.00000000e+00
 0.00000000e+00 0.00000000e+00 0.00000000e+00 0.00000000e+00
 0.00000000e+00 0.00000000e+00 0.00000000e+00 0.00000000e+00
 0.00000000e+00 0.00000000e+00 1.30592131e-07 0.00000000e+00
 0.00000000e+00 0.00000000e+00 0.00000000e+00 9.97463112e-03]"
1786943035.4731033,0.0,0.0,0.0,"[9.97200662e-03 0.00000000e+00 0.00000000e+00 0.00000000e+00
 0.00000000e+00 1.31035944e-07 0.00000000e+00 9.97187930e-03
 0.00000000e+00 0.00000000e+00 0.00000000e+00 0.00000000e+00
 0.00000000e+00 0.00000000e+00 0.00000000e+00 0.00000000e+00
 0.00000000e+00 0.00000000e+00 0.00000000e+00 0.00000000e+00
 0.00000000e+00 0.00000000e+00 0.00000000e+00 0.00000000e+00
 0.00000000e+00 0.00000000e+00 0.00000000e+00 0.00000000e+00
 0.00000000e+00 0.00000000e+00 1.31035944e-07 0.00000000e+00
 0.00000000e+00 0.00000000e+00 0.00000000e+00 9.97454070e-03]"
1786943035.513994,0.0,0.0,0.0,"[9.97180860e-03 0.00000000e+00 0.00000000e+00 0.00000000e+00
 0.00000000e+00 1.31917330e-07 0.00000000e+00 9.97168043e-03
 0.00000000e+00 0.00000000e+00 0.00000000e+00 0.00000000e+00
 0.00000000e+00 0.00000000e+00 0.00000000e+00 0.00000000e+00
 0.00000000e+00 0.00000000e+00 0.00000000e+00 0.00000000e+00
 0.00000000e+00 0.00000000e+00 0.00000000e+00 0.00000000e+00
 0.00000000e+00 0.00000000e+00 0.00000000e+00 0.00000000e+00
 0.00000000e+00 0.00000000e+00 1.31917330e-07 0.00000000e+00
 0.00000000e+00 0.00000000e+00 0.00000000e+00 9.97435973e-03]"
1786943035.5644062,0.0,0.0,0.0,"[9.97170956e-03 0.00000000e+00 0.00000000e+00 0.00000000e+00
 0.00000000e+00 1.32314983e-07 0.00000000e+00 9.97158099e-03
 0.00000000e+00 0.00000000e+00 0.00000000e+00 0.00000000e+00
 0.00000000e+00 0.00000000e+00 0.00000000e+00 0.00000000e+00
 0.00000000e+00 0.00000000e+00 0.00000000e+00 0.00000000e+00
 0.00000000e+00 0.00000000e+00 0.00000000e+00 0.00000000e+00
 0.00000000e+00 0.00000000e+00 0.00000000e+00 0.00000000e+00
 0.00000000e+00 0.00000000e+00 1.32314983e-07 0.00000000e+00
 0.00000000e+00 0.00000000e+00 0.00000000e+00 9.97426837e-03]"
1786943035.6180463,0.0,0.0,0.0,"[9.97161082e-03 0.00000000e+00 0.00000000e+00 0.00000000e+00
 0.00000000e+00 1.33032204e-07 0.00000000e+00 9.97148156e-03
 0.00000000e+00 0.00000000e+00 0.00000000e+00 0.00000000e+00
 0.00000000e+00 0.00000000e+00 0.00000000e+00 0.00000000e+00
 0.00000000e+00 0.00000000e+00 0.00000000e+00 0.00000000e+00
 0.00000000e+00 0.00000000e+00 0.00000000e+00 0.00000000e+00
 0.00000000e+00 0.00000000e+00 0.00000000e+00 0.00000000e+00
 0.00000000e+00 0.00000000e+00 1.33032204e-07 0.00000000e+00
 0.00000000e+00 0.00000000e+00 0.00000000e+00 9.97418350e-03]"
1786943035.664962,0.0,0.0,0.0,"[9.97141272e-03 0.00000000e+00 0.00000000e+00 0.00000000e+00
 0.00000000e+00 1.33807909e-07 0.00000000e+00 9.97128271e-03
 0.00000000e+00 0.00000000e+00 0.00000000e+00 0.00000000e+00
 0.00000000e+00 0.00000000e+00 0.00000000e+00 0.00000000e+00
 0.00000000e+00 0.00000000e+00 0.00000000e+00 0.00000000e+00
 0.00000000e+00 0.00000000e+00 0.00000000e+00 0.00000000e+00
 0.00000000e+00 0.00000000e+00 0.00000000e+00 0.00000000e+00
 0.00000000e+00 0.00000000e+00 1.33807909e-07 0.00000000e+00
 0.00000000e+00 0.00000000e+00 0.00000000e+00 9.97400040e-03]"
1786943035.7260904,0.0,0.0,0.0,"[9.97121489e-03 0.00000000e+00 0.00000000e+00 0.00000000e+00
 0.00000000e+00 1.34857641e-07 0.00000000e+00 9.97108386e-03
 0.00000000e+00 0.00000000e+00 0.00000000e+00 0.00000000e+00
 0.00000000e+00 0.00000000e+00 0.00000000e+00 0.00000000e+00
 0.00000000e+00 0.00000000e+00 0.00000000e+00 0.00000000e+00
 0.00000000e+00 0.00000000e+00 0.00000000e+00 0.00000000e+00
 0.00000000e+00 0.00000000e+00 0.00000000e+00 0.00000000e+00
 0.00000000e+00 0.00000000e+00 1.34857641e-07 0.00000000e+00
 0.00000000e+00 0.00000000e+00 0.00000000e+00 9.97382287e-03]"
1786943035.7677429,0.0,0.0,0.0,"[9.97111574e-03 0.00000000e+00 0.00000000e+00 0.00000000e+00
 0.00000000e+00 1.35138418e-07 0.00000000e+00 9.97098444e-03
 0.00000000e+00 0.00000000e+00 0.00000000e+00 0.00000000e+00
 0.00000000e+00 0.00000000e+00 0.00000000e+00 0.00000000e+00
 0.00000000e+00 0.00000000e+00 0.00000000e+00 0.00000000e+00
 0.00000000e+00 0.00000000e+00 0.00000000e+00 0.00000000e+00
 0.00000000e+00 0.00000000e+00 0.00000000e+00 0.00000000e+00
 0.00000000e+00 0.00000000e+00 1.35138418e-07 0.00000000e+00
 0.00000000e+00 0.00000000e+00 0.00000000e+00 9.97372916e-03]"
1786943035.8127646,0.0,0.0,0.0,"[9.97091766e-03 0.00000000e+00 0.00000000e+00 0.00000000e+00
 0.00000000e+00 1.35918994e-07 0.00000000e+00 9.97078560e-03
 0.00000000e+00 0.00000000e+00 0.00000000e+00 0.00000000e+00
 0.00000000e+00 0.00000000e+00 0.00000000e+00 0.00000000e+00
 0.00000000e+00 0.00000000e+00 0.00000000e+00 0.00000000e+00
 0.00000000e+00 0.00000000e+00 0.00000000e+00 0.00000000e+00
 0.00000000e+00 0.00000000e+00 0.00000000e+00 0.00000000e+00
 0.00000000e+00 0.00000000e+00 1.35918994e-07 0.00000000e+00
 0.00000000e+00 0.00000000e+00 0.00000000e+00 9.97354617e-03]"
1786943035.862227,0.0,0.0,0.0,"[9.97081868e-03 0.00000000e+00 0.00000000e+00 0.00000000e+00
 0.00000000e+00 1.36359451e-07 0.00000000e+00 9.97068618e-03
 0.00000000e+00 0.00000000e+00 0.00000000e+00 0.00000000e+00
 0.00000000e+00 0.00000000e+00 0.00000000e+00 0.00000000e+00
 0.00000000e+00 0.00000000e+00 0.00000000e+00 0.00000000e+00
 0.00000000e+00 0.00000000e+00 0.00000000e+00 0.00000000e+00
 0.00000000e+00 0.00000000e+00 0.00000000e+00 0.00000000e+00
 0.00000000e+00 0.00000000e+00 1.36359451e-07 0.00000000e+00
 0.00000000e+00 0.00000000e+00 0.00000000e+00 9.97345570e-03]"
1786943035.9126315,0.0,0.0,0.0,"[9.97062073e-03 0.00000000e+00 0.00000000e+00 0.00000000e+00
 0.00000000e+00 1.37268945e-07 0.00000000e+00 9.97048736e-03
 0.00000000e+00 0.00000000e+00 0.00000000e+00 0.00000000e+00
 0.00000000e+00 0.00000000e+00 0.00000000e+00 0.00000000e+00
 0.00000000e+00 0.00000000e+00 0.00000000e+00 0.00000000e+00
 0.00000000e+00 0.00000000e+00 0.00000000e+00 0.00000000e+00
 0.00000000e+00 0.00000000e+00 0.00000000e+00 0.00000000e+00
 0.00000000e+00 0.00000000e+00 1.37268945e-07 0.00000000e+00
 0.00000000e+00 0.00000000e+00 0.00000000e+00 9.97327535e-03]"
1786943035.9620476,0.0,0.0,0.0,"[9.97052198e-03 0.00000000e+00 0.00000000e+00 0.00000000e+00
 0.00000000e+00 1.37943535e-07 0.00000000e+00 9.97038795e-03
 0.00000000e+00 0.00000000e+00 0.00000000e+00 0.00000000e+00
 0.00000000e+00 0.00000000e+00 0.00000000e+00 0.00000000e+00
 0.00000000e+00 0.00000000e+00 0.00000000e+00 0.00000000e+00
 0.00000000e+00 0.00000000e+00 0.00000000e+00 0.00000000e+00
 0.00000000e+00 0.00000000e+00 0.00000000e+00 0.00000000e+00
 0.00000000e+00 0.00000000e+00 1.37943535e-07 0.00000000e+00
 0.00000000e+00 0.00000000e+00 0.00000000e+00 9.97318964e-03]"
1786943036.0173056,0.0,0.0,0.0,"[9.97042299e-03 0.00000000e+00 0.00000000e+00 0.00000000e+00
 0.00000000e+00 1.38376911e-07 0.00000000e+00 9.97028854e-03
 0.00000000e+00 0.00000000e+00 0.00000000e+00 0.00000000e+00
 0.00000000e+00 0.00000000e+00 0.00000000e+00 0.00000000e+00
 0.00000000e+00 0.00000000e+00 0.00000000e+00 0.00000000e+00
 0.00000000e+00 0.00000000e+00 0.00000000e+00 0.00000000e+00
 0.00000000e+00 0.00000000e+00 0.00000000e+00 0.00000000e+00
 0.00000000e+00 0.00000000e+00 1.38376911e-07 0.00000000e+00
 0.00000000e+00 0.00000000e+00 0.00000000e+00 9.97309904e-03]"
1786943036.0628426,0.0,0.0,0.0,"[9.97022486e-03 0.00000000e+00 0.00000000e+00 0.00000000e+00
 0.00000000e+00 1.39074787e-07 0.00000000e+00 9.97008973e-03
 0.00000000e+00 0.00000000e+00 0.00000000e+00 0.00000000e+00
 0.00000000e+00 0.00000000e+00 0.00000000e+00 0.00000000e+00
 0.00000000e+00 0.00000000e+00 0.00000000e+00 0.00000000e+00
 0.00000000e+00 0.00000000e+00 0.00000000e+00 0.00000000e+00
 0.00000000e+00 0.00000000e+00 0.00000000e+00 0.00000000e+00
 0.00000000e+00 0.00000000e+00 1.39074787e-07 0.00000000e+00
 0.00000000e+00 0.00000000e+00 0.00000000e+00 9.97291440e-03]"
1786943036.112244,0.0,0.0,0.0,"[9.97002687e-03 0.00000000e+00 0.00000000e+00 0.00000000e+00
 0.00000000e+00 1.39907535e-07 0.00000000e+00 9.96989093e-03
 0.00000000e+00 0.00000000e+00 0.00000000e+00 0.00000000e+00
 0.00000000e+00 0.00000000e+00 0.00000000e+00 0.00000000e+00
 0.00000000e+00 0.00000000e+00 0.00000000e+00 0.00000000e+00
 0.00000000e+00 0.00000000e+00 0.00000000e+00 0.00000000e+00
 0.00000000e+00 0.00000000e+00 0.00000000e+00 0.00000000e+00
 0.00000000e+00 0.00000000e+00 1.39907535e-07 0.00000000e+00
 0.00000000e+00 0.00000000e+00 0.00000000e+00 9.97273251e-03]"
1786943036.1619835,0.0,0.0,0.0,"[9.96992798e-03 0.00000000e+00 0.00000000e+00 0.00000000e+00
 0.00000000e+00 1.40433312e-07 0.00000000e+00 9.96979153e-03
 0.00000000e+00 0.00000000e+00 0.00000000e+00 0.00000000e+00
 0.00000000e+00 0.00000000e+00 0.00000000e+00 0.00000000e+00
 0.00000000e+00 0.00000000e+00 0.00000000e+00 0.00000000e+00
 0.00000000e+00 0.00000000e+00 0.00000000e+00 0.00000000e+00
 0.00000000e+00 0.00000000e+00 0.00000000e+00 0.00000000e+00
 0.00000000e+00 0.00000000e+00 1.40433312e-07 0.00000000e+00
 0.00000000e+00 0.00000000e+00 0.00000000e+00 9.97264379e-03]"
1786943036.2136707,0.0,0.0,0.0,"[9.96972994e-03 0.00000000e+00 0.00000000e+00 0.00000000e+00
 0.00000000e+00 1.41197957e-07 0.00000000e+00 9.96959274e-03
 0.00000000e+00 0.00000000e+00 0.00000000e+00 0.00000000e+00
 0.00000000e+00 0.00000000e+00 0.00000000e+00 0.00000000e+00
