time,x,y,yaw,cov_prop,K_gain,innovation,v_ekf,omega_ekf
1787211074.9503868,2.012032978189425,0.19610022622975914,1.9352750627473723,"[ 5.44043589e-05 -1.21516855e-09  0.00000000e+00  0.00000000e+00
  0.00000000e+00 -2.57012219e-06 -1.21516855e-09  4.90635904e-05
  0.00000000e+00  0.00000000e+00  0.00000000e+00 -8.24079935e-07
  0.00000000e+00  0.00000000e+00  0.00000000e+00  0.00000000e+00
  0.00000000e+00  0.00000000e+00  0.00000000e+00  0.00000000e+00
  0.00000000e+00  0.00000000e+00  0.00000000e+00  0.00000000e+00
  0.00000000e+00  0.00000000e+00  0.00000000e+00  0.00000000e+00
  0.00000000e+00  0.00000000e+00 -2.57012219e-06 -8.24079935e-07
  0.00000000e+00  0.00000000e+00  0.00000000e+00  3.73277601e-06]","[[-3.96935829e-05  4.75835624e-02]
 [-1.22606561e-03  2.20211462e-04]]",[],0.0,0.0
1787211074.999691,2.012032978189425,0.19610022622975914,1.9352750627473723,"[ 5.44043589e-05 -1.21516855e-09  0.00000000e+00  0.00000000e+00
  0.00000000e+00 -2.57012219e-06 -1.21516855e-09  4.90635904e-05
  0.00000000e+00  0.00000000e+00  0.00000000e+00 -8.24079935e-07
  0.00000000e+00  0.00000000e+00  0.00000000e+00  0.00000000e+00
  0.00000000e+00  0.00000000e+00  0.00000000e+00  0.00000000e+00
  0.00000000e+00  0.00000000e+00  0.00000000e+00  0.00000000e+00
  0.00000000e+00  0.00000000e+00  0.00000000e+00  0.00000000e+00
  0.00000000e+00  0.00000000e+00 -2.57012219e-06 -8.24079935e-07
  0.00000000e+00  0.00000000e+00  0.00000000e+00  3.73277601e-06]","[[-3.96935829e-05  4.75835624e-02]
 [-1.22606561e-03  2.20211462e-04]]",[],0.0,0.0
1787211075.0598676,2.012032978189425,0.19610022622975914,1.9352750627473723,"[ 5.44043589e-05 -1.21516855e-09  0.00000000e+00  0.00000000e+00
  0.00000000e+00 -2.57012219e-06 -1.21516855e-09  4.90635904e-05
  0.00000000e+00  0.00000000e+00  0.00000000e+00 -8.24079935e-07
  0.00000000e+00  0.00000000e+00  0.00000000e+00  0.00000000e+00
  0.00000000e+00  0.00000000e+00  0.00000000e+00  0.00000000e+00
  0.00000000e+00  0.00000000e+00  0.00000000e+00  0.00000000e+00
  0.00000000e+00  0.00000000e+00  0.00000000e+00  0.00000000e+00
  0.00000000e+00  0.00000000e+00 -2.57012219e-06 -8.24079935e-07
  0.00000000e+00  0.00000000e+00  0.00000000e+00  3.73277601e-06]","[[-3.96935829e-05  4.75835624e-02]
 [-1.22606561e-03  2.20211462e-04]]",[],0.0,0.0
1787211075.0994294,2.012032978189425,0.19610022622975914,1.9352750627473723,"[ 5.44043589e-05 -1.21516855e-09  0.00000000e+00  0.00000000e+00
  0.00000000e+00 -2.57012219e-06 -1.21516855e-09  4.90635904e-05
  0.00000000e+00  0.00000000e+00  0.00000000e+00 -8.24079935e-07
  0.00000000e+00  0.00000000e+00  0.00000000e+00  0.00000000e+00
  0.00000000e+00  0.00000000e+00  0.00000000e+00  0.00000000e+00
  0.00000000e+00  0.00000000e+00  0.00000000e+00  0.00000000e+00
  0.00000000e+00  0.00000000e+00  0.00000000e+00  0.00000000e+00
  0.00000000e+00  0.00000000e+00 -2.57012219e-06 -8.24079935e-07
  0.00000000e+00  0.00000000e+00  0.00000000e+00  3.73277601e-06]","[[-3.96935829e-05  4.75835624e-02]
 [-1.22606561e-03  2.20211462e-04]]",[],0.0,0.0
1787211075.1540794,2.012032978189425,0.19610022622975914,1.9352750627473723,"[ 5.44043589e-05 -1.21516855e-09  0.00000000e+00  0.00000000e+00
  0.00000000e+00 -2.57012219e-06 -1.21516855e-09  4.90635904e-05
  0.00000000e+00  0.00000000e+00  0.00000000e+00 -8.24079935e-07
  0.00000000e+00  0.00000000e+00  0.00000000e+00  0.00000000e+00
  0.00000000e+00  0.00000000e+00  0.00000000e+00  0.00000000e+00
  0.00000000e+00  0.00000000e+00  0.00000000e+00  0.00000000e+00
  0.00000000e+00  0.00000000e+00  0.00000000e+00  0.00000000e+00
  0.00000000e+00  0.00000000e+00 -2.57012219e-06 -8.24079935e-07
  0.00000000e+00  0.00000000e+00  0.00000000e+00  3.73277601e-06]","[[-3.96935829e-05  4.75835624e-02]
 [-1.22606561e-03  2.20211462e-04]]",[],0.0,0.0
1787211075.2028534,2.012032978189425,0.19610022622975914,1.9352750627473723,"[ 5.44043589e-05 -1.21516855e-09  0.00000000e+00  0.00000000e+00
  0.00000000e+00 -2.57012219e-06 -1.21516855e-09  4.90635904e-05
  0.00000000e+00  0.00000000e+00  0.00000000e+00 -8.24079935e-07
  0.00000000e+00  0.00000000e+00  0.00000000e+00  0.00000000e+00
  0.00000000e+00  0.00000000e+00  0.00000000e+00  0.00000000e+00
  0.00000000e+00  0.00000000e+00  0.00000000e+00  0.00000000e+00
  0.00000000e+00  0.00000000e+00  0.00000000e+00  0.00000000e+00
  0.00000000e+00  0.00000000e+00 -2.57012219e-06 -8.24079935e-07
  0.00000000e+00  0.00000000e+00  0.00000000e+00  3.73277601e-06]","[[-3.96935829e-05  4.75835624e-02]
 [-1.22606561e-03  2.20211462e-04]]",[],0.0,0.0
1787211075.2526999,2.012032978189425,0.19610022622975914,1.9352750627473723,"[ 5.44043589e-05 -1.21516855e-09  0.00000000e+00  0.00000000e+00
  0.00000000e+00 -2.57012219e-06 -1.21516855e-09  4.90635904e-05
  0.00000000e+00  0.00000000e+00  0.00000000e+00 -8.24079935e-07
  0.00000000e+00  0.00000000e+00  0.00000000e+00  0.00000000e+00
  0.00000000e+00  0.00000000e+00  0.00000000e+00  0.00000000e+00
  0.00000000e+00  0.00000000e+00  0.00000000e+00  0.00000000e+00
  0.00000000e+00  0.00000000e+00  0.00000000e+00  0.00000000e+00
  0.00000000e+00  0.00000000e+00 -2.57012219e-06 -8.24079935e-07
  0.00000000e+00  0.00000000e+00  0.00000000e+00  3.73277601e-06]","[[-3.96935829e-05  4.75835624e-02]
 [-1.22606561e-03  2.20211462e-04]]",[],0.0,0.0
1787211075.3060985,2.012032978189425,0.19610022622975914,1.9352750627473723,"[ 5.44043589e-05 -1.21516855e-09  0.00000000e+00  0.00000000e+00
  0.00000000e+00 -2.57012219e-06 -1.21516855e-09  4.90635904e-05
  0.00000000e+00  0.00000000e+00  0.00000000e+00 -8.24079935e-07
  0.00000000e+00  0.00000000e+00  0.00000000e+00  0.00000000e+00
  0.00000000e+00  0.00000000e+00  0.00000000e+00  0.00000000e+00
  0.00000000e+00  0.00000000e+00  0.00000000e+00  0.00000000e+00
  0.00000000e+00  0.00000000e+00  0.00000000e+00  0.00000000e+00
  0.00000000e+00  0.00000000e+00 -2.57012219e-06 -8.24079935e-07
  0.00000000e+00  0.00000000e+00  0.00000000e+00  3.73277601e-06]","[[-3.96935829e-05  4.75835624e-02]
 [-1.22606561e-03  2.20211462e-04]]",[],0.0,0.0
1787211075.3516278,2.012032978189425,0.19610022622975914,1.9352750627473723,"[ 5.44043589e-05 -1.21516855e-09  0.00000000e+00  0.00000000e+00
  0.00000000e+00 -2.57012219e-06 -1.21516855e-09  4.90635904e-05
  0.00000000e+00  0.00000000e+00  0.00000000e+00 -8.24079935e-07
  0.00000000e+00  0.00000000e+00  0.00000000e+00  0.00000000e+00
  0.00000000e+00  0.00000000e+00  0.00000000e+00  0.00000000e+00
  0.00000000e+00  0.00000000e+00  0.00000000e+00  0.00000000e+00
  0.00000000e+00  0.00000000e+00  0.00000000e+00  0.00000000e+00
  0.00000000e+00  0.00000000e+00 -2.57012219e-06 -8.24079935e-07
  0.00000000e+00  0.00000000e+00  0.00000000e+00  3.73277601e-06]","[[-3.96935829e-05  4.75835624e-02]
 [-1.22606561e-03  2.20211462e-04]]",[],0.0,0.0
1787211075.4119914,2.012032978189425,0.19610022622975914,1.9352750627473723,"[ 5.44043589e-05 -1.21516855e-09  0.00000000e+00  0.00000000e+00
  0.00000000e+00 -2.57012219e-06 -1.21516855e-09  4.90635904e-05
  0.00000000e+00  0.00000000e+00  0.00000000e+00 -8.24079935e-07
  0.00000000e+00  0.00000000e+00  0.00000000e+00  0.00000000e+00
  0.00000000e+00  0.00000000e+00  0.00000000e+00  0.00000000e+00
  0.00000000e+00  0.00000000e+00  0.00000000e+00  0.00000000e+00
  0.00000000e+00  0.00000000e+00  0.00000000e+00  0.00000000e+00
  0.00000000e+00  0.00000000e+00 -2.57012219e-06 -8.24079935e-07
  0.00000000e+00  0.00000000e+00  0.00000000e+00  3.73277601e-06]","[[-3.96935829e-05  4.75835624e-02]
 [-1.22606561e-03  2.20211462e-04]]",[],0.0,0.0
1787211075.4570704,2.012032978189425,0.19610022622975914,1.9352750627473723,"[ 5.44043589e-05 -1.21516855e-09  0.00000000e+00  0.00000000e+00
  0.00000000e+00 -2.57012219e-06 -1.21516855e-09  4.90635904e-05
  0.00000000e+00  0.00000000e+00  0.00000000e+00 -8.24079935e-07
  0.00000000e+00  0.00000000e+00  0.00000000e+00  0.00000000e+00
  0.00000000e+00  0.00000000e+00  0.00000000e+00  0.00000000e+00
  0.00000000e+00  0.00000000e+00  0.00000000e+00  0.00000000e+00
  0.00000000e+00  0.00000000e+00  0.00000000e+00  0.00000000e+00
  0.00000000e+00  0.00000000e+00 -2.57012219e-06 -8.24079935e-07
  0.00000000e+00  0.00000000e+00  0.00000000e+00  3.73277601e-06]","[[-3.96935829e-05  4.75835624e-02]
 [-1.22606561e-03  2.20211462e-04]]",[],0.0,0.0
1787211075.5015519,2.012032978189425,0.19610022622975914,1.9352750627473723,"[ 5.44043589e-05 -1.21516855e-09  0.00000000e+00  0.00000000e+00
  0.00000000e+00 -2.57012219e-06 -1.21516855e-09  4.90635904e-05
  0.00000000e+00  0.00000000e+00  0.00000000e+00 -8.24079935e-07
  0.00000000e+00  0.00000000e+00  0.00000000e+00  0.00000000e+00
  0.00000000e+00  0.00000000e+00  0.00000000e+00  0.00000000e+00
  0.00000000e+00  0.00000000e+00  0.00000000e+00  0.00000000e+00
  0.00000000e+00  0.00000000e+00  0.00000000e+00  0.00000000e+00
  0.00000000e+00  0.00000000e+00 -2.57012219e-06 -8.24079935e-07
  0.00000000e+00  0.00000000e+00  0.00000000e+00  3.73277601e-06]","[[-3.96935829e-05  4.75835624e-02]
 [-1.22606561e-03  2.20211462e-04]]",[],0.0,0.0
1787211075.5539253,2.012032978189425,0.19610022622975914,1.9352750627473723,"[ 5.44043589e-05 -1.21516855e-09  0.00000000e+00  0.00000000e+00
  0.00000000e+00 -2.57012219e-06 -1.21516855e-09  4.90635904e-05
  0.00000000e+00  0.00000000e+00  0.00000000e+00 -8.24079935e-07
  0.00000000e+00  0.00000000e+00  0.00000000e+00  0.00000000e+00
  0.00000000e+00  0.00000000e+00  0.00000000e+00  0.00000000e+00
  0.00000000e+00  0.00000000e+00  0.00000000e+00  0.00000000e+00
  0.00000000e+00  0.00000000e+00  0.00000000e+00  0.00000000e+00
  0.00000000e+00  0.00000000e+00 -2.57012219e-06 -8.24079935e-07
  0.00000000e+00  0.00000000e+00  0.00000000e+00  3.73277601e-06]","[[-3.96935829e-05  4.75835624e-02]
 [-1.22606561e-03  2.20211462e-04]]",[],0.0,0.0
1787211075.6069899,2.012032978189425,0.19610022622975914,1.9352750627473723,"[ 5.44043589e-05 -1.21516855e-09  0.00000000e+00  0.00000000e+00
  0.00000000e+00 -2.57012219e-06 -1.21516855e-09  4.90635904e-05
  0.00000000e+00  0.00000000e+00  0.00000000e+00 -8.24079935e-07
  0.00000000e+00  0.00000000e+00  0.00000000e+00  0.00000000e+00
  0.00000000e+00  0.00000000e+00  0.00000000e+00  0.00000000e+00
  0.00000000e+00  0.00000000e+00  0.00000000e+00  0.00000000e+00
  0.00000000e+00  0.00000000e+00  0.00000000e+00  0.00000000e+00
  0.00000000e+00  0.00000000e+00 -2.57012219e-06 -8.24079935e-07
  0.00000000e+00  0.00000000e+00  0.00000000e+00  3.73277601e-06]","[[-3.96935829e-05  4.75835624e-02]
 [-1.22606561e-03  2.20211462e-04]]",[],0.0,0.0
1787211075.6517048,2.012032978189425,0.19610022622975914,1.9352750627473723,"[ 5.44043589e-05 -1.21516855e-09  0.00000000e+00  0.00000000e+00
  0.00000000e+00 -2.57012219e-06 -1.21516855e-09  4.90635904e-05
  0.00000000e+00  0.00000000e+00  0.00000000e+00 -8.24079935e-07
  0.00000000e+00  0.00000000e+00  0.00000000e+00  0.00000000e+00
  0.00000000e+00  0.00000000e+00  0.00000000e+00  0.00000000e+00
  0.00000000e+00  0.00000000e+00  0.00000000e+00  0.00000000e+00
  0.00000000e+00  0.00000000e+00  0.00000000e+00  0.00000000e+00
  0.00000000e+00  0.00000000e+00 -2.57012219e-06 -8.24079935e-07
  0.00000000e+00  0.00000000e+00  0.00000000e+00  3.73277601e-06]","[[-3.96935829e-05  4.75835624e-02]
 [-1.22606561e-03  2.20211462e-04]]",[],0.0,0.0
1787211075.7013984,2.005980060446922,0.2084271484361004,1.94951039982897,"[ 2.61609642e-05 -3.23163531e-08  0.00000000e+00  0.00000000e+00
  0.00000000e+00 -4.45114491e-07 -3.23163531e-08  2.44980905e-05
  0.00000000e+00  0.00000000e+00  0.00000000e+00 -4.12636697e-07
  0.00000000e+00  0.00000000e+00  0.00000000e+00  0.00000000e+00
  0.00000000e+00  0.00000000e+00  0.00000000e+00  0.00000000e+00
  0.00000000e+00  0.00000000e+00  0.00000000e+00  0.00000000e+00
  0.00000000e+00  0.00000000e+00  0.00000000e+00  0.00000000e+00
  0.00000000e+00  0.00000000e+00 -4.45114491e-07 -4.12636697e-07
  0.00000000e+00  0.00000000e+00  0.00000000e+00  2.87417206e-06]","[[ 0.00021592  0.01570306]
 [-0.00057863  0.00554858]]",[],0.0,0.0
1787211075.7498076,2.005980060446922,0.2084271484361004,1.94951039982897,"[ 2.61609642e-05 -3.23163531e-08  0.00000000e+00  0.00000000e+00
  0.00000000e+00 -4.45114491e-07 -3.23163531e-08  2.44980905e-05
  0.00000000e+00  0.00000000e+00  0.00000000e+00 -4.12636697e-07
  0.00000000e+00  0.00000000e+00  0.00000000e+00  0.00000000e+00
  0.00000000e+00  0.00000000e+00  0.00000000e+00  0.00000000e+00
  0.00000000e+00  0.00000000e+00  0.00000000e+00  0.00000000e+00
  0.00000000e+00  0.00000000e+00  0.00000000e+00  0.00000000e+00
  0.00000000e+00  0.00000000e+00 -4.45114491e-07 -4.12636697e-07
  0.00000000e+00  0.00000000e+00  0.00000000e+00  2.87417206e-06]","[[ 0.00021592  0.01570306]
 [-0.00057863  0.00554858]]",[],0.0,0.0
1787211075.8238544,2.005980060446922,0.2084271484361004,1.94951039982897,"[ 2.61609642e-05 -3.23163531e-08  0.00000000e+00  0.00000000e+00
  0.00000000e+00 -4.45114491e-07 -3.23163531e-08  2.44980905e-05
  0.00000000e+00  0.00000000e+00  0.00000000e+00 -4.12636697e-07
  0.00000000e+00  0.00000000e+00  0.00000000e+00  0.00000000e+00
  0.00000000e+00  0.00000000e+00  0.00000000e+00  0.00000000e+00
  0.00000000e+00  0.00000000e+00  0.00000000e+00  0.00000000e+00
  0.00000000e+00  0.00000000e+00  0.00000000e+00  0.00000000e+00
  0.00000000e+00  0.00000000e+00 -4.45114491e-07 -4.12636697e-07
  0.00000000e+00  0.00000000e+00  0.00000000e+00  2.87417206e-06]","[[ 0.00021592  0.01570306]
 [-0.00057863  0.00554858]]",[],0.0,0.0
1787211075.856459,2.005980060446922,0.2084271484361004,1.94951039982897,"[ 2.61609642e-05 -3.23163531e-08  0.00000000e+00  0.00000000e+00
  0.00000000e+00 -4.45114491e-07 -3.23163531e-08  2.44980905e-05
  0.00000000e+00  0.00000000e+00  0.00000000e+00 -4.12636697e-07
  0.00000000e+00  0.00000000e+00  0.00000000e+00  0.00000000e+00
  0.00000000e+00  0.00000000e+00  0.00000000e+00  0.00000000e+00
  0.00000000e+00  0.00000000e+00  0.00000000e+00  0.00000000e+00
  0.00000000e+00  0.00000000e+00  0.00000000e+00  0.00000000e+00
  0.00000000e+00  0.00000000e+00 -4.45114491e-07 -4.12636697e-07
  0.00000000e+00  0.00000000e+00  0.00000000e+00  2.87417206e-06]","[[ 0.00021592  0.01570306]
 [-0.00057863  0.00554858]]",[],0.0,0.0
1787211075.9102368,2.005980060446922,0.2084271484361004,1.94951039982897,"[ 2.61609642e-05 -3.23163531e-08  0.00000000e+00  0.00000000e+00
  0.00000000e+00 -4.45114491e-07 -3.23163531e-08  2.44980905e-05
  0.00000000e+00  0.00000000e+00  0.00000000e+00 -4.12636697e-07
  0.00000000e+00  0.00000000e+00  0.00000000e+00  0.00000000e+00
  0.00000000e+00  0.00000000e+00  0.00000000e+00  0.00000000e+00
  0.00000000e+00  0.00000000e+00  0.00000000e+00  0.00000000e+00
  0.00000000e+00  0.00000000e+00  0.00000000e+00  0.00000000e+00
  0.00000000e+00  0.00000000e+00 -4.45114491e-07 -4.12636697e-07
  0.00000000e+00  0.00000000e+00  0.00000000e+00  2.87417206e-06]","[[ 0.00021592  0.01570306]
 [-0.00057863  0.00554858]]",[],0.0,0.0
1787211075.9782777,2.005980060446922,0.2084271484361004,1.94951039982897,"[ 2.61609642e-05 -3.23163531e-08  0.00000000e+00  0.00000000e+00
  0.00000000e+00 -4.45114491e-07 -3.23163531e-08  2.44980905e-05
  0.00000000e+00  0.00000000e+00  0.00000000e+00 -4.12636697e-07
  0.00000000e+00  0.00000000e+00  0.00000000e+00  0.00000000e+00
  0.00000000e+00  0.00000000e+00  0.00000000e+00  0.00000000e+00
  0.00000000e+00  0.00000000e+00  0.00000000e+00  0.00000000e+00
  0.00000000e+00  0.00000000e+00  0.00000000e+00  0.00000000e+00
  0.00000000e+00  0.00000000e+00 -4.45114491e-07 -4.12636697e-07
  0.00000000e+00  0.00000000e+00  0.00000000e+00  2.87417206e-06]","[[ 0.00021592  0.01570306]
 [-0.00057863  0.00554858]]",[],0.0,0.0
1787211076.0029614,2.005980060446922,0.2084271484361004,1.94951039982897,"[ 2.61609642e-05 -3.23163531e-08  0.00000000e+00  0.00000000e+00
  0.00000000e+00 -4.45114491e-07 -3.23163531e-08  2.44980905e-05
  0.00000000e+00  0.00000000e+00  0.00000000e+00 -4.12636697e-07
  0.00000000e+00  0.00000000e+00  0.00000000e+00  0.00000000e+00
  0.00000000e+00  0.00000000e+00  0.00000000e+00  0.00000000e+00
  0.00000000e+00  0.00000000e+00  0.00000000e+00  0.00000000e+00
  0.00000000e+00  0.00000000e+00  0.00000000e+00  0.00000000e+00
  0.00000000e+00  0.00000000e+00 -4.45114491e-07 -4.12636697e-07
  0.00000000e+00  0.00000000e+00  0.00000000e+00  2.87417206e-06]","[[ 0.00021592  0.01570306]
 [-0.00057863  0.00554858]]",[],0.0,0.0
1787211076.0511925,2.005980060446922,0.2084271484361004,1.94951039982897,"[ 2.61609642e-05 -3.23163531e-08  0.00000000e+00  0.00000000e+00
  0.00000000e+00 -4.45114491e-07 -3.23163531e-08  2.44980905e-05
  0.00000000e+00  0.00000000e+00  0.00000000e+00 -4.12636697e-07
  0.00000000e+00  0.00000000e+00  0.00000000e+00  0.00000000e+00
  0.00000000e+00  0.00000000e+00  0.00000000e+00  0.00000000e+00
  0.00000000e+00  0.00000000e+00  0.00000000e+00  0.00000000e+00
  0.00000000e+00  0.00000000e+00  0.00000000e+00  0.00000000e+00
  0.00000000e+00  0.00000000e+00 -4.45114491e-07 -4.12636697e-07
  0.00000000e+00  0.00000000e+00  0.00000000e+00  2.87417206e-06]","[[ 0.00021592  0.01570306]
 [-0.00057863  0.00554858]]",[],0.0,0.0
1787211076.1366959,2.005980060446922,0.2084271484361004,1.94951039982897,"[ 2.61609642e-05 -3.23163531e-08  0.00000000e+00  0.00000000e+00
  0.00000000e+00 -4.45114491e-07 -3.23163531e-08  2.44980905e-05
  0.00000000e+00  0.00000000e+00  0.00000000e+00 -4.12636697e-07
  0.00000000e+00  0.00000000e+00  0.00000000e+00  0.00000000e+00
  0.00000000e+00  0.00000000e+00  0.00000000e+00  0.00000000e+00
  0.00000000e+00  0.00000000e+00  0.00000000e+00  0.00000000e+00
  0.00000000e+00  0.00000000e+00  0.00000000e+00  0.00000000e+00
  0.00000000e+00  0.00000000e+00 -4.45114491e-07 -4.12636697e-07
  0.00000000e+00  0.00000000e+00  0.00000000e+00  2.87417206e-06]","[[ 0.00021592  0.01570306]
 [-0.00057863  0.00554858]]",[],0.0,0.0
1787211076.1620245,2.005980060446922,0.2084271484361004,1.94951039982897,"[ 2.61609642e-05 -3.23163531e-08  0.00000000e+00  0.00000000e+00
  0.00000000e+00 -4.45114491e-07 -3.23163531e-08  2.44980905e-05
  0.00000000e+00  0.00000000e+00  0.00000000e+00 -4.12636697e-07
  0.00000000e+00  0.00000000e+00  0.00000000e+00  0.00000000e+00
  0.00000000e+00  0.00000000e+00  0.00000000e+00  0.00000000e+00
  0.00000000e+00  0.00000000e+00  0.00000000e+00  0.00000000e+00
  0.00000000e+00  0.00000000e+00  0.00000000e+00  0.00000000e+00
  0.00000000e+00  0.00000000e+00 -4.45114491e-07 -4.12636697e-07
  0.00000000e+00  0.00000000e+00  0.00000000e+00  2.87417206e-06]","[[ 0.00021592  0.01570306]
 [-0.00057863  0.00554858]]",[],0.0,0.0
1787211076.2099075,2.005980060446922,0.2084271484361004,1.94951039982897,"[ 2.61609642e-05 -3.23163531e-08  0.00000000e+00  0.00000000e+00
  0.00000000e+00 -4.45114491e-07 -3.23163531e-08  2.44980905e-05
  0.00000000e+00  0.00000000e+00  0.00000000e+00 -4.12636697e-07
  0.00000000e+00  0.00000000e+00  0.00000000e+00  0.00000000e+00
  0.00000000e+00  0.00000000e+00  0.00000000e+00  0.00000000e+00
  0.00000000e+00  0.00000000e+00  0.00000000e+00  0.00000000e+00
  0.00000000e+00  0.00000000e+00  0.00000000e+00  0.00000000e+00
  0.00000000e+00  0.00000000e+00 -4.45114491e-07 -4.12636697e-07
  0.00000000e+00  0.00000000e+00  0.00000000e+00  2.87417206e-06]","[[ 0.00021592  0.01570306]
 [-0.00057863  0.00554858]]",[],0.0,0.0
1787211076.3071308,2.005980060446922,0.2084271484361004,1.94951039982897,"[ 2.61609642e-05 -3.23163531e-08  0.00000000e+00  0.00000000e+00
  0.00000000e+00 -4.45114491e-07 -3.23163531e-08  2.44980905e-05
  0.00000000e+00  0.00000000e+00  0.00000000e+00 -4.12636697e-07
  0.00000000e+00  0.00000000e+00  0.00000000e+00  0.00000000e+00
  0.00000000e+00  0.00000000e+00  0.00000000e+00  0.00000000e+00
  0.00000000e+00  0.00000000e+00  0.00000000e+00  0.00000000e+00
  0.00000000e+00  0.00000000e+00  0.00000000e+00  0.00000000e+00
  0.00000000e+00  0.00000000e+00 -4.45114491e-07 -4.12636697e-07
  0.00000000e+00  0.00000000e+00  0.00000000e+00  2.87417206e-06]","[[ 0.00021592  0.01570306]
 [-0.00057863  0.00554858]]",[],0.0,0.0
1787211076.3541415,2.005980060446922,0.2084271484361004,1.94951039982897,"[ 2.61609642e-05 -3.23163531e-08  0.00000000e+00  0.00000000e+00
  0.00000000e+00 -4.45114491e-07 -3.23163531e-08  2.44980905e-05
  0.00000000e+00  0.00000000e+00  0.00000000e+00 -4.12636697e-07
  0.00000000e+00  0.00000000e+00  0.00000000e+00  0.00000000e+00
  0.00000000e+00  0.00000000e+00  0.00000000e+00  0.00000000e+00
  0.00000000e+00  0.00000000e+00  0.00000000e+00  0.00000000e+00
  0.00000000e+00  0.00000000e+00  0.00000000e+00  0.00000000e+00
  0.00000000e+00  0.00000000e+00 -4.45114491e-07 -4.12636697e-07
  0.00000000e+00  0.00000000e+00  0.00000000e+00  2.87417206e-06]","[[ 0.00021592  0.01570306]
 [-0.00057863  0.00554858]]",[],0.0,0.0
1787211076.4485998,2.0092769444405065,0.2125529852899081,1.9607898463073221,"[ 1.69681646e-05 -2.44934158e-07  0.00000000e+00  0.00000000e+00
  0.00000000e+00 -1.82570281e-07 -2.44934158e-07  1.63606026e-05
  0.00000000e+00  0.00000000e+00  0.00000000e+00 -2.51275575e-07
  0.00000000e+00  0.00000000e+00  0.00000000e+00  0.00000000e+00
  0.00000000e+00  0.00000000e+00  0.00000000e+00  0.00000000e+00
  0.00000000e+00  0.00000000e+00  0.00000000e+00  0.00000000e+00
  0.00000000e+00  0.00000000e+00  0.00000000e+00  0.00000000e+00
  0.00000000e+00  0.00000000e+00 -1.82570281e-07 -2.51275575e-07
  0.00000000e+00  0.00000000e+00  0.00000000e+00  2.76211366e-06]","[[ 0.00016887  0.00949254]
 [-0.00037989  0.00399832]]",[],0.0,0.0
1787211076.449463,2.0092769444405065,0.2125529852899081,1.9607898463073221,"[ 1.69681646e-05 -2.44934158e-07  0.00000000e+00  0.00000000e+00
  0.00000000e+00 -1.82570281e-07 -2.44934158e-07  1.63606026e-05
  0.00000000e+00  0.00000000e+00  0.00000000e+00 -2.51275575e-07
  0.00000000e+00  0.00000000e+00  0.00000000e+00  0.00000000e+00
  0.00000000e+00  0.00000000e+00  0.00000000e+00  0.00000000e+00
  0.00000000e+00  0.00000000e+00  0.00000000e+00  0.00000000e+00
  0.00000000e+00  0.00000000e+00  0.00000000e+00  0.00000000e+00
  0.00000000e+00  0.00000000e+00 -1.82570281e-07 -2.51275575e-07
  0.00000000e+00  0.00000000e+00  0.00000000e+00  2.76211366e-06]","[[ 0.00016887  0.00949254]
 [-0.00037989  0.00399832]]",[],0.0,0.0
1787211076.499648,2.0092769444405065,0.2125529852899081,1.9607898463073221,"[ 1.69681646e-05 -2.44934158e-07  0.00000000e+00  0.00000000e+00
  0.00000000e+00 -1.82570281e-07 -2.44934158e-07  1.63606026e-05
  0.00000000e+00  0.00000000e+00  0.00000000e+00 -2.51275575e-07
  0.00000000e+00  0.00000000e+00  0.00000000e+00  0.00000000e+00
  0.00000000e+00  0.00000000e+00  0.00000000e+00  0.00000000e+00
  0.00000000e+00  0.00000000e+00  0.00000000e+00  0.00000000e+00
  0.00000000e+00  0.00000000e+00  0.00000000e+00  0.00000000e+00
  0.00000000e+00  0.00000000e+00 -1.82570281e-07 -2.51275575e-07
  0.00000000e+00  0.00000000e+00  0.00000000e+00  2.76211366e-06]","[[ 0.00016887  0.00949254]
 [-0.00037989  0.00399832]]",[],0.0,0.0
1787211076.552232,2.0092769444405065,0.2125529852899081,1.9607898463073221,"[ 1.69681646e-05 -2.44934158e-07  0.00000000e+00  0.00000000e+00
  0.00000000e+00 -1.82570281e-07 -2.44934158e-07  1.63606026e-05
  0.00000000e+00  0.00000000e+00  0.00000000e+00 -2.51275575e-07
  0.00000000e+00  0.00000000e+00  0.00000000e+00  0.00000000e+00
  0.00000000e+00  0.00000000e+00  0.00000000e+00  0.00000000e+00
  0.00000000e+00  0.00000000e+00  0.00000000e+00  0.00000000e+00
  0.00000000e+00  0.00000000e+00  0.00000000e+00  0.00000000e+00
  0.00000000e+00  0.00000000e+00 -1.82570281e-07 -2.51275575e-07
  0.00000000e+00  0.00000000e+00  0.00000000e+00  2.76211366e-06]","[[ 0.00016887  0.00949254]
 [-0.00037989  0.00399832]]",[],0.0,0.0
1787211076.6026106,2.0092769444405065,0.2125529852899081,1.9607898463073221,"[ 1.69681646e-05 -2.44934158e-07  0.00000000e+00  0.00000000e+00
  0.00000000e+00 -1.82570281e-07 -2.44934158e-07  1.63606026e-05
  0.00000000e+00  0.00000000e+00  0.00000000e+00 -2.51275575e-07
  0.00000000e+00  0.00000000e+00  0.00000000e+00  0.00000000e+00
  0.00000000e+00  0.00000000e+00  0.00000000e+00  0.00000000e+00
  0.00000000e+00  0.00000000e+00  0.00000000e+00  0.00000000e+00
  0.00000000e+00  0.00000000e+00  0.00000000e+00  0.00000000e+00
  0.00000000e+00  0.00000000e+00 -1.82570281e-07 -2.51275575e-07
  0.00000000e+00  0.00000000e+00  0.00000000e+00  2.76211366e-06]","[[ 0.00016887  0.00949254]
 [-0.00037989  0.00399832]]",[],0.0,0.0
1787211076.7061443,2.0092769444405065,0.2125529852899081,1.9607898463073221,"[ 1.69681646e-05 -2.44934158e-07  0.00000000e+00  0.00000000e+00
  0.00000000e+00 -1.82570281e-07 -2.44934158e-07  1.63606026e-05
  0.00000000e+00  0.00000000e+00  0.00000000e+00 -2.51275575e-07
  0.00000000e+00  0.00000000e+00  0.00000000e+00  0.00000000e+00
  0.00000000e+00  0.00000000e+00  0.00000000e+00  0.00000000e+00
  0.00000000e+00  0.00000000e+00  0.00000000e+00  0.00000000e+00
  0.00000000e+00  0.00000000e+00  0.00000000e+00  0.00000000e+00
  0.00000000e+00  0.00000000e+00 -1.82570281e-07 -2.51275575e-07
  0.00000000e+00  0.00000000e+00  0.00000000e+00  2.76211366e-06]","[[ 0.00016887  0.00949254]
 [-0.00037989  0.00399832]]",[],0.0,0.0
1787211076.749161,2.0092769444405065,0.2125529852899081,1.9607898463073221,"[ 1.69681646e-05 -2.44934158e-07  0.00000000e+00  0.00000000e+00
  0.00000000e+00 -1.82570281e-07 -2.44934158e-07  1.63606026e-05
  0.00000000e+00  0.00000000e+00  0.00000000e+00 -2.51275575e-07
  0.00000000e+00  0.00000000e+00  0.00000000e+00  0.00000000e+00
  0.00000000e+00  0.00000000e+00  0.00000000e+00  0.00000000e+00
  0.00000000e+00  0.00000000e+00  0.00000000e+00  0.00000000e+00
  0.00000000e+00  0.00000000e+00  0.00000000e+00  0.00000000e+00
  0.00000000e+00  0.00000000e+00 -1.82570281e-07 -2.51275575e-07
  0.00000000e+00  0.00000000e+00  0.00000000e+00  2.76211366e-06]","[[ 0.00016887  0.00949254]
 [-0.00037989  0.00399832]]",[],0.0,0.0
1787211076.800938,2.0092769444405065,0.2125529852899081,1.9607898463073221,"[ 1.69681646e-05 -2.44934158e-07  0.00000000e+00  0.00000000e+00
  0.00000000e+00 -1.82570281e-07 -2.44934158e-07  1.63606026e-05
  0.00000000e+00  0.00000000e+00  0.00000000e+00 -2.51275575e-07
  0.00000000e+00  0.00000000e+00  0.00000000e+00  0.00000000e+00
  0.00000000e+00  0.00000000e+00  0.00000000e+00  0.00000000e+00
  0.00000000e+00  0.00000000e+00  0.00000000e+00  0.00000000e+00
  0.00000000e+00  0.00000000e+00  0.00000000e+00  0.00000000e+00
  0.00000000e+00  0.00000000e+00 -1.82570281e-07 -2.51275575e-07
  0.00000000e+00  0.00000000e+00  0.00000000e+00  2.76211366e-06]","[[ 0.00016887  0.00949254]
 [-0.00037989  0.00399832]]",[],0.0,0.0
1787211076.8514216,2.0092769444405065,0.2125529852899081,1.9607898463073221,"[ 1.69681646e-05 -2.44934158e-07  0.00000000e+00  0.00000000e+00
  0.00000000e+00 -1.82570281e-07 -2.44934158e-07  1.63606026e-05
  0.00000000e+00  0.00000000e+00  0.00000000e+00 -2.51275575e-07
  0.00000000e+00  0.00000000e+00  0.00000000e+00  0.00000000e+00
  0.00000000e+00  0.00000000e+00  0.00000000e+00  0.00000000e+00
  0.00000000e+00  0.00000000e+00  0.00000000e+00  0.00000000e+00
  0.00000000e+00  0.00000000e+00  0.00000000e+00  0.00000000e+00
  0.00000000e+00  0.00000000e+00 -1.82570281e-07 -2.51275575e-07
  0.00000000e+00  0.00000000e+00  0.00000000e+00  2.76211366e-06]","[[ 0.00016887  0.00949254]
 [-0.00037989  0.00399832]]",[],0.0,0.0
1787211076.9003904,2.0092769444405065,0.2125529852899081,1.9607898463073221,"[ 1.69681646e-05 -2.44934158e-07  0.00000000e+00  0.00000000e+00
  0.00000000e+00 -1.82570281e-07 -2.44934158e-07  1.63606026e-05
  0.00000000e+00  0.00000000e+00  0.00000000e+00 -2.51275575e-07
  0.00000000e+00  0.00000000e+00  0.00000000e+00  0.00000000e+00
  0.00000000e+00  0.00000000e+00  0.00000000e+00  0.00000000e+00
  0.00000000e+00  0.00000000e+00  0.00000000e+00  0.00000000e+00
  0.00000000e+00  0.00000000e+00  0.00000000e+00  0.00000000e+00
  0.00000000e+00  0.00000000e+00 -1.82570281e-07 -2.51275575e-07
  0.00000000e+00  0.00000000e+00  0.00000000e+00  2.76211366e-06]","[[ 0.00016887  0.00949254]
 [-0.00037989  0.00399832]]",[],0.0,0.0
1787211076.9585845,2.0092769444405065,0.2125529852899081,1.9607898463073221,"[ 1.69681646e-05 -2.44934158e-07  0.00000000e+00  0.00000000e+00
  0.00000000e+00 -1.82570281e-07 -2.44934158e-07  1.63606026e-05
  0.00000000e+00  0.00000000e+00  0.00000000e+00 -2.51275575e-07
  0.00000000e+00  0.00000000e+00  0.00000000e+00  0.00000000e+00
  0.00000000e+00  0.00000000e+00  0.00000000e+00  0.00000000e+00
  0.00000000e+00  0.00000000e+00  0.00000000e+00  0.00000000e+00
  0.00000000e+00  0.00000000e+00  0.00000000e+00  0.00000000e+00
  0.00000000e+00  0.00000000e+00 -1.82570281e-07 -2.51275575e-07
  0.00000000e+00  0.00000000e+00  0.00000000e+00  2.76211366e-06]","[[ 0.00016887  0.00949254]
 [-0.00037989  0.00399832]]",[],0.0,0.0
1787211077.0086744,2.0092769444405065,0.2125529852899081,1.9607898463073221,"[ 1.69681646e-05 -2.44934158e-07  0.00000000e+00  0.00000000e+00
  0.00000000e+00 -1.82570281e-07 -2.44934158e-07  1.63606026e-05
  0.00000000e+00  0.00000000e+00  0.00000000e+00 -2.51275575e-07
  0.00000000e+00  0.00000000e+00  0.00000000e+00  0.00000000e+00
  0.00000000e+00  0.00000000e+00  0.00000000e+00  0.00000000e+00
  0.00000000e+00  0.00000000e+00  0.00000000e+00  0.00000000e+00
  0.00000000e+00  0.00000000e+00  0.00000000e+00  0.00000000e+00
  0.00000000e+00  0.00000000e+00 -1.82570281e-07 -2.51275575e-07
  0.00000000e+00  0.00000000e+00  0.00000000e+00  2.76211366e-06]","[[ 0.00016887  0.00949254]
 [-0.00037989  0.00399832]]",[],0.0,0.0
1787211077.0519857,2.0092769444405065,0.2125529852899081,1.9607898463073221,"[ 1.69681646e-05 -2.44934158e-07  0.00000000e+00  0.00000000e+00
  0.00000000e+00 -1.82570281e-07 -2.44934158e-07  1.63606026e-05
  0.00000000e+00  0.00000000e+00  0.00000000e+00 -2.51275575e-07
  0.00000000e+00  0.00000000e+00  0.00000000e+00  0.00000000e+00
  0.00000000e+00  0.00000000e+00  0.00000000e+00  0.00000000e+00
  0.00000000e+00  0.00000000e+00  0.00000000e+00  0.00000000e+00
  0.00000000e+00  0.00000000e+00  0.00000000e+00  0.00000000e+00
  0.00000000e+00  0.00000000e+00 -1.82570281e-07 -2.51275575e-07
  0.00000000e+00  0.00000000e+00  0.00000000e+00  2.76211366e-06]","[[ 0.00016887  0.00949254]
 [-0.00037989  0.00399832]]",[],0.0,0.0
1787211077.1000738,2.0092769444405065,0.2125529852899081,1.9607898463073221,"[ 1.69681646e-05 -2.44934158e-07  0.00000000e+00  0.00000000e+00
  0.00000000e+00 -1.82570281e-07 -2.44934158e-07  1.63606026e-05
  0.00000000e+00  0.00000000e+00  0.00000000e+00 -2.51275575e-07
  0.00000000e+00  0.00000000e+00  0.00000000e+00  0.00000000e+00
  0.00000000e+00  0.00000000e+00  0.00000000e+00  0.00000000e+00
  0.00000000e+00  0.00000000e+00  0.00000000e+00  0.00000000e+00
  0.00000000e+00  0.00000000e+00  0.00000000e+00  0.00000000e+00
  0.00000000e+00  0.00000000e+00 -1.82570281e-07 -2.51275575e-07
  0.00000000e+00  0.00000000e+00  0.00000000e+00  2.76211366e-06]","[[ 0.00016887  0.00949254]
 [-0.00037989  0.00399832]]",[],0.0,0.0
1787211077.1489856,2.012180639704151,0.21258590133434055,1.968577227990444,"[ 1.24532674e-05 -2.59157846e-07  0.00000000e+00  0.00000000e+00
  0.00000000e+00 -1.71078045e-07 -2.59157846e-07  1.22048875e-05
  0.00000000e+00  0.00000000e+00  0.00000000e+00 -2.11502629e-07
  0.00000000e+00  0.00000000e+00  0.00000000e+00  0.00000000e+00
  0.00000000e+00  0.00000000e+00  0.00000000e+00  0.00000000e+00
  0.00000000e+00  0.00000000e+00  0.00000000e+00  0.00000000e+00
  0.00000000e+00  0.00000000e+00  0.00000000e+00  0.00000000e+00
  0.00000000e+00  0.00000000e+00 -1.71078045e-07 -2.11502629e-07
  0.00000000e+00  0.00000000e+00  0.00000000e+00  2.76838457e-06]","[[ 0.00012624  0.00701124]
 [-0.00028394  0.00299434]]",[],0.0,0.0
1787211077.2111585,2.012180639704151,0.21258590133434055,1.968577227990444,"[ 1.24532674e-05 -2.59157846e-07  0.00000000e+00  0.00000000e+00
  0.00000000e+00 -1.71078045e-07 -2.59157846e-07  1.22048875e-05
  0.00000000e+00  0.00000000e+00  0.00000000e+00 -2.11502629e-07
  0.00000000e+00  0.00000000e+00  0.00000000e+00  0.00000000e+00
  0.00000000e+00  0.00000000e+00  0.00000000e+00  0.00000000e+00
  0.00000000e+00  0.00000000e+00  0.00000000e+00  0.00000000e+00
  0.00000000e+00  0.00000000e+00  0.00000000e+00  0.00000000e+00
  0.00000000e+00  0.00000000e+00 -1.71078045e-07 -2.11502629e-07
  0.00000000e+00  0.00000000e+00  0.00000000e+00  2.76838457e-06]","[[ 0.00012624  0.00701124]
 [-0.00028394  0.00299434]]",[],0.0,0.0
1787211077.2499435,2.012180639704151,0.21258590133434055,1.968577227990444,"[ 1.24532674e-05 -2.59157846e-07  0.00000000e+00  0.00000000e+00
  0.00000000e+00 -1.71078045e-07 -2.59157846e-07  1.22048875e-05
  0.00000000e+00  0.00000000e+00  0.00000000e+00 -2.11502629e-07
  0.00000000e+00  0.00000000e+00  0.00000000e+00  0.00000000e+00
  0.00000000e+00  0.00000000e+00  0.00000000e+00  0.00000000e+00
  0.00000000e+00  0.00000000e+00  0.00000000e+00  0.00000000e+00
  0.00000000e+00  0.00000000e+00  0.00000000e+00  0.00000000e+00
  0.00000000e+00  0.00000000e+00 -1.71078045e-07 -2.11502629e-07
  0.00000000e+00  0.00000000e+00  0.00000000e+00  2.76838457e-06]","[[ 0.00012624  0.00701124]
 [-0.00028394  0.00299434]]",[],0.0,0.0
1787211077.302115,2.012180639704151,0.21258590133434055,1.968577227990444,"[ 1.24532674e-05 -2.59157846e-07  0.00000000e+00  0.00000000e+00
  0.00000000e+00 -1.71078045e-07 -2.59157846e-07  1.22048875e-05
  0.00000000e+00  0.00000000e+00  0.00000000e+00 -2.11502629e-07
  0.00000000e+00  0.00000000e+00  0.00000000e+00  0.00000000e+00
  0.00000000e+00  0.00000000e+00  0.00000000e+00  0.00000000e+00
  0.00000000e+00  0.00000000e+00  0.00000000e+00  0.00000000e+00
  0.00000000e+00  0.00000000e+00  0.00000000e+00  0.00000000e+00
  0.00000000e+00  0.00000000e+00 -1.71078045e-07 -2.11502629e-07
  0.00000000e+00  0.00000000e+00  0.00000000e+00  2.76838457e-06]","[[ 0.00012624  0.00701124]
 [-0.00028394  0.00299434]]",[],0.0,0.0
1787211077.3513842,2.012180639704151,0.21258590133434055,1.968577227990444,"[ 1.24532674e-05 -2.59157846e-07  0.00000000e+00  0.00000000e+00
  0.00000000e+00 -1.71078045e-07 -2.59157846e-07  1.22048875e-05
  0.00000000e+00  0.00000000e+00  0.00000000e+00 -2.11502629e-07
  0.00000000e+00  0.00000000e+00  0.00000000e+00  0.00000000e+00
  0.00000000e+00  0.00000000e+00  0.00000000e+00  0.00000000e+00
  0.00000000e+00  0.00000000e+00  0.00000000e+00  0.00000000e+00
  0.00000000e+00  0.00000000e+00  0.00000000e+00  0.00000000e+00
  0.00000000e+00  0.00000000e+00 -1.71078045e-07 -2.11502629e-07
  0.00000000e+00  0.00000000e+00  0.00000000e+00  2.76838457e-06]","[[ 0.00012624  0.00701124]
 [-0.00028394  0.00299434]]",[],0.0,0.0
1787211077.4056273,2.012180639704151,0.21258590133434055,1.968577227990444,"[ 1.24532674e-05 -2.59157846e-07  0.00000000e+00  0.00000000e+00
  0.00000000e+00 -1.71078045e-07 -2.59157846e-07  1.22048875e-05
  0.00000000e+00  0.00000000e+00  0.00000000e+00 -2.11502629e-07
  0.00000000e+00  0.00000000e+00  0.00000000e+00  0.00000000e+00
  0.00000000e+00  0.00000000e+00  0.00000000e+00  0.00000000e+00
  0.00000000e+00  0.00000000e+00  0.00000000e+00  0.00000000e+00
  0.00000000e+00  0.00000000e+00  0.00000000e+00  0.00000000e+00
  0.00000000e+00  0.00000000e+00 -1.71078045e-07 -2.11502629e-07
  0.00000000e+00  0.00000000e+00  0.00000000e+00  2.76838457e-06]","[[ 0.00012624  0.00701124]
 [-0.00028394  0.00299434]]",[],0.0,0.0
1787211077.4504092,2.012180639704151,0.21258590133434055,1.968577227990444,"[ 1.24532674e-05 -2.59157846e-07  0.00000000e+00  0.00000000e+00
  0.00000000e+00 -1.71078045e-07 -2.59157846e-07  1.22048875e-05
  0.00000000e+00  0.00000000e+00  0.00000000e+00 -2.11502629e-07
  0.00000000e+00  0.00000000e+00  0.00000000e+00  0.00000000e+00
  0.00000000e+00  0.00000000e+00  0.00000000e+00  0.00000000e+00
  0.00000000e+00  0.00000000e+00  0.00000000e+00  0.00000000e+00
  0.00000000e+00  0.00000000e+00  0.00000000e+00  0.00000000e+00
  0.00000000e+00  0.00000000e+00 -1.71078045e-07 -2.11502629e-07
  0.00000000e+00  0.00000000e+00  0.00000000e+00  2.76838457e-06]","[[ 0.00012624  0.00701124]
 [-0.00028394  0.00299434]]",[],0.0,0.0
1787211077.4991293,2.012180639704151,0.21258590133434055,1.968577227990444,"[ 1.24532674e-05 -2.59157846e-07  0.00000000e+00  0.00000000e+00
  0.00000000e+00 -1.71078045e-07 -2.59157846e-07  1.22048875e-05
  0.00000000e+00  0.00000000e+00  0.00000000e+00 -2.11502629e-07
  0.00000000e+00  0.00000000e+00  0.00000000e+00  0.00000000e+00
  0.00000000e+00  0.00000000e+00  0.00000000e+00  0.00000000e+00
  0.00000000e+00  0.00000000e+00  0.00000000e+00  0.00000000e+00
  0.00000000e+00  0.00000000e+00  0.00000000e+00  0.00000000e+00
  0.00000000e+00  0.00000000e+00 -1.71078045e-07 -2.11502629e-07
  0.00000000e+00  0.00000000e+00  0.00000000e+00  2.76838457e-06]","[[ 0.00012624  0.00701124]
 [-0.00028394  0.00299434]]",[],0.0,0.0
1787211077.5533488,2.012180639704151,0.21258590133434055,1.968577227990444,"[ 1.24532674e-05 -2.59157846e-07  0.00000000e+00  0.00000000e+00
  0.00000000e+00 -1.71078045e-07 -2.59157846e-07  1.22048875e-05
  0.00000000e+00  0.00000000e+00  0.00000000e+00 -2.11502629e-07
  0.00000000e+00  0.00000000e+00  0.00000000e+00  0.00000000e+00
  0.00000000e+00  0.00000000e+00  0.00000000e+00  0.00000000e+00
  0.00000000e+00  0.00000000e+00  0.00000000e+00  0.00000000e+00
  0.00000000e+00  0.00000000e+00  0.00000000e+00  0.00000000e+00
  0.00000000e+00  0.00000000e+00 -1.71078045e-07 -2.11502629e-07
  0.00000000e+00  0.00000000e+00  0.00000000e+00  2.76838457e-06]","[[ 0.00012624  0.00701124]
 [-0.00028394  0.00299434]]",[],0.0,0.0
1787211077.604577,2.012180639704151,0.21258590133434055,1.968577227990444,"[ 1.24532674e-05 -2.59157846e-07  0.00000000e+00  0.00000000e+00
  0.00000000e+00 -1.71078045e-07 -2.59157846e-07  1.22048875e-05
  0.00000000e+00  0.00000000e+00  0.00000000e+00 -2.11502629e-07
  0.00000000e+00  0.00000000e+00  0.00000000e+00  0.00000000e+00
  0.00000000e+00  0.00000000e+00  0.00000000e+00  0.00000000e+00
  0.00000000e+00  0.00000000e+00  0.00000000e+00  0.00000000e+00
  0.00000000e+00  0.00000000e+00  0.00000000e+00  0.00000000e+00
  0.00000000e+00  0.00000000e+00 -1.71078045e-07 -2.11502629e-07
  0.00000000e+00  0.00000000e+00  0.00000000e+00  2.76838457e-06]","[[ 0.00012624  0.00701124]
 [-0.00028394  0.00299434]]",[],0.0,0.0
1787211077.649662,2.012180639704151,0.21258590133434055,1.968577227990444,"[ 1.24532674e-05 -2.59157846e-07  0.00000000e+00  0.00000000e+00
  0.00000000e+00 -1.71078045e-07 -2.59157846e-07  1.22048875e-05
  0.00000000e+00  0.00000000e+00  0.00000000e+00 -2.11502629e-07
  0.00000000e+00  0.00000000e+00  0.00000000e+00  0.00000000e+00
  0.00000000e+00  0.00000000e+00  0.00000000e+00  0.00000000e+00
  0.00000000e+00  0.00000000e+00  0.00000000e+00  0.00000000e+00
  0.00000000e+00  0.00000000e+00  0.00000000e+00  0.00000000e+00
  0.00000000e+00  0.00000000e+00 -1.71078045e-07 -2.11502629e-07
  0.00000000e+00  0.00000000e+00  0.00000000e+00  2.76838457e-06]","[[ 0.00012624  0.00701124]
 [-0.00028394  0.00299434]]",[],0.0,0.0
1787211077.702057,2.012180639704151,0.21258590133434055,1.968577227990444,"[ 1.24532674e-05 -2.59157846e-07  0.00000000e+00  0.00000000e+00
  0.00000000e+00 -1.71078045e-07 -2.59157846e-07  1.22048875e-05
  0.00000000e+00  0.00000000e+00  0.00000000e+00 -2.11502629e-07
  0.00000000e+00  0.00000000e+00  0.00000000e+00  0.00000000e+00
  0.00000000e+00  0.00000000e+00  0.00000000e+00  0.00000000e+00
  0.00000000e+00  0.00000000e+00  0.00000000e+00  0.00000000e+00
  0.00000000e+00  0.00000000e+00  0.00000000e+00  0.00000000e+00
  0.00000000e+00  0.00000000e+00 -1.71078045e-07 -2.11502629e-07
  0.00000000e+00  0.00000000e+00  0.00000000e+00  2.76838457e-06]","[[ 0.00012624  0.00701124]
 [-0.00028394  0.00299434]]",[],0.0,0.0
1787211077.7509208,2.012180639704151,0.21258590133434055,1.968577227990444,"[ 1.24532674e-05 -2.59157846e-07  0.00000000e+00  0.00000000e+00
  0.00000000e+00 -1.71078045e-07 -2.59157846e-07  1.22048875e-05
  0.00000000e+00  0.00000000e+00  0.00000000e+00 -2.11502629e-07
  0.00000000e+00  0.00000000e+00  0.00000000e+00  0.00000000e+00
  0.00000000e+00  0.00000000e+00  0.00000000e+00  0.00000000e+00
  0.00000000e+00  0.00000000e+00  0.00000000e+00  0.00000000e+00
  0.00000000e+00  0.00000000e+00  0.00000000e+00  0.00000000e+00
  0.00000000e+00  0.00000000e+00 -1.71078045e-07 -2.11502629e-07
  0.00000000e+00  0.00000000e+00  0.00000000e+00  2.76838457e-06]","[[ 0.00012624  0.00701124]
 [-0.00028394  0.00299434]]",[],0.0,0.0
1787211077.800003,2.012180639704151,0.21258590133434055,1.968577227990444,"[ 1.24532674e-05 -2.59157846e-07  0.00000000e+00  0.00000000e+00
  0.00000000e+00 -1.71078045e-07 -2.59157846e-07  1.22048875e-05
  0.00000000e+00  0.00000000e+00  0.00000000e+00 -2.11502629e-07
  0.00000000e+00  0.00000000e+00  0.00000000e+00  0.00000000e+00
  0.00000000e+00  0.00000000e+00  0.00000000e+00  0.00000000e+00
  0.00000000e+00  0.00000000e+00  0.00000000e+00  0.00000000e+00
  0.00000000e+00  0.00000000e+00  0.00000000e+00  0.00000000e+00
  0.00000000e+00  0.00000000e+00 -1.71078045e-07 -2.11502629e-07
  0.00000000e+00  0.00000000e+00  0.00000000e+00  2.76838457e-06]","[[ 0.00012624  0.00701124]
 [-0.00028394  0.00299434]]",[],0.0,0.0
1787211077.8510149,2.012180639704151,0.21258590133434055,1.968577227990444,"[ 1.24532674e-05 -2.59157846e-07  0.00000000e+00  0.00000000e+00
  0.00000000e+00 -1.71078045e-07 -2.59157846e-07  1.22048875e-05
  0.00000000e+00  0.00000000e+00  0.00000000e+00 -2.11502629e-07
  0.00000000e+00  0.00000000e+00  0.00000000e+00  0.00000000e+00
  0.00000000e+00  0.00000000e+00  0.00000000e+00  0.00000000e+00
  0.00000000e+00  0.00000000e+00  0.00000000e+00  0.00000000e+00
  0.00000000e+00  0.00000000e+00  0.00000000e+00  0.00000000e+00
  0.00000000e+00  0.00000000e+00 -1.71078045e-07 -2.11502629e-07
  0.00000000e+00  0.00000000e+00  0.00000000e+00  2.76838457e-06]","[[ 0.00012624  0.00701124]
 [-0.00028394  0.00299434]]",[],0.0,0.0
1787211077.898953,2.0120356971360955,0.21050168739546726,1.9830123708269192,"[ 9.86424356e-06 -2.90954978e-07  0.00000000e+00  0.00000000e+00
  0.00000000e+00 -1.50080250e-07 -2.90954978e-07  9.83738230e-06
  0.00000000e+00  0.00000000e+00  0.00000000e+00 -1.63348933e-07
  0.00000000e+00  0.00000000e+00  0.00000000e+00  0.00000000e+00
  0.00000000e+00  0.00000000e+00  0.00000000e+00  0.00000000e+00
  0.00000000e+00  0.00000000e+00  0.00000000e+00  0.00000000e+00
  0.00000000e+00  0.00000000e+00  0.00000000e+00  0.00000000e+00
  0.00000000e+00  0.00000000e+00 -1.50080250e-07 -1.63348933e-07
  0.00000000e+00  0.00000000e+00  0.00000000e+00  2.83673612e-06]","[[ 0.00010218  0.00555376]
 [-0.00022957  0.00236138]]",[],0.0,0.0
1787211077.950677,2.0120356971360955,0.21050168739546726,1.9830123708269192,"[ 9.86424356e-06 -2.90954978e-07  0.00000000e+00  0.00000000e+00
  0.00000000e+00 -1.50080250e-07 -2.90954978e-07  9.83738230e-06
  0.00000000e+00  0.00000000e+00  0.00000000e+00 -1.63348933e-07
  0.00000000e+00  0.00000000e+00  0.00000000e+00  0.00000000e+00
  0.00000000e+00  0.00000000e+00  0.00000000e+00  0.00000000e+00
  0.00000000e+00  0.00000000e+00  0.00000000e+00  0.00000000e+00
  0.00000000e+00  0.00000000e+00  0.00000000e+00  0.00000000e+00
  0.00000000e+00  0.00000000e+00 -1.50080250e-07 -1.63348933e-07
  0.00000000e+00  0.00000000e+00  0.00000000e+00  2.83673612e-06]","[[ 0.00010218  0.00555376]
 [-0.00022957  0.00236138]]",[],0.0,0.0
1787211078.0168626,2.0120356971360955,0.21050168739546726,1.9830123708269192,"[ 9.86424356e-06 -2.90954978e-07  0.00000000e+00  0.00000000e+00
  0.00000000e+00 -1.50080250e-07 -2.90954978e-07  9.83738230e-06
  0.00000000e+00  0.00000000e+00  0.00000000e+00 -1.63348933e-07
  0.00000000e+00  0.00000000e+00  0.00000000e+00  0.00000000e+00
  0.00000000e+00  0.00000000e+00  0.00000000e+00  0.00000000e+00
  0.00000000e+00  0.00000000e+00  0.00000000e+00  0.00000000e+00
  0.00000000e+00  0.00000000e+00  0.00000000e+00  0.00000000e+00
  0.00000000e+00  0.00000000e+00 -1.50080250e-07 -1.63348933e-07
  0.00000000e+00  0.00000000e+00  0.00000000e+00  2.83673612e-06]","[[ 0.00010218  0.00555376]
 [-0.00022957  0.00236138]]",[],0.0,0.0
1787211078.083134,2.0120356971360955,0.21050168739546726,1.9830123708269192,"[ 9.86424356e-06 -2.90954978e-07  0.00000000e+00  0.00000000e+00
  0.00000000e+00 -1.50080250e-07 -2.90954978e-07  9.83738230e-06
  0.00000000e+00  0.00000000e+00  0.00000000e+00 -1.63348933e-07
  0.00000000e+00  0.00000000e+00  0.00000000e+00  0.00000000e+00
  0.00000000e+00  0.00000000e+00  0.00000000e+00  0.00000000e+00
  0.00000000e+00  0.00000000e+00  0.00000000e+00  0.00000000e+00
  0.00000000e+00  0.00000000e+00  0.00000000e+00  0.00000000e+00
  0.00000000e+00  0.00000000e+00 -1.50080250e-07 -1.63348933e-07
  0.00000000e+00  0.00000000e+00  0.00000000e+00  2.83673612e-06]","[[ 0.00010218  0.00555376]
 [-0.00022957  0.00236138]]",[],0.0,0.0
1787211078.10639,2.0120356971360955,0.21050168739546726,1.9830123708269192,"[ 9.86424356e-06 -2.90954978e-07  0.00000000e+00  0.00000000e+00
  0.00000000e+00 -1.50080250e-07 -2.90954978e-07  9.83738230e-06
  0.00000000e+00  0.00000000e+00  0.00000000e+00 -1.63348933e-07
  0.00000000e+00  0.00000000e+00  0.00000000e+00  0.00000000e+00
  0.00000000e+00  0.00000000e+00  0.00000000e+00  0.00000000e+00
  0.00000000e+00  0.00000000e+00  0.00000000e+00  0.00000000e+00
  0.00000000e+00  0.00000000e+00  0.00000000e+00  0.00000000e+00
  0.00000000e+00  0.00000000e+00 -1.50080250e-07 -1.63348933e-07
  0.00000000e+00  0.00000000e+00  0.00000000e+00  2.83673612e-06]","[[ 0.00010218  0.00555376]
 [-0.00022957  0.00236138]]",[],0.0,0.0
1787211078.156605,2.0120356971360955,0.21050168739546726,1.9830123708269192,"[ 9.86424356e-06 -2.90954978e-07  0.00000000e+00  0.00000000e+00
  0.00000000e+00 -1.50080250e-07 -2.90954978e-07  9.83738230e-06
  0.00000000e+00  0.00000000e+00  0.00000000e+00 -1.63348933e-07
  0.00000000e+00  0.00000000e+00  0.00000000e+00  0.00000000e+00
  0.00000000e+00  0.00000000e+00  0.00000000e+00  0.00000000e+00
  0.00000000e+00  0.00000000e+00  0.00000000e+00  0.00000000e+00
  0.00000000e+00  0.00000000e+00  0.00000000e+00  0.00000000e+00
  0.00000000e+00  0.00000000e+00 -1.50080250e-07 -1.63348933e-07
  0.00000000e+00  0.00000000e+00  0.00000000e+00  2.83673612e-06]","[[ 0.00010218  0.00555376]
 [-0.00022957  0.00236138]]",[],0.0,0.0
1787211078.2012956,2.0120356971360955,0.21050168739546726,1.9830123708269192,"[ 9.86424356e-06 -2.90954978e-07  0.00000000e+00  0.00000000e+00
  0.00000000e+00 -1.50080250e-07 -2.90954978e-07  9.83738230e-06
  0.00000000e+00  0.00000000e+00  0.00000000e+00 -1.63348933e-07
  0.00000000e+00  0.00000000e+00  0.00000000e+00  0.00000000e+00
  0.00000000e+00  0.00000000e+00  0.00000000e+00  0.00000000e+00
  0.00000000e+00  0.00000000e+00  0.00000000e+00  0.00000000e+00
  0.00000000e+00  0.00000000e+00  0.00000000e+00  0.00000000e+00
  0.00000000e+00  0.00000000e+00 -1.50080250e-07 -1.63348933e-07
  0.00000000e+00  0.00000000e+00  0.00000000e+00  2.83673612e-06]","[[ 0.00010218  0.00555376]
 [-0.00022957  0.00236138]]",[],0.0,0.0
1787211078.2505744,2.0120356971360955,0.21050168739546726,1.9830123708269192,"[ 9.86424356e-06 -2.90954978e-07  0.00000000e+00  0.00000000e+00
  0.00000000e+00 -1.50080250e-07 -2.90954978e-07  9.83738230e-06
  0.00000000e+00  0.00000000e+00  0.00000000e+00 -1.63348933e-07
  0.00000000e+00  0.00000000e+00  0.00000000e+00  0.00000000e+00
  0.00000000e+00  0.00000000e+00  0.00000000e+00  0.00000000e+00
  0.00000000e+00  0.00000000e+00  0.00000000e+00  0.00000000e+00
  0.00000000e+00  0.00000000e+00  0.00000000e+00  0.00000000e+00
  0.00000000e+00  0.00000000e+00 -1.50080250e-07 -1.63348933e-07
  0.00000000e+00  0.00000000e+00  0.00000000e+00  2.83673612e-06]","[[ 0.00010218  0.00555376]
 [-0.00022957  0.00236138]]",[],0.0,0.0
1787211078.2994113,2.0120356971360955,0.21050168739546726,1.9830123708269192,"[ 9.86424356e-06 -2.90954978e-07  0.00000000e+00  0.00000000e+00
  0.00000000e+00 -1.50080250e-07 -2.90954978e-07  9.83738230e-06
  0.00000000e+00  0.00000000e+00  0.00000000e+00 -1.63348933e-07
  0.00000000e+00  0.00000000e+00  0.00000000e+00  0.00000000e+00
  0.00000000e+00  0.00000000e+00  0.00000000e+00  0.00000000e+00
  0.00000000e+00  0.00000000e+00  0.00000000e+00  0.00000000e+00
  0.00000000e+00  0.00000000e+00  0.00000000e+00  0.00000000e+00
  0.00000000e+00  0.00000000e+00 -1.50080250e-07 -1.63348933e-07
  0.00000000e+00  0.00000000e+00  0.00000000e+00  2.83673612e-06]","[[ 0.00010218  0.00555376]
 [-0.00022957  0.00236138]]",[],0.0,0.0
1787211078.3501241,2.0120356971360955,0.21050168739546726,1.9830123708269192,"[ 9.86424356e-06 -2.90954978e-07  0.00000000e+00  0.00000000e+00
  0.00000000e+00 -1.50080250e-07 -2.90954978e-07  9.83738230e-06
  0.00000000e+00  0.00000000e+00  0.00000000e+00 -1.63348933e-07
  0.00000000e+00  0.00000000e+00  0.00000000e+00  0.00000000e+00
  0.00000000e+00  0.00000000e+00  0.00000000e+00  0.00000000e+00
  0.00000000e+00  0.00000000e+00  0.00000000e+00  0.00000000e+00
  0.00000000e+00  0.00000000e+00  0.00000000e+00  0.00000000e+00
  0.00000000e+00  0.00000000e+00 -1.50080250e-07 -1.63348933e-07
  0.00000000e+00  0.00000000e+00  0.00000000e+00  2.83673612e-06]","[[ 0.00010218  0.00555376]
 [-0.00022957  0.00236138]]",[],0.0,0.0
1787211078.4015727,2.0120356971360955,0.21050168739546726,1.9830123708269192,"[ 9.86424356e-06 -2.90954978e-07  0.00000000e+00  0.00000000e+00
  0.00000000e+00 -1.50080250e-07 -2.90954978e-07  9.83738230e-06
  0.00000000e+00  0.00000000e+00  0.00000000e+00 -1.63348933e-07
  0.00000000e+00  0.00000000e+00  0.00000000e+00  0.00000000e+00
  0.00000000e+00  0.00000000e+00  0.00000000e+00  0.00000000e+00
  0.00000000e+00  0.00000000e+00  0.00000000e+00  0.00000000e+00
  0.00000000e+00  0.00000000e+00  0.00000000e+00  0.00000000e+00
  0.00000000e+00  0.00000000e+00 -1.50080250e-07 -1.63348933e-07
  0.00000000e+00  0.00000000e+00  0.00000000e+00  2.83673612e-06]","[[ 0.00010218  0.00555376]
 [-0.00022957  0.00236138]]",[],0.0,0.0
1787211078.4585981,2.0120356971360955,0.21050168739546726,1.9830123708269192,"[ 9.86424356e-06 -2.90954978e-07  0.00000000e+00  0.00000000e+00
  0.00000000e+00 -1.50080250e-07 -2.90954978e-07  9.83738230e-06
  0.00000000e+00  0.00000000e+00  0.00000000e+00 -1.63348933e-07
  0.00000000e+00  0.00000000e+00  0.00000000e+00  0.00000000e+00
  0.00000000e+00  0.00000000e+00  0.00000000e+00  0.00000000e+00
  0.00000000e+00  0.00000000e+00  0.00000000e+00  0.00000000e+00
  0.00000000e+00  0.00000000e+00  0.00000000e+00  0.00000000e+00
  0.00000000e+00  0.00000000e+00 -1.50080250e-07 -1.63348933e-07
  0.00000000e+00  0.00000000e+00  0.00000000e+00  2.83673612e-06]","[[ 0.00010218  0.00555376]
 [-0.00022957  0.00236138]]",[],0.0,0.0
1787211078.503904,2.0120356971360955,0.21050168739546726,1.9830123708269192,"[ 9.86424356e-06 -2.90954978e-07  0.00000000e+00  0.00000000e+00
  0.00000000e+00 -1.50080250e-07 -2.90954978e-07  9.83738230e-06
  0.00000000e+00  0.00000000e+00  0.00000000e+00 -1.63348933e-07
  0.00000000e+00  0.00000000e+00  0.00000000e+00  0.00000000e+00
  0.00000000e+00  0.00000000e+00  0.00000000e+00  0.00000000e+00
  0.00000000e+00  0.00000000e+00  0.00000000e+00  0.00000000e+00
  0.00000000e+00  0.00000000e+00  0.00000000e+00  0.00000000e+00
  0.00000000e+00  0.00000000e+00 -1.50080250e-07 -1.63348933e-07
  0.00000000e+00  0.00000000e+00  0.00000000e+00  2.83673612e-06]","[[ 0.00010218  0.00555376]
 [-0.00022957  0.00236138]]",[],0.0,0.0
1787211078.5611007,2.0120356971360955,0.21050168739546726,1.9830123708269192,"[ 9.86424356e-06 -2.90954978e-07  0.00000000e+00  0.00000000e+00
  0.00000000e+00 -1.50080250e-07 -2.90954978e-07  9.83738230e-06
  0.00000000e+00  0.00000000e+00  0.00000000e+00 -1.63348933e-07
  0.00000000e+00  0.00000000e+00  0.00000000e+00  0.00000000e+00
  0.00000000e+00  0.00000000e+00  0.00000000e+00  0.00000000e+00
  0.00000000e+00  0.00000000e+00  0.00000000e+00  0.00000000e+00
  0.00000000e+00  0.00000000e+00  0.00000000e+00  0.00000000e+00
  0.00000000e+00  0.00000000e+00 -1.50080250e-07 -1.63348933e-07
  0.00000000e+00  0.00000000e+00  0.00000000e+00  2.83673612e-06]","[[ 0.00010218  0.00555376]
 [-0.00022957  0.00236138]]",[],0.0,0.0
1787211078.599621,2.0120356971360955,0.21050168739546726,1.9830123708269192,"[ 9.86424356e-06 -2.90954978e-07  0.00000000e+00  0.00000000e+00
  0.00000000e+00 -1.50080250e-07 -2.90954978e-07  9.83738230e-06
  0.00000000e+00  0.00000000e+00  0.00000000e+00 -1.63348933e-07
  0.00000000e+00  0.00000000e+00  0.00000000e+00  0.00000000e+00
  0.00000000e+00  0.00000000e+00  0.00000000e+00  0.00000000e+00
  0.00000000e+00  0.00000000e+00  0.00000000e+00  0.00000000e+00
  0.00000000e+00  0.00000000e+00  0.00000000e+00  0.00000000e+00
  0.00000000e+00  0.00000000e+00 -1.50080250e-07 -1.63348933e-07
  0.00000000e+00  0.00000000e+00  0.00000000e+00  2.83673612e-06]","[[ 0.00010218  0.00555376]
 [-0.00022957  0.00236138]]",[],0.0,0.0
1787211078.6507075,2.0136705180090946,0.2103820635348672,1.9963477214275682,"[ 8.31678720e-06 -2.68477224e-07  0.00000000e+00  0.00000000e+00
  0.00000000e+00 -1.38217407e-07 -2.68477224e-07  8.30528001e-06
  0.00000000e+00  0.00000000e+00  0.00000000e+00 -1.42577060e-07
  0.00000000e+00  0.00000000e+00  0.00000000e+00  0.00000000e+00
  0.00000000e+00  0.00000000e+00  0.00000000e+00  0.00000000e+00
  0.00000000e+00  0.00000000e+00  0.00000000e+00  0.00000000e+00
  0.00000000e+00  0.00000000e+00  0.00000000e+00  0.00000000e+00
  0.00000000e+00  0.00000000e+00 -1.38217407e-07 -1.42577060e-07
  0.00000000e+00  0.00000000e+00  0.00000000e+00  2.91081700e-06]","[[ 8.66240416e-05  4.69424547e-03]
 [-1.94062460e-04  1.98619096e-03]]",[],0.0,0.0
1787211078.7136517,2.0136705180090946,0.2103820635348672,1.9963477214275682,"[ 8.31678720e-06 -2.68477224e-07  0.00000000e+00  0.00000000e+00
  0.00000000e+00 -1.38217407e-07 -2.68477224e-07  8.30528001e-06
  0.00000000e+00  0.00000000e+00  0.00000000e+00 -1.42577060e-07
  0.00000000e+00  0.00000000e+00  0.00000000e+00  0.00000000e+00
  0.00000000e+00  0.00000000e+00  0.00000000e+00  0.00000000e+00
  0.00000000e+00  0.00000000e+00  0.00000000e+00  0.00000000e+00
  0.00000000e+00  0.00000000e+00  0.00000000e+00  0.00000000e+00
  0.00000000e+00  0.00000000e+00 -1.38217407e-07 -1.42577060e-07
  0.00000000e+00  0.00000000e+00  0.00000000e+00  2.91081700e-06]","[[ 8.66240416e-05  4.69424547e-03]
 [-1.94062460e-04  1.98619096e-03]]",[],0.0,0.0
1787211078.752154,2.0136705180090946,0.2103820635348672,1.9963477214275682,"[ 8.31678720e-06 -2.68477224e-07  0.00000000e+00  0.00000000e+00
  0.00000000e+00 -1.38217407e-07 -2.68477224e-07  8.30528001e-06
  0.00000000e+00  0.00000000e+00  0.00000000e+00 -1.42577060e-07
  0.00000000e+00  0.00000000e+00  0.00000000e+00  0.00000000e+00
  0.00000000e+00  0.00000000e+00  0.00000000e+00  0.00000000e+00
  0.00000000e+00  0.00000000e+00  0.00000000e+00  0.00000000e+00
  0.00000000e+00  0.00000000e+00  0.00000000e+00  0.00000000e+00
  0.00000000e+00  0.00000000e+00 -1.38217407e-07 -1.42577060e-07
  0.00000000e+00  0.00000000e+00  0.00000000e+00  2.91081700e-06]","[[ 8.66240416e-05  4.69424547e-03]
 [-1.94062460e-04  1.98619096e-03]]",[],0.0,0.0
1787211078.8085942,2.0136705180090946,0.2103820635348672,1.9963477214275682,"[ 8.31678720e-06 -2.68477224e-07  0.00000000e+00  0.00000000e+00
  0.00000000e+00 -1.38217407e-07 -2.68477224e-07  8.30528001e-06
  0.00000000e+00  0.00000000e+00  0.00000000e+00 -1.42577060e-07
  0.00000000e+00  0.00000000e+00  0.00000000e+00  0.00000000e+00
  0.00000000e+00  0.00000000e+00  0.00000000e+00  0.00000000e+00
  0.00000000e+00  0.00000000e+00  0.00000000e+00  0.00000000e+00
  0.00000000e+00  0.00000000e+00  0.00000000e+00  0.00000000e+00
  0.00000000e+00  0.00000000e+00 -1.38217407e-07 -1.42577060e-07
  0.00000000e+00  0.00000000e+00  0.00000000e+00  2.91081700e-06]","[[ 8.66240416e-05  4.69424547e-03]
 [-1.94062460e-04  1.98619096e-03]]",[],0.0,0.0
1787211078.8590908,2.0136705180090946,0.2103820635348672,1.9963477214275682,"[ 8.31678720e-06 -2.68477224e-07  0.00000000e+00  0.00000000e+00
  0.00000000e+00 -1.38217407e-07 -2.68477224e-07  8.30528001e-06
  0.00000000e+00  0.00000000e+00  0.00000000e+00 -1.42577060e-07
  0.00000000e+00  0.00000000e+00  0.00000000e+00  0.00000000e+00
  0.00000000e+00  0.00000000e+00  0.00000000e+00  0.00000000e+00
  0.00000000e+00  0.00000000e+00  0.00000000e+00  0.00000000e+00
  0.00000000e+00  0.00000000e+00  0.00000000e+00  0.00000000e+00
  0.00000000e+00  0.00000000e+00 -1.38217407e-07 -1.42577060e-07
  0.00000000e+00  0.00000000e+00  0.00000000e+00  2.91081700e-06]","[[ 8.66240416e-05  4.69424547e-03]
 [-1.94062460e-04  1.98619096e-03]]",[],0.0,0.0
1787211078.8996606,2.0136705180090946,0.2103820635348672,1.9963477214275682,"[ 8.31678720e-06 -2.68477224e-07  0.00000000e+00  0.00000000e+00
  0.00000000e+00 -1.38217407e-07 -2.68477224e-07  8.30528001e-06
  0.00000000e+00  0.00000000e+00  0.00000000e+00 -1.42577060e-07
  0.00000000e+00  0.00000000e+00  0.00000000e+00  0.00000000e+00
  0.00000000e+00  0.00000000e+00  0.00000000e+00  0.00000000e+00
  0.00000000e+00  0.00000000e+00  0.00000000e+00  0.00000000e+00
  0.00000000e+00  0.00000000e+00  0.00000000e+00  0.00000000e+00
  0.00000000e+00  0.00000000e+00 -1.38217407e-07 -1.42577060e-07
  0.00000000e+00  0.00000000e+00  0.00000000e+00  2.91081700e-06]","[[ 8.66240416e-05  4.69424547e-03]
 [-1.94062460e-04  1.98619096e-03]]",[],0.0,0.0
1787211078.950716,2.0136705180090946,0.2103820635348672,1.9963477214275682,"[ 8.31678720e-06 -2.68477224e-07  0.00000000e+00  0.00000000e+00
  0.00000000e+00 -1.38217407e-07 -2.68477224e-07  8.30528001e-06
  0.00000000e+00  0.00000000e+00  0.00000000e+00 -1.42577060e-07
  0.00000000e+00  0.00000000e+00  0.00000000e+00  0.00000000e+00
  0.00000000e+00  0.00000000e+00  0.00000000e+00  0.00000000e+00
  0.00000000e+00  0.00000000e+00  0.00000000e+00  0.00000000e+00
  0.00000000e+00  0.00000000e+00  0.00000000e+00  0.00000000e+00
  0.00000000e+00  0.00000000e+00 -1.38217407e-07 -1.42577060e-07
  0.00000000e+00  0.00000000e+00  0.00000000e+00  2.91081700e-06]","[[ 8.66240416e-05  4.69424547e-03]
 [-1.94062460e-04  1.98619096e-03]]",[],0.0,0.0
1787211079.0072994,2.0136705180090946,0.2103820635348672,1.9963477214275682,"[ 8.31678720e-06 -2.68477224e-07  0.00000000e+00  0.00000000e+00
  0.00000000e+00 -1.38217407e-07 -2.68477224e-07  8.30528001e-06
  0.00000000e+00  0.00000000e+00  0.00000000e+00 -1.42577060e-07
  0.00000000e+00  0.00000000e+00  0.00000000e+00  0.00000000e+00
  0.00000000e+00  0.00000000e+00  0.00000000e+00  0.00000000e+00
  0.00000000e+00  0.00000000e+00  0.00000000e+00  0.00000000e+00
  0.00000000e+00  0.00000000e+00  0.00000000e+00  0.00000000e+00
  0.00000000e+00  0.00000000e+00 -1.38217407e-07 -1.42577060e-07
  0.00000000e+00  0.00000000e+00  0.00000000e+00  2.91081700e-06]","[[ 8.66240416e-05  4.69424547e-03]
 [-1.94062460e-04  1.98619096e-03]]",[],0.0,0.0
1787211079.0605223,2.0136705180090946,0.2103820635348672,1.9963477214275682,"[ 8.31678720e-06 -2.68477224e-07  0.00000000e+00  0.00000000e+00
  0.00000000e+00 -1.38217407e-07 -2.68477224e-07  8.30528001e-06
  0.00000000e+00  0.00000000e+00  0.00000000e+00 -1.42577060e-07
  0.00000000e+00  0.00000000e+00  0.00000000e+00  0.00000000e+00
  0.00000000e+00  0.00000000e+00  0.00000000e+00  0.00000000e+00
  0.00000000e+00  0.00000000e+00  0.00000000e+00  0.00000000e+00
  0.00000000e+00  0.00000000e+00  0.00000000e+00  0.00000000e+00
  0.00000000e+00  0.00000000e+00 -1.38217407e-07 -1.42577060e-07
  0.00000000e+00  0.00000000e+00  0.00000000e+00  2.91081700e-06]","[[ 8.66240416e-05  4.69424547e-03]
 [-1.94062460e-04  1.98619096e-03]]",[],0.0,0.0
1787211079.1048956,2.0136705180090946,0.2103820635348672,1.9963477214275682,"[ 8.31678720e-06 -2.68477224e-07  0.00000000e+00  0.00000000e+00
  0.00000000e+00 -1.38217407e-07 -2.68477224e-07  8.30528001e-06
  0.00000000e+00  0.00000000e+00  0.00000000e+00 -1.42577060e-07
  0.00000000e+00  0.00000000e+00  0.00000000e+00  0.00000000e+00
  0.00000000e+00  0.00000000e+00  0.00000000e+00  0.00000000e+00
  0.00000000e+00  0.00000000e+00  0.00000000e+00  0.00000000e+00
  0.00000000e+00  0.00000000e+00  0.00000000e+00  0.00000000e+00
  0.00000000e+00  0.00000000e+00 -1.38217407e-07 -1.42577060e-07
  0.00000000e+00  0.00000000e+00  0.00000000e+00  2.91081700e-06]","[[ 8.66240416e-05  4.69424547e-03]
 [-1.94062460e-04  1.98619096e-03]]",[],0.0,0.0
1787211079.1512494,2.0136705180090946,0.2103820635348672,1.9963477214275682,"[ 8.31678720e-06 -2.68477224e-07  0.00000000e+00  0.00000000e+00
  0.00000000e+00 -1.38217407e-07 -2.68477224e-07  8.30528001e-06
  0.00000000e+00  0.00000000e+00  0.00000000e+00 -1.42577060e-07
  0.00000000e+00  0.00000000e+00  0.00000000e+00  0.00000000e+00
  0.00000000e+00  0.00000000e+00  0.00000000e+00  0.00000000e+00
  0.00000000e+00  0.00000000e+00  0.00000000e+00  0.00000000e+00
  0.00000000e+00  0.00000000e+00  0.00000000e+00  0.00000000e+00
  0.00000000e+00  0.00000000e+00 -1.38217407e-07 -1.42577060e-07
  0.00000000e+00  0.00000000e+00  0.00000000e+00  2.91081700e-06]","[[ 8.66240416e-05  4.69424547e-03]
 [-1.94062460e-04  1.98619096e-03]]",[],0.0,0.0
1787211079.2022316,2.0136705180090946,0.2103820635348672,1.9963477214275682,"[ 8.31678720e-06 -2.68477224e-07  0.00000000e+00  0.00000000e+00
  0.00000000e+00 -1.38217407e-07 -2.68477224e-07  8.30528001e-06
  0.00000000e+00  0.00000000e+00  0.00000000e+00 -1.42577060e-07
  0.00000000e+00  0.00000000e+00  0.00000000e+00  0.00000000e+00
  0.00000000e+00  0.00000000e+00  0.00000000e+00  0.00000000e+00
  0.00000000e+00  0.00000000e+00  0.00000000e+00  0.00000000e+00
  0.00000000e+00  0.00000000e+00  0.00000000e+00  0.00000000e+00
  0.00000000e+00  0.00000000e+00 -1.38217407e-07 -1.42577060e-07
  0.00000000e+00  0.00000000e+00  0.00000000e+00  2.91081700e-06]","[[ 8.66240416e-05  4.69424547e-03]
 [-1.94062460e-04  1.98619096e-03]]",[],0.0,0.0
1787211079.2652628,2.0136705180090946,0.2103820635348672,1.9963477214275682,"[ 8.31678720e-06 -2.68477224e-07  0.00000000e+00  0.00000000e+00
  0.00000000e+00 -1.38217407e-07 -2.68477224e-07  8.30528001e-06
  0.00000000e+00  0.00000000e+00  0.00000000e+00 -1.42577060e-07
  0.00000000e+00  0.00000000e+00  0.00000000e+00  0.00000000e+00
  0.00000000e+00  0.00000000e+00  0.00000000e+00  0.00000000e+00
  0.00000000e+00  0.00000000e+00  0.00000000e+00  0.00000000e+00
  0.00000000e+00  0.00000000e+00  0.00000000e+00  0.00000000e+00
  0.00000000e+00  0.00000000e+00 -1.38217407e-07 -1.42577060e-07
  0.00000000e+00  0.00000000e+00  0.00000000e+00  2.91081700e-06]","[[ 8.66240416e-05  4.69424547e-03]
 [-1.94062460e-04  1.98619096e-03]]",[],0.0,0.0
1787211079.299851,2.017865023000365,0.2126402729616974,2.0118814876144766,"[ 7.14809042e-06 -2.70218573e-07  0.00000000e+00  0.00000000e+00
  0.00000000e+00 -1.94926087e-07 -2.70218573e-07  7.22631778e-06
  0.00000000e+00  0.00000000e+00  0.00000000e+00 -2.34695263e-07
  0.00000000e+00  0.00000000e+00  0.00000000e+00  0.00000000e+00
  0.00000000e+00  0.00000000e+00  0.00000000e+00  0.00000000e+00
  0.00000000e+00  0.00000000e+00  0.00000000e+00  0.00000000e+00
  0.00000000e+00  0.00000000e+00  0.00000000e+00  0.00000000e+00
  0.00000000e+00  0.00000000e+00 -1.94926087e-07 -2.34695263e-07
  0.00000000e+00  0.00000000e+00  0.00000000e+00  2.83658464e-06]","[[ 7.54458312e-05  4.14956218e-03]
 [-1.69172215e-04  1.89290847e-03]]",[],0.0,0.0
1787211079.363432,2.017865023000365,0.2126402729616974,2.0118814876144766,"[ 7.14809042e-06 -2.70218573e-07  0.00000000e+00  0.00000000e+00
  0.00000000e+00 -1.94926087e-07 -2.70218573e-07  7.22631778e-06
  0.00000000e+00  0.00000000e+00  0.00000000e+00 -2.34695263e-07
  0.00000000e+00  0.00000000e+00  0.00000000e+00  0.00000000e+00
  0.00000000e+00  0.00000000e+00  0.00000000e+00  0.00000000e+00
  0.00000000e+00  0.00000000e+00  0.00000000e+00  0.00000000e+00
  0.00000000e+00  0.00000000e+00  0.00000000e+00  0.00000000e+00
  0.00000000e+00  0.00000000e+00 -1.94926087e-07 -2.34695263e-07
  0.00000000e+00  0.00000000e+00  0.00000000e+00  2.83658464e-06]","[[ 7.54458312e-05  4.14956218e-03]
 [-1.69172215e-04  1.89290847e-03]]",[],0.0,0.0
1787211079.401499,2.017865023000365,0.2126402729616974,2.0118814876144766,"[ 7.14809042e-06 -2.70218573e-07  0.00000000e+00  0.00000000e+00
  0.00000000e+00 -1.94926087e-07 -2.70218573e-07  7.22631778e-06
  0.00000000e+00  0.00000000e+00  0.00000000e+00 -2.34695263e-07
  0.00000000e+00  0.00000000e+00  0.00000000e+00  0.00000000e+00
  0.00000000e+00  0.00000000e+00  0.00000000e+00  0.00000000e+00
  0.00000000e+00  0.00000000e+00  0.00000000e+00  0.00000000e+00
  0.00000000e+00  0.00000000e+00  0.00000000e+00  0.00000000e+00
  0.00000000e+00  0.00000000e+00 -1.94926087e-07 -2.34695263e-07
  0.00000000e+00  0.00000000e+00  0.00000000e+00  2.83658464e-06]","[[ 7.54458312e-05  4.14956218e-03]
 [-1.69172215e-04  1.89290847e-03]]",[],0.0,0.0
1787211079.4543254,2.017865023000365,0.2126402729616974,2.0118814876144766,"[ 7.14809042e-06 -2.70218573e-07  0.00000000e+00  0.00000000e+00
  0.00000000e+00 -1.94926087e-07 -2.70218573e-07  7.22631778e-06
  0.00000000e+00  0.00000000e+00  0.00000000e+00 -2.34695263e-07
  0.00000000e+00  0.00000000e+00  0.00000000e+00  0.00000000e+00
  0.00000000e+00  0.00000000e+00  0.00000000e+00  0.00000000e+00
  0.00000000e+00  0.00000000e+00  0.00000000e+00  0.00000000e+00
  0.00000000e+00  0.00000000e+00  0.00000000e+00  0.00000000e+00
  0.00000000e+00  0.00000000e+00 -1.94926087e-07 -2.34695263e-07
  0.00000000e+00  0.00000000e+00  0.00000000e+00  2.83658464e-06]","[[ 7.54458312e-05  4.14956218e-03]
 [-1.69172215e-04  1.89290847e-03]]",[],0.0,0.0
1787211079.5029378,2.017865023000365,0.2126402729616974,2.0118814876144766,"[ 7.14809042e-06 -2.70218573e-07  0.00000000e+00  0.00000000e+00
  0.00000000e+00 -1.94926087e-07 -2.70218573e-07  7.22631778e-06
  0.00000000e+00  0.00000000e+00  0.00000000e+00 -2.34695263e-07
  0.00000000e+00  0.00000000e+00  0.00000000e+00  0.00000000e+00
  0.00000000e+00  0.00000000e+00  0.00000000e+00  0.00000000e+00
  0.00000000e+00  0.00000000e+00  0.00000000e+00  0.00000000e+00
  0.00000000e+00  0.00000000e+00  0.00000000e+00  0.00000000e+00
  0.00000000e+00  0.00000000e+00 -1.94926087e-07 -2.34695263e-07
  0.00000000e+00  0.00000000e+00  0.00000000e+00  2.83658464e-06]","[[ 7.54458312e-05  4.14956218e-03]
 [-1.69172215e-04  1.89290847e-03]]",[],0.0,0.0
1787211079.607646,2.017865023000365,0.2126402729616974,2.0118814876144766,"[ 7.14809042e-06 -2.70218573e-07  0.00000000e+00  0.00000000e+00
  0.00000000e+00 -1.94926087e-07 -2.70218573e-07  7.22631778e-06
  0.00000000e+00  0.00000000e+00  0.00000000e+00 -2.34695263e-07
  0.00000000e+00  0.00000000e+00  0.00000000e+00  0.00000000e+00
  0.00000000e+00  0.00000000e+00  0.00000000e+00  0.00000000e+00
  0.00000000e+00  0.00000000e+00  0.00000000e+00  0.00000000e+00
  0.00000000e+00  0.00000000e+00  0.00000000e+00  0.00000000e+00
  0.00000000e+00  0.00000000e+00 -1.94926087e-07 -2.34695263e-07
  0.00000000e+00  0.00000000e+00  0.00000000e+00  2.83658464e-06]","[[ 7.54458312e-05  4.14956218e-03]
 [-1.69172215e-04  1.89290847e-03]]",[],0.0,0.0
1787211079.6522741,2.017865023000365,0.2126402729616974,2.0118814876144766,"[ 7.14809042e-06 -2.70218573e-07  0.00000000e+00  0.00000000e+00
  0.00000000e+00 -1.94926087e-07 -2.70218573e-07  7.22631778e-06
  0.00000000e+00  0.00000000e+00  0.00000000e+00 -2.34695263e-07
  0.00000000e+00  0.00000000e+00  0.00000000e+00  0.00000000e+00
  0.00000000e+00  0.00000000e+00  0.00000000e+00  0.00000000e+00
  0.00000000e+00  0.00000000e+00  0.00000000e+00  0.00000000e+00
  0.00000000e+00  0.00000000e+00  0.00000000e+00  0.00000000e+00
  0.00000000e+00  0.00000000e+00 -1.94926087e-07 -2.34695263e-07
  0.00000000e+00  0.00000000e+00  0.00000000e+00  2.83658464e-06]","[[ 7.54458312e-05  4.14956218e-03]
 [-1.69172215e-04  1.89290847e-03]]",[],0.0,0.0
1787211079.7097986,2.017865023000365,0.2126402729616974,2.0118814876144766,"[ 7.14809042e-06 -2.70218573e-07  0.00000000e+00  0.00000000e+00
  0.00000000e+00 -1.94926087e-07 -2.70218573e-07  7.22631778e-06
  0.00000000e+00  0.00000000e+00  0.00000000e+00 -2.34695263e-07
  0.00000000e+00  0.00000000e+00  0.00000000e+00  0.00000000e+00
  0.00000000e+00  0.00000000e+00  0.00000000e+00  0.00000000e+00
  0.00000000e+00  0.00000000e+00  0.00000000e+00  0.00000000e+00
  0.00000000e+00  0.00000000e+00  0.00000000e+00  0.00000000e+00
  0.00000000e+00  0.00000000e+00 -1.94926087e-07 -2.34695263e-07
  0.00000000e+00  0.00000000e+00  0.00000000e+00  2.83658464e-06]","[[ 7.54458312e-05  4.14956218e-03]
 [-1.69172215e-04  1.89290847e-03]]",[],0.0,0.0
1787211079.7569735,2.017865023000365,0.2126402729616974,2.0118814876144766,"[ 7.14809042e-06 -2.70218573e-07  0.00000000e+00  0.00000000e+00
  0.00000000e+00 -1.94926087e-07 -2.70218573e-07  7.22631778e-06
  0.00000000e+00  0.00000000e+00  0.00000000e+00 -2.34695263e-07
  0.00000000e+00  0.00000000e+00  0.00000000e+00  0.00000000e+00
  0.00000000e+00  0.00000000e+00  0.00000000e+00  0.00000000e+00
  0.00000000e+00  0.00000000e+00  0.00000000e+00  0.00000000e+00
  0.00000000e+00  0.00000000e+00  0.00000000e+00  0.00000000e+00
  0.00000000e+00  0.00000000e+00 -1.94926087e-07 -2.34695263e-07
  0.00000000e+00  0.00000000e+00  0.00000000e+00  2.83658464e-06]","[[ 7.54458312e-05  4.14956218e-03]
 [-1.69172215e-04  1.89290847e-03]]",[],0.0,0.0
1787211079.8023188,2.017865023000365,0.2126402729616974,2.0118814876144766,"[ 7.14809042e-06 -2.70218573e-07  0.00000000e+00  0.00000000e+00
  0.00000000e+00 -1.94926087e-07 -2.70218573e-07  7.22631778e-06
  0.00000000e+00  0.00000000e+00  0.00000000e+00 -2.34695263e-07
  0.00000000e+00  0.00000000e+00  0.00000000e+00  0.00000000e+00
  0.00000000e+00  0.00000000e+00  0.00000000e+00  0.00000000e+00
  0.00000000e+00  0.00000000e+00  0.00000000e+00  0.00000000e+00
  0.00000000e+00  0.00000000e+00  0.00000000e+00  0.00000000e+00
  0.00000000e+00  0.00000000e+00 -1.94926087e-07 -2.34695263e-07
  0.00000000e+00  0.00000000e+00  0.00000000e+00  2.83658464e-06]","[[ 7.54458312e-05  4.14956218e-03]
 [-1.69172215e-04  1.89290847e-03]]",[],0.0,0.0
1787211079.8512962,2.017865023000365,0.2126402729616974,2.0118814876144766,"[ 7.14809042e-06 -2.70218573e-07  0.00000000e+00  0.00000000e+00
  0.00000000e+00 -1.94926087e-07 -2.70218573e-07  7.22631778e-06
  0.00000000e+00  0.00000000e+00  0.00000000e+00 -2.34695263e-07
  0.00000000e+00  0.00000000e+00  0.00000000e+00  0.00000000e+00
  0.00000000e+00  0.00000000e+00  0.00000000e+00  0.00000000e+00
  0.00000000e+00  0.00000000e+00  0.00000000e+00  0.00000000e+00
  0.00000000e+00  0.00000000e+00  0.00000000e+00  0.00000000e+00
  0.00000000e+00  0.00000000e+00 -1.94926087e-07 -2.34695263e-07
  0.00000000e+00  0.00000000e+00  0.00000000e+00  2.83658464e-06]","[[ 7.54458312e-05  4.14956218e-03]
 [-1.69172215e-04  1.89290847e-03]]",[],0.0,0.0
1787211079.9011228,2.017865023000365,0.2126402729616974,2.0118814876144766,"[ 7.14809042e-06 -2.70218573e-07  0.00000000e+00  0.00000000e+00
  0.00000000e+00 -1.94926087e-07 -2.70218573e-07  7.22631778e-06
  0.00000000e+00  0.00000000e+00  0.00000000e+00 -2.34695263e-07
  0.00000000e+00  0.00000000e+00  0.00000000e+00  0.00000000e+00
  0.00000000e+00  0.00000000e+00  0.00000000e+00  0.00000000e+00
  0.00000000e+00  0.00000000e+00  0.00000000e+00  0.00000000e+00
  0.00000000e+00  0.00000000e+00  0.00000000e+00  0.00000000e+00
  0.00000000e+00  0.00000000e+00 -1.94926087e-07 -2.34695263e-07
  0.00000000e+00  0.00000000e+00  0.00000000e+00  2.83658464e-06]","[[ 7.54458312e-05  4.14956218e-03]
 [-1.69172215e-04  1.89290847e-03]]",[],0.0,0.0
1787211079.952747,2.017865023000365,0.2126402729616974,2.0118814876144766,"[ 7.14809042e-06 -2.70218573e-07  0.00000000e+00  0.00000000e+00
  0.00000000e+00 -1.94926087e-07 -2.70218573e-07  7.22631778e-06
  0.00000000e+00  0.00000000e+00  0.00000000e+00 -2.34695263e-07
  0.00000000e+00  0.00000000e+00  0.00000000e+00  0.00000000e+00
  0.00000000e+00  0.00000000e+00  0.00000000e+00  0.00000000e+00
  0.00000000e+00  0.00000000e+00  0.00000000e+00  0.00000000e+00
  0.00000000e+00  0.00000000e+00  0.00000000e+00  0.00000000e+00
  0.00000000e+00  0.00000000e+00 -1.94926087e-07 -2.34695263e-07
  0.00000000e+00  0.00000000e+00  0.00000000e+00  2.83658464e-06]","[[ 7.54458312e-05  4.14956218e-03]
 [-1.69172215e-04  1.89290847e-03]]",[],0.0,0.0
1787211079.9994311,2.019041280548853,0.21200651497761241,2.024424222753643,"[ 6.26474526e-06 -2.56594520e-07  0.00000000e+00  0.00000000e+00
  0.00000000e+00 -1.39386005e-07 -2.56594520e-07  6.40876287e-06
  0.00000000e+00  0.00000000e+00  0.00000000e+00 -8.65349525e-08
  0.00000000e+00  0.00000000e+00  0.00000000e+00  0.00000000e+00
  0.00000000e+00  0.00000000e+00  0.00000000e+00  0.00000000e+00
  0.00000000e+00  0.00000000e+00  0.00000000e+00  0.00000000e+00
  0.00000000e+00  0.00000000e+00  0.00000000e+00  0.00000000e+00
  0.00000000e+00  0.00000000e+00 -1.39386005e-07 -8.65349525e-08
  0.00000000e+00  0.00000000e+00  0.00000000e+00  2.80249795e-06]","[[ 6.68180684e-05  3.57810681e-03]
 [-1.50101682e-04  1.47460723e-03]]",[],0.0,0.0
1787211080.057454,2.019041280548853,0.21200651497761241,2.024424222753643,"[ 6.26474526e-06 -2.56594520e-07  0.00000000e+00  0.00000000e+00
  0.00000000e+00 -1.39386005e-07 -2.56594520e-07  6.40876287e-06
  0.00000000e+00  0.00000000e+00  0.00000000e+00 -8.65349525e-08
  0.00000000e+00  0.00000000e+00  0.00000000e+00  0.00000000e+00
  0.00000000e+00  0.00000000e+00  0.00000000e+00  0.00000000e+00
  0.00000000e+00  0.00000000e+00  0.00000000e+00  0.00000000e+00
  0.00000000e+00  0.00000000e+00  0.00000000e+00  0.00000000e+00
  0.00000000e+00  0.00000000e+00 -1.39386005e-07 -8.65349525e-08
  0.00000000e+00  0.00000000e+00  0.00000000e+00  2.80249795e-06]","[[ 6.68180684e-05  3.57810681e-03]
 [-1.50101682e-04  1.47460723e-03]]",[],0.0,0.0
1787211080.1004908,2.019041280548853,0.21200651497761241,2.024424222753643,"[ 6.26474526e-06 -2.56594520e-07  0.00000000e+00  0.00000000e+00
  0.00000000e+00 -1.39386005e-07 -2.56594520e-07  6.40876287e-06
  0.00000000e+00  0.00000000e+00  0.00000000e+00 -8.65349525e-08
  0.00000000e+00  0.00000000e+00  0.00000000e+00  0.00000000e+00
  0.00000000e+00  0.00000000e+00  0.00000000e+00  0.00000000e+00
  0.00000000e+00  0.00000000e+00  0.00000000e+00  0.00000000e+00
  0.00000000e+00  0.00000000e+00  0.00000000e+00  0.00000000e+00
  0.00000000e+00  0.00000000e+00 -1.39386005e-07 -8.65349525e-08
  0.00000000e+00  0.00000000e+00  0.00000000e+00  2.80249795e-06]","[[ 6.68180684e-05  3.57810681e-03]
 [-1.50101682e-04  1.47460723e-03]]",[],0.0,0.0
1787211080.151223,2.019041280548853,0.21200651497761241,2.024424222753643,"[ 6.26474526e-06 -2.56594520e-07  0.00000000e+00  0.00000000e+00
  0.00000000e+00 -1.39386005e-07 -2.56594520e-07  6.40876287e-06
  0.00000000e+00  0.00000000e+00  0.00000000e+00 -8.65349525e-08
  0.00000000e+00  0.00000000e+00  0.00000000e+00  0.00000000e+00
  0.00000000e+00  0.00000000e+00  0.00000000e+00  0.00000000e+00
  0.00000000e+00  0.00000000e+00  0.00000000e+00  0.00000000e+00
  0.00000000e+00  0.00000000e+00  0.00000000e+00  0.00000000e+00
  0.00000000e+00  0.00000000e+00 -1.39386005e-07 -8.65349525e-08
  0.00000000e+00  0.00000000e+00  0.00000000e+00  2.80249795e-06]","[[ 6.68180684e-05  3.57810681e-03]
 [-1.50101682e-04  1.47460723e-03]]",[],0.0,0.0
1787211080.2037694,2.019041280548853,0.21200651497761241,2.024424222753643,"[ 6.26474526e-06 -2.56594520e-07  0.00000000e+00  0.00000000e+00
  0.00000000e+00 -1.39386005e-07 -2.56594520e-07  6.40876287e-06
  0.00000000e+00  0.00000000e+00  0.00000000e+00 -8.65349525e-08
  0.00000000e+00  0.00000000e+00  0.00000000e+00  0.00000000e+00
  0.00000000e+00  0.00000000e+00  0.00000000e+00  0.00000000e+00
  0.00000000e+00  0.00000000e+00  0.00000000e+00  0.00000000e+00
  0.00000000e+00  0.00000000e+00  0.00000000e+00  0.00000000e+00
  0.00000000e+00  0.00000000e+00 -1.39386005e-07 -8.65349525e-08
  0.00000000e+00  0.00000000e+00  0.00000000e+00  2.80249795e-06]","[[ 6.68180684e-05  3.57810681e-03]
 [-1.50101682e-04  1.47460723e-03]]",[],0.0,0.0
1787211080.253856,2.019041280548853,0.21200651497761241,2.024424222753643,"[ 6.26474526e-06 -2.56594520e-07  0.00000000e+00  0.00000000e+00
  0.00000000e+00 -1.39386005e-07 -2.56594520e-07  6.40876287e-06
  0.00000000e+00  0.00000000e+00  0.00000000e+00 -8.65349525e-08
  0.00000000e+00  0.00000000e+00  0.00000000e+00  0.00000000e+00
  0.00000000e+00  0.00000000e+00  0.00000000e+00  0.00000000e+00
  0.00000000e+00  0.00000000e+00  0.00000000e+00  0.00000000e+00
  0.00000000e+00  0.00000000e+00  0.00000000e+00  0.00000000e+00
  0.00000000e+00  0.00000000e+00 -1.39386005e-07 -8.65349525e-08
  0.00000000e+00  0.00000000e+00  0.00000000e+00  2.80249795e-06]","[[ 6.68180684e-05  3.57810681e-03]
 [-1.50101682e-04  1.47460723e-03]]",[],0.0,0.0
1787211080.309315,2.019041280548853,0.21200651497761241,2.024424222753643,"[ 6.26474526e-06 -2.56594520e-07  0.00000000e+00  0.00000000e+00
  0.00000000e+00 -1.39386005e-07 -2.56594520e-07  6.40876287e-06
  0.00000000e+00  0.00000000e+00  0.00000000e+00 -8.65349525e-08
  0.00000000e+00  0.00000000e+00  0.00000000e+00  0.00000000e+00
  0.00000000e+00  0.00000000e+00  0.00000000e+00  0.00000000e+00
  0.00000000e+00  0.00000000e+00  0.00000000e+00  0.00000000e+00
  0.00000000e+00  0.00000000e+00  0.00000000e+00  0.00000000e+00
  0.00000000e+00  0.00000000e+00 -1.39386005e-07 -8.65349525e-08
  0.00000000e+00  0.00000000e+00  0.00000000e+00  2.80249795e-06]","[[ 6.68180684e-05  3.57810681e-03]
 [-1.50101682e-04  1.47460723e-03]]",[],0.0,0.0
1787211080.3504863,2.019041280548853,0.21200651497761241,2.024424222753643,"[ 6.26474526e-06 -2.56594520e-07  0.00000000e+00  0.00000000e+00
  0.00000000e+00 -1.39386005e-07 -2.56594520e-07  6.40876287e-06
  0.00000000e+00  0.00000000e+00  0.00000000e+00 -8.65349525e-08
  0.00000000e+00  0.00000000e+00  0.00000000e+00  0.00000000e+00
  0.00000000e+00  0.00000000e+00  0.00000000e+00  0.00000000e+00
  0.00000000e+00  0.00000000e+00  0.00000000e+00  0.00000000e+00
  0.00000000e+00  0.00000000e+00  0.00000000e+00  0.00000000e+00
  0.00000000e+00  0.00000000e+00 -1.39386005e-07 -8.65349525e-08
  0.00000000e+00  0.00000000e+00  0.00000000e+00  2.80249795e-06]","[[ 6.68180684e-05  3.57810681e-03]
 [-1.50101682e-04  1.47460723e-03]]",[],0.0,0.0
1787211080.4002197,2.019041280548853,0.21200651497761241,2.024424222753643,"[ 6.26474526e-06 -2.56594520e-07  0.00000000e+00  0.00000000e+00
  0.00000000e+00 -1.39386005e-07 -2.56594520e-07  6.40876287e-06
  0.00000000e+00  0.00000000e+00  0.00000000e+00 -8.65349525e-08
  0.00000000e+00  0.00000000e+00  0.00000000e+00  0.00000000e+00
  0.00000000e+00  0.00000000e+00  0.00000000e+00  0.00000000e+00
  0.00000000e+00  0.00000000e+00  0.00000000e+00  0.00000000e+00
  0.00000000e+00  0.00000000e+00  0.00000000e+00  0.00000000e+00
  0.00000000e+00  0.00000000e+00 -1.39386005e-07 -8.65349525e-08
  0.00000000e+00  0.00000000e+00  0.00000000e+00  2.80249795e-06]","[[ 6.68180684e-05  3.57810681e-03]
 [-1.50101682e-04  1.47460723e-03]]",[],0.0,0.0
1787211080.4575405,2.019041280548853,0.21200651497761241,2.024424222753643,"[ 6.26474526e-06 -2.56594520e-07  0.00000000e+00  0.00000000e+00
  0.00000000e+00 -1.39386005e-07 -2.56594520e-07  6.40876287e-06
  0.00000000e+00  0.00000000e+00  0.00000000e+00 -8.65349525e-08
  0.00000000e+00  0.00000000e+00  0.00000000e+00  0.00000000e+00
  0.00000000e+00  0.00000000e+00  0.00000000e+00  0.00000000e+00
  0.00000000e+00  0.00000000e+00  0.00000000e+00  0.00000000e+00
  0.00000000e+00  0.00000000e+00  0.00000000e+00  0.00000000e+00
  0.00000000e+00  0.00000000e+00 -1.39386005e-07 -8.65349525e-08
  0.00000000e+00  0.00000000e+00  0.00000000e+00  2.80249795e-06]","[[ 6.68180684e-05  3.57810681e-03]
 [-1.50101682e-04  1.47460723e-03]]",[],0.0,0.0
1787211080.5239012,2.019041280548853,0.21200651497761241,2.024424222753643,"[ 6.26474526e-06 -2.56594520e-07  0.00000000e+00  0.00000000e+00
  0.00000000e+00 -1.39386005e-07 -2.56594520e-07  6.40876287e-06
  0.00000000e+00  0.00000000e+00  0.00000000e+00 -8.65349525e-08
  0.00000000e+00  0.00000000e+00  0.00000000e+00  0.00000000e+00
  0.00000000e+00  0.00000000e+00  0.00000000e+00  0.00000000e+00
  0.00000000e+00  0.00000000e+00  0.00000000e+00  0.00000000e+00
  0.00000000e+00  0.00000000e+00  0.00000000e+00  0.00000000e+00
  0.00000000e+00  0.00000000e+00 -1.39386005e-07 -8.65349525e-08
  0.00000000e+00  0.00000000e+00  0.00000000e+00  2.80249795e-06]","[[ 6.68180684e-05  3.57810681e-03]
 [-1.50101682e-04  1.47460723e-03]]",[],0.0,0.0
1787211080.5502045,2.019041280548853,0.21200651497761241,2.024424222753643,"[ 6.26474526e-06 -2.56594520e-07  0.00000000e+00  0.00000000e+00
  0.00000000e+00 -1.39386005e-07 -2.56594520e-07  6.40876287e-06
  0.00000000e+00  0.00000000e+00  0.00000000e+00 -8.65349525e-08
  0.00000000e+00  0.00000000e+00  0.00000000e+00  0.00000000e+00
  0.00000000e+00  0.00000000e+00  0.00000000e+00  0.00000000e+00
  0.00000000e+00  0.00000000e+00  0.00000000e+00  0.00000000e+00
  0.00000000e+00  0.00000000e+00  0.00000000e+00  0.00000000e+00
  0.00000000e+00  0.00000000e+00 -1.39386005e-07 -8.65349525e-08
  0.00000000e+00  0.00000000e+00  0.00000000e+00  2.80249795e-06]","[[ 6.68180684e-05  3.57810681e-03]
 [-1.50101682e-04  1.47460723e-03]]",[],0.0,0.0
1787211080.602568,2.0197739220145823,0.21064322206637007,2.034920155899627,"[ 5.57898932e-06 -2.54345157e-07  0.00000000e+00  0.00000000e+00
  0.00000000e+00 -1.39278980e-07 -2.54345157e-07  5.75482462e-06
  0.00000000e+00  0.00000000e+00  0.00000000e+00 -7.25838180e-08
  0.00000000e+00  0.00000000e+00  0.00000000e+00  0.00000000e+00
  0.00000000e+00  0.00000000e+00  0.00000000e+00  0.00000000e+00
  0.00000000e+00  0.00000000e+00  0.00000000e+00  0.00000000e+00
  0.00000000e+00  0.00000000e+00  0.00000000e+00  0.00000000e+00
  0.00000000e+00  0.00000000e+00 -1.39278980e-07 -7.25838180e-08
  0.00000000e+00  0.00000000e+00  0.00000000e+00  2.74189292e-06]","[[ 6.73243033e-05  3.03932913e-03]
 [-1.31877546e-04  1.44874671e-03]]",[],0.0,0.0
1787211080.703787,2.0197739220145823,0.21064322206637007,2.034920155899627,"[ 5.57898932e-06 -2.54345157e-07  0.00000000e+00  0.00000000e+00
  0.00000000e+00 -1.39278980e-07 -2.54345157e-07  5.75482462e-06
  0.00000000e+00  0.00000000e+00  0.00000000e+00 -7.25838180e-08
  0.00000000e+00  0.00000000e+00  0.00000000e+00  0.00000000e+00
  0.00000000e+00  0.00000000e+00  0.00000000e+00  0.00000000e+00
  0.00000000e+00  0.00000000e+00  0.00000000e+00  0.00000000e+00
  0.00000000e+00  0.00000000e+00  0.00000000e+00  0.00000000e+00
  0.00000000e+00  0.00000000e+00 -1.39278980e-07 -7.25838180e-08
  0.00000000e+00  0.00000000e+00  0.00000000e+00  2.74189292e-06]","[[ 6.73243033e-05  3.03932913e-03]
 [-1.31877546e-04  1.44874671e-03]]",[],0.0,0.0
1787211080.7496114,2.0197739220145823,0.21064322206637007,2.034920155899627,"[ 5.57898932e-06 -2.54345157e-07  0.00000000e+00  0.00000000e+00
  0.00000000e+00 -1.39278980e-07 -2.54345157e-07  5.75482462e-06
  0.00000000e+00  0.00000000e+00  0.00000000e+00 -7.25838180e-08
  0.00000000e+00  0.00000000e+00  0.00000000e+00  0.00000000e+00
  0.00000000e+00  0.00000000e+00  0.00000000e+00  0.00000000e+00
  0.00000000e+00  0.00000000e+00  0.00000000e+00  0.00000000e+00
  0.00000000e+00  0.00000000e+00  0.00000000e+00  0.00000000e+00
  0.00000000e+00  0.00000000e+00 -1.39278980e-07 -7.25838180e-08
  0.00000000e+00  0.00000000e+00  0.00000000e+00  2.74189292e-06]","[[ 6.73243033e-05  3.03932913e-03]
 [-1.31877546e-04  1.44874671e-03]]",[],0.0,0.0
1787211080.8410792,2.0197739220145823,0.21064322206637007,2.034920155899627,"[ 5.57898932e-06 -2.54345157e-07  0.00000000e+00  0.00000000e+00
  0.00000000e+00 -1.39278980e-07 -2.54345157e-07  5.75482462e-06
  0.00000000e+00  0.00000000e+00  0.00000000e+00 -7.25838180e-08
  0.00000000e+00  0.00000000e+00  0.00000000e+00  0.00000000e+00
  0.00000000e+00  0.00000000e+00  0.00000000e+00  0.00000000e+00
  0.00000000e+00  0.00000000e+00  0.00000000e+00  0.00000000e+00
  0.00000000e+00  0.00000000e+00  0.00000000e+00  0.00000000e+00
  0.00000000e+00  0.00000000e+00 -1.39278980e-07 -7.25838180e-08
  0.00000000e+00  0.00000000e+00  0.00000000e+00  2.74189292e-06]","[[ 6.73243033e-05  3.03932913e-03]
 [-1.31877546e-04  1.44874671e-03]]",[],0.0,0.0
1787211080.9060595,2.0197739220145823,0.21064322206637007,2.034920155899627,"[ 5.57898932e-06 -2.54345157e-07  0.00000000e+00  0.00000000e+00
  0.00000000e+00 -1.39278980e-07 -2.54345157e-07  5.75482462e-06
  0.00000000e+00  0.00000000e+00  0.00000000e+00 -7.25838180e-08
  0.00000000e+00  0.00000000e+00  0.00000000e+00  0.00000000e+00
  0.00000000e+00  0.00000000e+00  0.00000000e+00  0.00000000e+00
  0.00000000e+00  0.00000000e+00  0.00000000e+00  0.00000000e+00
  0.00000000e+00  0.00000000e+00  0.00000000e+00  0.00000000e+00
  0.00000000e+00  0.00000000e+00 -1.39278980e-07 -7.25838180e-08
  0.00000000e+00  0.00000000e+00  0.00000000e+00  2.74189292e-06]","[[ 6.73243033e-05  3.03932913e-03]
 [-1.31877546e-04  1.44874671e-03]]",[],0.0,0.0
1787211081.0015562,2.0197739220145823,0.21064322206637007,2.034920155899627,"[ 5.57898932e-06 -2.54345157e-07  0.00000000e+00  0.00000000e+00
  0.00000000e+00 -1.39278980e-07 -2.54345157e-07  5.75482462e-06
  0.00000000e+00  0.00000000e+00  0.00000000e+00 -7.25838180e-08
  0.00000000e+00  0.00000000e+00  0.00000000e+00  0.00000000e+00
  0.00000000e+00  0.00000000e+00  0.00000000e+00  0.00000000e+00
  0.00000000e+00  0.00000000e+00  0.00000000e+00  0.00000000e+00
  0.00000000e+00  0.00000000e+00  0.00000000e+00  0.00000000e+00
  0.00000000e+00  0.00000000e+00 -1.39278980e-07 -7.25838180e-08
  0.00000000e+00  0.00000000e+00  0.00000000e+00  2.74189292e-06]","[[ 6.73243033e-05  3.03932913e-03]
 [-1.31877546e-04  1.44874671e-03]]",[],0.0,0.0
1787211081.051034,2.0197739220145823,0.21064322206637007,2.034920155899627,"[ 5.57898932e-06 -2.54345157e-07  0.00000000e+00  0.00000000e+00
  0.00000000e+00 -1.39278980e-07 -2.54345157e-07  5.75482462e-06
  0.00000000e+00  0.00000000e+00  0.00000000e+00 -7.25838180e-08
  0.00000000e+00  0.00000000e+00  0.00000000e+00  0.00000000e+00
  0.00000000e+00  0.00000000e+00  0.00000000e+00  0.00000000e+00
  0.00000000e+00  0.00000000e+00  0.00000000e+00  0.00000000e+00
  0.00000000e+00  0.00000000e+00  0.00000000e+00  0.00000000e+00
  0.00000000e+00  0.00000000e+00 -1.39278980e-07 -7.25838180e-08
  0.00000000e+00  0.00000000e+00  0.00000000e+00  2.74189292e-06]","[[ 6.73243033e-05  3.03932913e-03]
 [-1.31877546e-04  1.44874671e-03]]",[],0.0,0.0
1787211081.1051579,2.0197739220145823,0.21064322206637007,2.034920155899627,"[ 5.57898932e-06 -2.54345157e-07  0.00000000e+00  0.00000000e+00
  0.00000000e+00 -1.39278980e-07 -2.54345157e-07  5.75482462e-06
  0.00000000e+00  0.00000000e+00  0.00000000e+00 -7.25838180e-08
  0.00000000e+00  0.00000000e+00  0.00000000e+00  0.00000000e+00
  0.00000000e+00  0.00000000e+00  0.00000000e+00  0.00000000e+00
  0.00000000e+00  0.00000000e+00  0.00000000e+00  0.00000000e+00
  0.00000000e+00  0.00000000e+00  0.00000000e+00  0.00000000e+00
  0.00000000e+00  0.00000000e+00 -1.39278980e-07 -7.25838180e-08
  0.00000000e+00  0.00000000e+00  0.00000000e+00  2.74189292e-06]","[[ 6.73243033e-05  3.03932913e-03]
 [-1.31877546e-04  1.44874671e-03]]",[],0.0,0.0
1787211081.149772,2.0197739220145823,0.21064322206637007,2.034920155899627,"[ 5.57898932e-06 -2.54345157e-07  0.00000000e+00  0.00000000e+00
  0.00000000e+00 -1.39278980e-07 -2.54345157e-07  5.75482462e-06
  0.00000000e+00  0.00000000e+00  0.00000000e+00 -7.25838180e-08
  0.00000000e+00  0.00000000e+00  0.00000000e+00  0.00000000e+00
  0.00000000e+00  0.00000000e+00  0.00000000e+00  0.00000000e+00
  0.00000000e+00  0.00000000e+00  0.00000000e+00  0.00000000e+00
  0.00000000e+00  0.00000000e+00  0.00000000e+00  0.00000000e+00
  0.00000000e+00  0.00000000e+00 -1.39278980e-07 -7.25838180e-08
  0.00000000e+00  0.00000000e+00  0.00000000e+00  2.74189292e-06]","[[ 6.73243033e-05  3.03932913e-03]
 [-1.31877546e-04  1.44874671e-03]]",[],0.0,0.0
1787211081.199362,2.0197739220145823,0.21064322206637007,2.034920155899627,"[ 5.57898932e-06 -2.54345157e-07  0.00000000e+00  0.00000000e+00
  0.00000000e+00 -1.39278980e-07 -2.54345157e-07  5.75482462e-06
  0.00000000e+00  0.00000000e+00  0.00000000e+00 -7.25838180e-08
  0.00000000e+00  0.00000000e+00  0.00000000e+00  0.00000000e+00
  0.00000000e+00  0.00000000e+00  0.00000000e+00  0.00000000e+00
  0.00000000e+00  0.00000000e+00  0.00000000e+00  0.00000000e+00
  0.00000000e+00  0.00000000e+00  0.00000000e+00  0.00000000e+00
  0.00000000e+00  0.00000000e+00 -1.39278980e-07 -7.25838180e-08
  0.00000000e+00  0.00000000e+00  0.00000000e+00  2.74189292e-06]","[[ 6.73243033e-05  3.03932913e-03]
 [-1.31877546e-04  1.44874671e-03]]",[],0.0,0.0
1787211081.254858,2.0197739220145823,0.21064322206637007,2.034920155899627,"[ 5.57898932e-06 -2.54345157e-07  0.00000000e+00  0.00000000e+00
  0.00000000e+00 -1.39278980e-07 -2.54345157e-07  5.75482462e-06
  0.00000000e+00  0.00000000e+00  0.00000000e+00 -7.25838180e-08
  0.00000000e+00  0.00000000e+00  0.00000000e+00  0.00000000e+00
  0.00000000e+00  0.00000000e+00  0.00000000e+00  0.00000000e+00
  0.00000000e+00  0.00000000e+00  0.00000000e+00  0.00000000e+00
  0.00000000e+00  0.00000000e+00  0.00000000e+00  0.00000000e+00
  0.00000000e+00  0.00000000e+00 -1.39278980e-07 -7.25838180e-08
  0.00000000e+00  0.00000000e+00  0.00000000e+00  2.74189292e-06]","[[ 6.73243033e-05  3.03932913e-03]
 [-1.31877546e-04  1.44874671e-03]]",[],0.0,0.0
1787211081.3006277,2.0197739220145823,0.21064322206637007,2.034920155899627,"[ 5.57898932e-06 -2.54345157e-07  0.00000000e+00  0.00000000e+00
  0.00000000e+00 -1.39278980e-07 -2.54345157e-07  5.75482462e-06
  0.00000000e+00  0.00000000e+00  0.00000000e+00 -7.25838180e-08
  0.00000000e+00  0.00000000e+00  0.00000000e+00  0.00000000e+00
  0.00000000e+00  0.00000000e+00  0.00000000e+00  0.00000000e+00
  0.00000000e+00  0.00000000e+00  0.00000000e+00  0.00000000e+00
  0.00000000e+00  0.00000000e+00  0.00000000e+00  0.00000000e+00
  0.00000000e+00  0.00000000e+00 -1.39278980e-07 -7.25838180e-08
  0.00000000e+00  0.00000000e+00  0.00000000e+00  2.74189292e-06]","[[ 6.73243033e-05  3.03932913e-03]
 [-1.31877546e-04  1.44874671e-03]]",[],0.0,0.0
1787211081.3520262,2.0200047078941585,0.21034777033174362,2.0428592606333744,"[ 5.07296354e-06 -2.61754334e-07  0.00000000e+00  0.00000000e+00
  0.00000000e+00 -8.53453342e-08 -2.61754334e-07  5.29047530e-06
  0.00000000e+00  0.00000000e+00  0.00000000e+00 -7.31496996e-08
  0.00000000e+00  0.00000000e+00  0.00000000e+00  0.00000000e+00
  0.00000000e+00  0.00000000e+00  0.00000000e+00  0.00000000e+00
  0.00000000e+00  0.00000000e+00  0.00000000e+00  0.00000000e+00
  0.00000000e+00  0.00000000e+00  0.00000000e+00  0.00000000e+00
  0.00000000e+00  0.00000000e+00 -8.53453342e-08 -7.31496996e-08
  0.00000000e+00  0.00000000e+00  0.00000000e+00  2.95299886e-06]","[[ 6.19035390e-05  2.68622049e-03]
 [-1.21544024e-04  1.32749109e-03]]",[],0.0,0.0
1787211081.4009886,2.0200047078941585,0.21034777033174362,2.0428592606333744,"[ 5.07296354e-06 -2.61754334e-07  0.00000000e+00  0.00000000e+00
  0.00000000e+00 -8.53453342e-08 -2.61754334e-07  5.29047530e-06
  0.00000000e+00  0.00000000e+00  0.00000000e+00 -7.31496996e-08
  0.00000000e+00  0.00000000e+00  0.00000000e+00  0.00000000e+00
  0.00000000e+00  0.00000000e+00  0.00000000e+00  0.00000000e+00
  0.00000000e+00  0.00000000e+00  0.00000000e+00  0.00000000e+00
  0.00000000e+00  0.00000000e+00  0.00000000e+00  0.00000000e+00
  0.00000000e+00  0.00000000e+00 -8.53453342e-08 -7.31496996e-08
  0.00000000e+00  0.00000000e+00  0.00000000e+00  2.95299886e-06]","[[ 6.19035390e-05  2.68622049e-03]
 [-1.21544024e-04  1.32749109e-03]]",[],0.0,0.0
1787211081.451559,2.0200047078941585,0.21034777033174362,2.0428592606333744,"[ 5.07296354e-06 -2.61754334e-07  0.00000000e+00  0.00000000e+00
  0.00000000e+00 -8.53453342e-08 -2.61754334e-07  5.29047530e-06
  0.00000000e+00  0.00000000e+00  0.00000000e+00 -7.31496996e-08
  0.00000000e+00  0.00000000e+00  0.00000000e+00  0.00000000e+00
  0.00000000e+00  0.00000000e+00  0.00000000e+00  0.00000000e+00
  0.00000000e+00  0.00000000e+00  0.00000000e+00  0.00000000e+00
  0.00000000e+00  0.00000000e+00  0.00000000e+00  0.00000000e+00
  0.00000000e+00  0.00000000e+00 -8.53453342e-08 -7.31496996e-08
  0.00000000e+00  0.00000000e+00  0.00000000e+00  2.95299886e-06]","[[ 6.19035390e-05  2.68622049e-03]
 [-1.21544024e-04  1.32749109e-03]]",[],0.0,0.0
1787211081.5037804,2.0200047078941585,0.21034777033174362,2.0428592606333744,"[ 5.07296354e-06 -2.61754334e-07  0.00000000e+00  0.00000000e+00
  0.00000000e+00 -8.53453342e-08 -2.61754334e-07  5.29047530e-06
  0.00000000e+00  0.00000000e+00  0.00000000e+00 -7.31496996e-08
  0.00000000e+00  0.00000000e+00  0.00000000e+00  0.00000000e+00
  0.00000000e+00  0.00000000e+00  0.00000000e+00  0.00000000e+00
  0.00000000e+00  0.00000000e+00  0.00000000e+00  0.00000000e+00
  0.00000000e+00  0.00000000e+00  0.00000000e+00  0.00000000e+00
  0.00000000e+00  0.00000000e+00 -8.53453342e-08 -7.31496996e-08
  0.00000000e+00  0.00000000e+00  0.00000000e+00  2.95299886e-06]","[[ 6.19035390e-05  2.68622049e-03]
 [-1.21544024e-04  1.32749109e-03]]",[],0.0,0.0
1787211081.549523,2.0200047078941585,0.21034777033174362,2.0428592606333744,"[ 5.07296354e-06 -2.61754334e-07  0.00000000e+00  0.00000000e+00
  0.00000000e+00 -8.53453342e-08 -2.61754334e-07  5.29047530e-06
  0.00000000e+00  0.00000000e+00  0.00000000e+00 -7.31496996e-08
  0.00000000e+00  0.00000000e+00  0.00000000e+00  0.00000000e+00
  0.00000000e+00  0.00000000e+00  0.00000000e+00  0.00000000e+00
  0.00000000e+00  0.00000000e+00  0.00000000e+00  0.00000000e+00
  0.00000000e+00  0.00000000e+00  0.00000000e+00  0.00000000e+00
  0.00000000e+00  0.00000000e+00 -8.53453342e-08 -7.31496996e-08
  0.00000000e+00  0.00000000e+00  0.00000000e+00  2.95299886e-06]","[[ 6.19035390e-05  2.68622049e-03]
 [-1.21544024e-04  1.32749109e-03]]",[],0.0,0.0
1787211081.6025202,2.0200047078941585,0.21034777033174362,2.0428592606333744,"[ 5.07296354e-06 -2.61754334e-07  0.00000000e+00  0.00000000e+00
  0.00000000e+00 -8.53453342e-08 -2.61754334e-07  5.29047530e-06
  0.00000000e+00  0.00000000e+00  0.00000000e+00 -7.31496996e-08
  0.00000000e+00  0.00000000e+00  0.00000000e+00  0.00000000e+00
  0.00000000e+00  0.00000000e+00  0.00000000e+00  0.00000000e+00
  0.00000000e+00  0.00000000e+00  0.00000000e+00  0.00000000e+00
  0.00000000e+00  0.00000000e+00  0.00000000e+00  0.00000000e+00
  0.00000000e+00  0.00000000e+00 -8.53453342e-08 -7.31496996e-08
  0.00000000e+00  0.00000000e+00  0.00000000e+00  2.95299886e-06]","[[ 6.19035390e-05  2.68622049e-03]
 [-1.21544024e-04  1.32749109e-03]]",[],0.0,0.0
1787211081.657387,2.0200047078941585,0.21034777033174362,2.0428592606333744,"[ 5.07296354e-06 -2.61754334e-07  0.00000000e+00  0.00000000e+00
  0.00000000e+00 -8.53453342e-08 -2.61754334e-07  5.29047530e-06
  0.00000000e+00  0.00000000e+00  0.00000000e+00 -7.31496996e-08
  0.00000000e+00  0.00000000e+00  0.00000000e+00  0.00000000e+00
  0.00000000e+00  0.00000000e+00  0.00000000e+00  0.00000000e+00
  0.00000000e+00  0.00000000e+00  0.00000000e+00  0.00000000e+00
  0.00000000e+00  0.00000000e+00  0.00000000e+00  0.00000000e+00
  0.00000000e+00  0.00000000e+00 -8.53453342e-08 -7.31496996e-08
  0.00000000e+00  0.00000000e+00  0.00000000e+00  2.95299886e-06]","[[ 6.19035390e-05  2.68622049e-03]
 [-1.21544024e-04  1.32749109e-03]]",[],0.0,0.0
1787211081.7463872,2.0200047078941585,0.21034777033174362,2.0428592606333744,"[ 5.07296354e-06 -2.61754334e-07  0.00000000e+00  0.00000000e+00
  0.00000000e+00 -8.53453342e-08 -2.61754334e-07  5.29047530e-06
  0.00000000e+00  0.00000000e+00  0.00000000e+00 -7.31496996e-08
  0.00000000e+00  0.00000000e+00  0.00000000e+00  0.00000000e+00
  0.00000000e+00  0.00000000e+00  0.00000000e+00  0.00000000e+00
  0.00000000e+00  0.00000000e+00  0.00000000e+00  0.00000000e+00
  0.00000000e+00  0.00000000e+00  0.00000000e+00  0.00000000e+00
  0.00000000e+00  0.00000000e+00 -8.53453342e-08 -7.31496996e-08
  0.00000000e+00  0.00000000e+00  0.00000000e+00  2.95299886e-06]","[[ 6.19035390e-05  2.68622049e-03]
 [-1.21544024e-04  1.32749109e-03]]",[],0.0,0.0
1787211081.7618945,2.0200047078941585,0.21034777033174362,2.0428592606333744,"[ 5.07296354e-06 -2.61754334e-07  0.00000000e+00  0.00000000e+00
  0.00000000e+00 -8.53453342e-08 -2.61754334e-07  5.29047530e-06
  0.00000000e+00  0.00000000e+00  0.00000000e+00 -7.31496996e-08
  0.00000000e+00  0.00000000e+00  0.00000000e+00  0.00000000e+00
  0.00000000e+00  0.00000000e+00  0.00000000e+00  0.00000000e+00
  0.00000000e+00  0.00000000e+00  0.00000000e+00  0.00000000e+00
  0.00000000e+00  0.00000000e+00  0.00000000e+00  0.00000000e+00
  0.00000000e+00  0.00000000e+00 -8.53453342e-08 -7.31496996e-08
  0.00000000e+00  0.00000000e+00  0.00000000e+00  2.95299886e-06]","[[ 6.19035390e-05  2.68622049e-03]
 [-1.21544024e-04  1.32749109e-03]]",[],0.0,0.0
1787211081.8025267,2.0200047078941585,0.21034777033174362,2.0428592606333744,"[ 5.07296354e-06 -2.61754334e-07  0.00000000e+00  0.00000000e+00
  0.00000000e+00 -8.53453342e-08 -2.61754334e-07  5.29047530e-06
  0.00000000e+00  0.00000000e+00  0.00000000e+00 -7.31496996e-08
  0.00000000e+00  0.00000000e+00  0.00000000e+00  0.00000000e+00
  0.00000000e+00  0.00000000e+00  0.00000000e+00  0.00000000e+00
  0.00000000e+00  0.00000000e+00  0.00000000e+00  0.00000000e+00
  0.00000000e+00  0.00000000e+00  0.00000000e+00  0.00000000e+00
  0.00000000e+00  0.00000000e+00 -8.53453342e-08 -7.31496996e-08
  0.00000000e+00  0.00000000e+00  0.00000000e+00  2.95299886e-06]","[[ 6.19035390e-05  2.68622049e-03]
 [-1.21544024e-04  1.32749109e-03]]",[],0.0,0.0
1787211081.8522625,2.0200047078941585,0.21034777033174362,2.0428592606333744,"[ 5.07296354e-06 -2.61754334e-07  0.00000000e+00  0.00000000e+00
  0.00000000e+00 -8.53453342e-08 -2.61754334e-07  5.29047530e-06
  0.00000000e+00  0.00000000e+00  0.00000000e+00 -7.31496996e-08
  0.00000000e+00  0.00000000e+00  0.00000000e+00  0.00000000e+00
  0.00000000e+00  0.00000000e+00  0.00000000e+00  0.00000000e+00
  0.00000000e+00  0.00000000e+00  0.00000000e+00  0.00000000e+00
  0.00000000e+00  0.00000000e+00  0.00000000e+00  0.00000000e+00
  0.00000000e+00  0.00000000e+00 -8.53453342e-08 -7.31496996e-08
  0.00000000e+00  0.00000000e+00  0.00000000e+00  2.95299886e-06]","[[ 6.19035390e-05  2.68622049e-03]
 [-1.21544024e-04  1.32749109e-03]]",[],0.0,0.0
1787211081.906207,2.0200047078941585,0.21034777033174362,2.0428592606333744,"[ 5.07296354e-06 -2.61754334e-07  0.00000000e+00  0.00000000e+00
  0.00000000e+00 -8.53453342e-08 -2.61754334e-07  5.29047530e-06
  0.00000000e+00  0.00000000e+00  0.00000000e+00 -7.31496996e-08
  0.00000000e+00  0.00000000e+00  0.00000000e+00  0.00000000e+00
  0.00000000e+00  0.00000000e+00  0.00000000e+00  0.00000000e+00
  0.00000000e+00  0.00000000e+00  0.00000000e+00  0.00000000e+00
  0.00000000e+00  0.00000000e+00  0.00000000e+00  0.00000000e+00
  0.00000000e+00  0.00000000e+00 -8.53453342e-08 -7.31496996e-08
  0.00000000e+00  0.00000000e+00  0.00000000e+00  2.95299886e-06]","[[ 6.19035390e-05  2.68622049e-03]
 [-1.21544024e-04  1.32749109e-03]]",[],0.0,0.0
1787211081.953247,2.0200047078941585,0.21034777033174362,2.0428592606333744,"[ 5.07296354e-06 -2.61754334e-07  0.00000000e+00  0.00000000e+00
  0.00000000e+00 -8.53453342e-08 -2.61754334e-07  5.29047530e-06
  0.00000000e+00  0.00000000e+00  0.00000000e+00 -7.31496996e-08
  0.00000000e+00  0.00000000e+00  0.00000000e+00  0.00000000e+00
  0.00000000e+00  0.00000000e+00  0.00000000e+00  0.00000000e+00
  0.00000000e+00  0.00000000e+00  0.00000000e+00  0.00000000e+00
  0.00000000e+00  0.00000000e+00  0.00000000e+00  0.00000000e+00
  0.00000000e+00  0.00000000e+00 -8.53453342e-08 -7.31496996e-08
  0.00000000e+00  0.00000000e+00  0.00000000e+00  2.95299886e-06]","[[ 6.19035390e-05  2.68622049e-03]
 [-1.21544024e-04  1.32749109e-03]]",[],0.0,0.0
1787211082.0070903,2.0200047078941585,0.21034777033174362,2.0428592606333744,"[ 5.07296354e-06 -2.61754334e-07  0.00000000e+00  0.00000000e+00
  0.00000000e+00 -8.53453342e-08 -2.61754334e-07  5.29047530e-06
  0.00000000e+00  0.00000000e+00  0.00000000e+00 -7.31496996e-08
  0.00000000e+00  0.00000000e+00  0.00000000e+00  0.00000000e+00
  0.00000000e+00  0.00000000e+00  0.00000000e+00  0.00000000e+00
  0.00000000e+00  0.00000000e+00  0.00000000e+00  0.00000000e+00
  0.00000000e+00  0.00000000e+00  0.00000000e+00  0.00000000e+00
  0.00000000e+00  0.00000000e+00 -8.53453342e-08 -7.31496996e-08
  0.00000000e+00  0.00000000e+00  0.00000000e+00  2.95299886e-06]","[[ 6.19035390e-05  2.68622049e-03]
 [-1.21544024e-04  1.32749109e-03]]",[],0.0,0.0
1787211082.052626,2.019750358244498,0.20780264050964306,2.0498831465328458,"[ 4.63582658e-06 -2.81051713e-07  0.00000000e+00  0.00000000e+00
  0.00000000e+00 -8.50806371e-08 -2.81051713e-07  4.89401929e-06
  0.00000000e+00  0.00000000e+00  0.00000000e+00 -3.09819955e-08
  0.00000000e+00  0.00000000e+00  0.00000000e+00  0.00000000e+00
  0.00000000e+00  0.00000000e+00  0.00000000e+00  0.00000000e+00
  0.00000000e+00  0.00000000e+00  0.00000000e+00  0.00000000e+00
  0.00000000e+00  0.00000000e+00  0.00000000e+00  0.00000000e+00
  0.00000000e+00  0.00000000e+00 -8.50806371e-08 -3.09819955e-08
  0.00000000e+00  0.00000000e+00  0.00000000e+00  2.81863646e-06]","[[ 6.19035390e-05  2.68622049e-03]
 [-1.21544024e-04  1.32749109e-03]]",[],0.0,0.0
1787211082.1501787,2.019750358244498,0.20780264050964306,2.0498831465328458,"[ 4.63582658e-06 -2.81051713e-07  0.00000000e+00  0.00000000e+00
  0.00000000e+00 -8.50806371e-08 -2.81051713e-07  4.89401929e-06
  0.00000000e+00  0.00000000e+00  0.00000000e+00 -3.09819955e-08
  0.00000000e+00  0.00000000e+00  0.00000000e+00  0.00000000e+00
  0.00000000e+00  0.00000000e+00  0.00000000e+00  0.00000000e+00
  0.00000000e+00  0.00000000e+00  0.00000000e+00  0.00000000e+00
  0.00000000e+00  0.00000000e+00  0.00000000e+00  0.00000000e+00
  0.00000000e+00  0.00000000e+00 -8.50806371e-08 -3.09819955e-08
  0.00000000e+00  0.00000000e+00  0.00000000e+00  2.81863646e-06]","[[ 5.75106493e-05  2.45553466e-03]
 [-1.12864334e-04  1.14723183e-03]]",[],0.0,0.0
1787211082.2011979,2.019750358244498,0.20780264050964306,2.0498831465328458,"[ 4.63582658e-06 -2.81051713e-07  0.00000000e+00  0.00000000e+00
  0.00000000e+00 -8.50806371e-08 -2.81051713e-07  4.89401929e-06
  0.00000000e+00  0.00000000e+00  0.00000000e+00 -3.09819955e-08
  0.00000000e+00  0.00000000e+00  0.00000000e+00  0.00000000e+00
  0.00000000e+00  0.00000000e+00  0.00000000e+00  0.00000000e+00
  0.00000000e+00  0.00000000e+00  0.00000000e+00  0.00000000e+00
  0.00000000e+00  0.00000000e+00  0.00000000e+00  0.00000000e+00
  0.00000000e+00  0.00000000e+00 -8.50806371e-08 -3.09819955e-08
  0.00000000e+00  0.00000000e+00  0.00000000e+00  2.81863646e-06]","[[ 5.75106493e-05  2.45553466e-03]
 [-1.12864334e-04  1.14723183e-03]]",[],0.0,0.0
1787211082.25102,2.019750358244498,0.20780264050964306,2.0498831465328458,"[ 4.63582658e-06 -2.81051713e-07  0.00000000e+00  0.00000000e+00
  0.00000000e+00 -8.50806371e-08 -2.81051713e-07  4.89401929e-06
  0.00000000e+00  0.00000000e+00  0.00000000e+00 -3.09819955e-08
  0.00000000e+00  0.00000000e+00  0.00000000e+00  0.00000000e+00
  0.00000000e+00  0.00000000e+00  0.00000000e+00  0.00000000e+00
  0.00000000e+00  0.00000000e+00  0.00000000e+00  0.00000000e+00
  0.00000000e+00  0.00000000e+00  0.00000000e+00  0.00000000e+00
  0.00000000e+00  0.00000000e+00 -8.50806371e-08 -3.09819955e-08
  0.00000000e+00  0.00000000e+00  0.00000000e+00  2.81863646e-06]","[[ 5.75106493e-05  2.45553466e-03]
 [-1.12864334e-04  1.14723183e-03]]",[],0.0,0.0
1787211082.3157415,2.019750358244498,0.20780264050964306,2.0498831465328458,"[ 4.63582658e-06 -2.81051713e-07  0.00000000e+00  0.00000000e+00
  0.00000000e+00 -8.50806371e-08 -2.81051713e-07  4.89401929e-06
  0.00000000e+00  0.00000000e+00  0.00000000e+00 -3.09819955e-08
  0.00000000e+00  0.00000000e+00  0.00000000e+00  0.00000000e+00
  0.00000000e+00  0.00000000e+00  0.00000000e+00  0.00000000e+00
  0.00000000e+00  0.00000000e+00  0.00000000e+00  0.00000000e+00
  0.00000000e+00  0.00000000e+00  0.00000000e+00  0.00000000e+00
  0.00000000e+00  0.00000000e+00 -8.50806371e-08 -3.09819955e-08
  0.00000000e+00  0.00000000e+00  0.00000000e+00  2.81863646e-06]","[[ 5.75106493e-05  2.45553466e-03]
 [-1.12864334e-04  1.14723183e-03]]",[],0.0,0.0
1787211082.351309,2.019750358244498,0.20780264050964306,2.0498831465328458,"[ 4.63582658e-06 -2.81051713e-07  0.00000000e+00  0.00000000e+00
  0.00000000e+00 -8.50806371e-08 -2.81051713e-07  4.89401929e-06
  0.00000000e+00  0.00000000e+00  0.00000000e+00 -3.09819955e-08
  0.00000000e+00  0.00000000e+00  0.00000000e+00  0.00000000e+00
  0.00000000e+00  0.00000000e+00  0.00000000e+00  0.00000000e+00
  0.00000000e+00  0.00000000e+00  0.00000000e+00  0.00000000e+00
  0.00000000e+00  0.00000000e+00  0.00000000e+00  0.00000000e+00
  0.00000000e+00  0.00000000e+00 -8.50806371e-08 -3.09819955e-08
  0.00000000e+00  0.00000000e+00  0.00000000e+00  2.81863646e-06]","[[ 5.75106493e-05  2.45553466e-03]
 [-1.12864334e-04  1.14723183e-03]]",[],0.0,0.0
1787211082.3990283,2.019750358244498,0.20780264050964306,2.0498831465328458,"[ 4.63582658e-06 -2.81051713e-07  0.00000000e+00  0.00000000e+00
  0.00000000e+00 -8.50806371e-08 -2.81051713e-07  4.89401929e-06
  0.00000000e+00  0.00000000e+00  0.00000000e+00 -3.09819955e-08
  0.00000000e+00  0.00000000e+00  0.00000000e+00  0.00000000e+00
  0.00000000e+00  0.00000000e+00  0.00000000e+00  0.00000000e+00
  0.00000000e+00  0.00000000e+00  0.00000000e+00  0.00000000e+00
  0.00000000e+00  0.00000000e+00  0.00000000e+00  0.00000000e+00
  0.00000000e+00  0.00000000e+00 -8.50806371e-08 -3.09819955e-08
  0.00000000e+00  0.00000000e+00  0.00000000e+00  2.81863646e-06]","[[ 5.75106493e-05  2.45553466e-03]
 [-1.12864334e-04  1.14723183e-03]]",[],0.0,0.0
1787211082.4513772,2.019750358244498,0.20780264050964306,2.0498831465328458,"[ 4.63582658e-06 -2.81051713e-07  0.00000000e+00  0.00000000e+00
  0.00000000e+00 -8.50806371e-08 -2.81051713e-07  4.89401929e-06
  0.00000000e+00  0.00000000e+00  0.00000000e+00 -3.09819955e-08
  0.00000000e+00  0.00000000e+00  0.00000000e+00  0.00000000e+00
  0.00000000e+00  0.00000000e+00  0.00000000e+00  0.00000000e+00
  0.00000000e+00  0.00000000e+00  0.00000000e+00  0.00000000e+00
  0.00000000e+00  0.00000000e+00  0.00000000e+00  0.00000000e+00
  0.00000000e+00  0.00000000e+00 -8.50806371e-08 -3.09819955e-08
  0.00000000e+00  0.00000000e+00  0.00000000e+00  2.81863646e-06]","[[ 5.75106493e-05  2.45553466e-03]
 [-1.12864334e-04  1.14723183e-03]]",[],0.0,0.0
1787211082.5009928,2.019750358244498,0.20780264050964306,2.0498831465328458,"[ 4.63582658e-06 -2.81051713e-07  0.00000000e+00  0.00000000e+00
  0.00000000e+00 -8.50806371e-08 -2.81051713e-07  4.89401929e-06
  0.00000000e+00  0.00000000e+00  0.00000000e+00 -3.09819955e-08
  0.00000000e+00  0.00000000e+00  0.00000000e+00  0.00000000e+00
  0.00000000e+00  0.00000000e+00  0.00000000e+00  0.00000000e+00
  0.00000000e+00  0.00000000e+00  0.00000000e+00  0.00000000e+00
  0.00000000e+00  0.00000000e+00  0.00000000e+00  0.00000000e+00
  0.00000000e+00  0.00000000e+00 -8.50806371e-08 -3.09819955e-08
  0.00000000e+00  0.00000000e+00  0.00000000e+00  2.81863646e-06]","[[ 5.75106493e-05  2.45553466e-03]
 [-1.12864334e-04  1.14723183e-03]]",[],0.0,0.0
1787211082.5521138,2.019750358244498,0.20780264050964306,2.0498831465328458,"[ 4.63582658e-06 -2.81051713e-07  0.00000000e+00  0.00000000e+00
  0.00000000e+00 -8.50806371e-08 -2.81051713e-07  4.89401929e-06
  0.00000000e+00  0.00000000e+00  0.00000000e+00 -3.09819955e-08
  0.00000000e+00  0.00000000e+00  0.00000000e+00  0.00000000e+00
  0.00000000e+00  0.00000000e+00  0.00000000e+00  0.00000000e+00
  0.00000000e+00  0.00000000e+00  0.00000000e+00  0.00000000e+00
  0.00000000e+00  0.00000000e+00  0.00000000e+00  0.00000000e+00
  0.00000000e+00  0.00000000e+00 -8.50806371e-08 -3.09819955e-08
  0.00000000e+00  0.00000000e+00  0.00000000e+00  2.81863646e-06]","[[ 5.75106493e-05  2.45553466e-03]
 [-1.12864334e-04  1.14723183e-03]]",[],0.0,0.0
1787211082.6023378,2.019750358244498,0.20780264050964306,2.0498831465328458,"[ 4.63582658e-06 -2.81051713e-07  0.00000000e+00  0.00000000e+00
  0.00000000e+00 -8.50806371e-08 -2.81051713e-07  4.89401929e-06
  0.00000000e+00  0.00000000e+00  0.00000000e+00 -3.09819955e-08
  0.00000000e+00  0.00000000e+00  0.00000000e+00  0.00000000e+00
  0.00000000e+00  0.00000000e+00  0.00000000e+00  0.00000000e+00
  0.00000000e+00  0.00000000e+00  0.00000000e+00  0.00000000e+00
  0.00000000e+00  0.00000000e+00  0.00000000e+00  0.00000000e+00
  0.00000000e+00  0.00000000e+00 -8.50806371e-08 -3.09819955e-08
  0.00000000e+00  0.00000000e+00  0.00000000e+00  2.81863646e-06]","[[ 5.75106493e-05  2.45553466e-03]
 [-1.12864334e-04  1.14723183e-03]]",[],0.0,0.0
1787211082.6757884,2.019750358244498,0.20780264050964306,2.0498831465328458,"[ 4.63582658e-06 -2.81051713e-07  0.00000000e+00  0.00000000e+00
  0.00000000e+00 -8.50806371e-08 -2.81051713e-07  4.89401929e-06
  0.00000000e+00  0.00000000e+00  0.00000000e+00 -3.09819955e-08
  0.00000000e+00  0.00000000e+00  0.00000000e+00  0.00000000e+00
  0.00000000e+00  0.00000000e+00  0.00000000e+00  0.00000000e+00
  0.00000000e+00  0.00000000e+00  0.00000000e+00  0.00000000e+00
  0.00000000e+00  0.00000000e+00  0.00000000e+00  0.00000000e+00
  0.00000000e+00  0.00000000e+00 -8.50806371e-08 -3.09819955e-08
  0.00000000e+00  0.00000000e+00  0.00000000e+00  2.81863646e-06]","[[ 5.75106493e-05  2.45553466e-03]
 [-1.12864334e-04  1.14723183e-03]]",[],0.0,0.0
1787211082.6995864,2.019750358244498,0.20780264050964306,2.0498831465328458,"[ 4.63582658e-06 -2.81051713e-07  0.00000000e+00  0.00000000e+00
  0.00000000e+00 -8.50806371e-08 -2.81051713e-07  4.89401929e-06
  0.00000000e+00  0.00000000e+00  0.00000000e+00 -3.09819955e-08
  0.00000000e+00  0.00000000e+00  0.00000000e+00  0.00000000e+00
  0.00000000e+00  0.00000000e+00  0.00000000e+00  0.00000000e+00
  0.00000000e+00  0.00000000e+00  0.00000000e+00  0.00000000e+00
  0.00000000e+00  0.00000000e+00  0.00000000e+00  0.00000000e+00
  0.00000000e+00  0.00000000e+00 -8.50806371e-08 -3.09819955e-08
  0.00000000e+00  0.00000000e+00  0.00000000e+00  2.81863646e-06]","[[ 5.75106493e-05  2.45553466e-03]
 [-1.12864334e-04  1.14723183e-03]]",[],0.0,0.0
1787211082.7491224,2.019750358244498,0.20780264050964306,2.0498831465328458,"[ 4.63582658e-06 -2.81051713e-07  0.00000000e+00  0.00000000e+00
  0.00000000e+00 -8.50806371e-08 -2.81051713e-07  4.89401929e-06
  0.00000000e+00  0.00000000e+00  0.00000000e+00 -3.09819955e-08
  0.00000000e+00  0.00000000e+00  0.00000000e+00  0.00000000e+00
  0.00000000e+00  0.00000000e+00  0.00000000e+00  0.00000000e+00
  0.00000000e+00  0.00000000e+00  0.00000000e+00  0.00000000e+00
  0.00000000e+00  0.00000000e+00  0.00000000e+00  0.00000000e+00
  0.00000000e+00  0.00000000e+00 -8.50806371e-08 -3.09819955e-08
  0.00000000e+00  0.00000000e+00  0.00000000e+00  2.81863646e-06]","[[ 5.75106493e-05  2.45553466e-03]
 [-1.12864334e-04  1.14723183e-03]]",[],0.0,0.0
1787211082.8103504,2.0205456456480526,0.20746035891456713,2.0591444621857082,"[ 4.29538013e-06 -3.01095039e-07  0.00000000e+00  0.00000000e+00
  0.00000000e+00 -1.00495455e-07 -3.01095039e-07  4.56941345e-06
  0.00000000e+00  0.00000000e+00  0.00000000e+00 -3.42084948e-09
  0.00000000e+00  0.00000000e+00  0.00000000e+00  0.00000000e+00
  0.00000000e+00  0.00000000e+00  0.00000000e+00  0.00000000e+00
  0.00000000e+00  0.00000000e+00  0.00000000e+00  0.00000000e+00
  0.00000000e+00  0.00000000e+00  0.00000000e+00  0.00000000e+00
  0.00000000e+00  0.00000000e+00 -1.00495455e-07 -3.42084948e-09
  0.00000000e+00  0.00000000e+00  0.00000000e+00  2.90020309e-06]","[[ 5.41559755e-05  2.29969793e-03]
 [-1.05826176e-04  1.00714852e-03]]",[],0.0,0.0
1787211082.8501563,2.0205456456480526,0.20746035891456713,2.0591444621857082,"[ 4.29538013e-06 -3.01095039e-07  0.00000000e+00  0.00000000e+00
  0.00000000e+00 -1.00495455e-07 -3.01095039e-07  4.56941345e-06
  0.00000000e+00  0.00000000e+00  0.00000000e+00 -3.42084948e-09
  0.00000000e+00  0.00000000e+00  0.00000000e+00  0.00000000e+00
  0.00000000e+00  0.00000000e+00  0.00000000e+00  0.00000000e+00
  0.00000000e+00  0.00000000e+00  0.00000000e+00  0.00000000e+00
  0.00000000e+00  0.00000000e+00  0.00000000e+00  0.00000000e+00
  0.00000000e+00  0.00000000e+00 -1.00495455e-07 -3.42084948e-09
  0.00000000e+00  0.00000000e+00  0.00000000e+00  2.90020309e-06]","[[ 5.41559755e-05  2.29969793e-03]
 [-1.05826176e-04  1.00714852e-03]]",[],0.0,0.0
1787211082.9075208,2.0205456456480526,0.20746035891456713,2.0591444621857082,"[ 4.29538013e-06 -3.01095039e-07  0.00000000e+00  0.00000000e+00
  0.00000000e+00 -1.00495455e-07 -3.01095039e-07  4.56941345e-06
  0.00000000e+00  0.00000000e+00  0.00000000e+00 -3.42084948e-09
  0.00000000e+00  0.00000000e+00  0.00000000e+00  0.00000000e+00
  0.00000000e+00  0.00000000e+00  0.00000000e+00  0.00000000e+00
  0.00000000e+00  0.00000000e+00  0.00000000e+00  0.00000000e+00
  0.00000000e+00  0.00000000e+00  0.00000000e+00  0.00000000e+00
  0.00000000e+00  0.00000000e+00 -1.00495455e-07 -3.42084948e-09
  0.00000000e+00  0.00000000e+00  0.00000000e+00  2.90020309e-06]","[[ 5.41559755e-05  2.29969793e-03]
 [-1.05826176e-04  1.00714852e-03]]",[],0.0,0.0
1787211082.9615653,2.0205456456480526,0.20746035891456713,2.0591444621857082,"[ 4.29538013e-06 -3.01095039e-07  0.00000000e+00  0.00000000e+00
  0.00000000e+00 -1.00495455e-07 -3.01095039e-07  4.56941345e-06
  0.00000000e+00  0.00000000e+00  0.00000000e+00 -3.42084948e-09
  0.00000000e+00  0.00000000e+00  0.00000000e+00  0.00000000e+00
  0.00000000e+00  0.00000000e+00  0.00000000e+00  0.00000000e+00
  0.00000000e+00  0.00000000e+00  0.00000000e+00  0.00000000e+00
  0.00000000e+00  0.00000000e+00  0.00000000e+00  0.00000000e+00
  0.00000000e+00  0.00000000e+00 -1.00495455e-07 -3.42084948e-09
  0.00000000e+00  0.00000000e+00  0.00000000e+00  2.90020309e-06]","[[ 5.41559755e-05  2.29969793e-03]
 [-1.05826176e-04  1.00714852e-03]]",[],0.0,0.0
1787211083.0477974,2.0205456456480526,0.20746035891456713,2.0591444621857082,"[ 4.29538013e-06 -3.01095039e-07  0.00000000e+00  0.00000000e+00
  0.00000000e+00 -1.00495455e-07 -3.01095039e-07  4.56941345e-06
  0.00000000e+00  0.00000000e+00  0.00000000e+00 -3.42084948e-09
  0.00000000e+00  0.00000000e+00  0.00000000e+00  0.00000000e+00
  0.00000000e+00  0.00000000e+00  0.00000000e+00  0.00000000e+00
  0.00000000e+00  0.00000000e+00  0.00000000e+00  0.00000000e+00
  0.00000000e+00  0.00000000e+00  0.00000000e+00  0.00000000e+00
  0.00000000e+00  0.00000000e+00 -1.00495455e-07 -3.42084948e-09
  0.00000000e+00  0.00000000e+00  0.00000000e+00  2.90020309e-06]","[[ 5.41559755e-05  2.29969793e-03]
 [-1.05826176e-04  1.00714852e-03]]",[],0.0,0.0
1787211083.0492258,2.0205456456480526,0.20746035891456713,2.0591444621857082,"[ 4.29538013e-06 -3.01095039e-07  0.00000000e+00  0.00000000e+00
  0.00000000e+00 -1.00495455e-07 -3.01095039e-07  4.56941345e-06
  0.00000000e+00  0.00000000e+00  0.00000000e+00 -3.42084948e-09
  0.00000000e+00  0.00000000e+00  0.00000000e+00  0.00000000e+00
  0.00000000e+00  0.00000000e+00  0.00000000e+00  0.00000000e+00
  0.00000000e+00  0.00000000e+00  0.00000000e+00  0.00000000e+00
  0.00000000e+00  0.00000000e+00  0.00000000e+00  0.00000000e+00
  0.00000000e+00  0.00000000e+00 -1.00495455e-07 -3.42084948e-09
  0.00000000e+00  0.00000000e+00  0.00000000e+00  2.90020309e-06]","[[ 5.41559755e-05  2.29969793e-03]
 [-1.05826176e-04  1.00714852e-03]]",[],0.0,0.0
1787211083.1113787,2.0205456456480526,0.20746035891456713,2.0591444621857082,"[ 4.29538013e-06 -3.01095039e-07  0.00000000e+00  0.00000000e+00
  0.00000000e+00 -1.00495455e-07 -3.01095039e-07  4.56941345e-06
  0.00000000e+00  0.00000000e+00  0.00000000e+00 -3.42084948e-09
  0.00000000e+00  0.00000000e+00  0.00000000e+00  0.00000000e+00
  0.00000000e+00  0.00000000e+00  0.00000000e+00  0.00000000e+00
  0.00000000e+00  0.00000000e+00  0.00000000e+00  0.00000000e+00
  0.00000000e+00  0.00000000e+00  0.00000000e+00  0.00000000e+00
  0.00000000e+00  0.00000000e+00 -1.00495455e-07 -3.42084948e-09
  0.00000000e+00  0.00000000e+00  0.00000000e+00  2.90020309e-06]","[[ 5.41559755e-05  2.29969793e-03]
 [-1.05826176e-04  1.00714852e-03]]",[],0.0,0.0
1787211083.1494794,2.0205456456480526,0.20746035891456713,2.0591444621857082,"[ 4.29538013e-06 -3.01095039e-07  0.00000000e+00  0.00000000e+00
  0.00000000e+00 -1.00495455e-07 -3.01095039e-07  4.56941345e-06
  0.00000000e+00  0.00000000e+00  0.00000000e+00 -3.42084948e-09
  0.00000000e+00  0.00000000e+00  0.00000000e+00  0.00000000e+00
  0.00000000e+00  0.00000000e+00  0.00000000e+00  0.00000000e+00
  0.00000000e+00  0.00000000e+00  0.00000000e+00  0.00000000e+00
  0.00000000e+00  0.00000000e+00  0.00000000e+00  0.00000000e+00
  0.00000000e+00  0.00000000e+00 -1.00495455e-07 -3.42084948e-09
  0.00000000e+00  0.00000000e+00  0.00000000e+00  2.90020309e-06]","[[ 5.41559755e-05  2.29969793e-03]
 [-1.05826176e-04  1.00714852e-03]]",[],0.0,0.0
1787211083.246833,2.0205456456480526,0.20746035891456713,2.0591444621857082,"[ 4.29538013e-06 -3.01095039e-07  0.00000000e+00  0.00000000e+00
  0.00000000e+00 -1.00495455e-07 -3.01095039e-07  4.56941345e-06
  0.00000000e+00  0.00000000e+00  0.00000000e+00 -3.42084948e-09
  0.00000000e+00  0.00000000e+00  0.00000000e+00  0.00000000e+00
  0.00000000e+00  0.00000000e+00  0.00000000e+00  0.00000000e+00
  0.00000000e+00  0.00000000e+00  0.00000000e+00  0.00000000e+00
  0.00000000e+00  0.00000000e+00  0.00000000e+00  0.00000000e+00
  0.00000000e+00  0.00000000e+00 -1.00495455e-07 -3.42084948e-09
  0.00000000e+00  0.00000000e+00  0.00000000e+00  2.90020309e-06]","[[ 5.41559755e-05  2.29969793e-03]
 [-1.05826176e-04  1.00714852e-03]]",[],0.0,0.0
1787211083.2556753,2.0205456456480526,0.20746035891456713,2.0591444621857082,"[ 4.29538013e-06 -3.01095039e-07  0.00000000e+00  0.00000000e+00
  0.00000000e+00 -1.00495455e-07 -3.01095039e-07  4.56941345e-06
  0.00000000e+00  0.00000000e+00  0.00000000e+00 -3.42084948e-09
  0.00000000e+00  0.00000000e+00  0.00000000e+00  0.00000000e+00
  0.00000000e+00  0.00000000e+00  0.00000000e+00  0.00000000e+00
  0.00000000e+00  0.00000000e+00  0.00000000e+00  0.00000000e+00
  0.00000000e+00  0.00000000e+00  0.00000000e+00  0.00000000e+00
  0.00000000e+00  0.00000000e+00 -1.00495455e-07 -3.42084948e-09
  0.00000000e+00  0.00000000e+00  0.00000000e+00  2.90020309e-06]","[[ 5.41559755e-05  2.29969793e-03]
 [-1.05826176e-04  1.00714852e-03]]",[],0.0,0.0
1787211083.3003016,2.0205456456480526,0.20746035891456713,2.0591444621857082,"[ 4.29538013e-06 -3.01095039e-07  0.00000000e+00  0.00000000e+00
  0.00000000e+00 -1.00495455e-07 -3.01095039e-07  4.56941345e-06
  0.00000000e+00  0.00000000e+00  0.00000000e+00 -3.42084948e-09
  0.00000000e+00  0.00000000e+00  0.00000000e+00  0.00000000e+00
  0.00000000e+00  0.00000000e+00  0.00000000e+00  0.00000000e+00
  0.00000000e+00  0.00000000e+00  0.00000000e+00  0.00000000e+00
  0.00000000e+00  0.00000000e+00  0.00000000e+00  0.00000000e+00
  0.00000000e+00  0.00000000e+00 -1.00495455e-07 -3.42084948e-09
  0.00000000e+00  0.00000000e+00  0.00000000e+00  2.90020309e-06]","[[ 5.41559755e-05  2.29969793e-03]
 [-1.05826176e-04  1.00714852e-03]]",[],0.0,0.0
1787211083.353366,2.0205456456480526,0.20746035891456713,2.0591444621857082,"[ 4.29538013e-06 -3.01095039e-07  0.00000000e+00  0.00000000e+00
  0.00000000e+00 -1.00495455e-07 -3.01095039e-07  4.56941345e-06
  0.00000000e+00  0.00000000e+00  0.00000000e+00 -3.42084948e-09
  0.00000000e+00  0.00000000e+00  0.00000000e+00  0.00000000e+00
