time,x,y,yaw,cov_prop,K_gain,innovation,v_ekf,omega_ekf
1787133259.0448792,0.25737492927248573,-1.0915679307648327,0.36037283852132873,"[ 3.39179361e-06  8.82593061e-08  0.00000000e+00  0.00000000e+00
  0.00000000e+00 -3.81330222e-09  8.82593061e-08  3.30657864e-06
  0.00000000e+00  0.00000000e+00  0.00000000e+00  2.96212797e-07
  0.00000000e+00  0.00000000e+00  0.00000000e+00  0.00000000e+00
  0.00000000e+00  0.00000000e+00  0.00000000e+00  0.00000000e+00
  0.00000000e+00  0.00000000e+00  0.00000000e+00  0.00000000e+00
  0.00000000e+00  0.00000000e+00  0.00000000e+00  0.00000000e+00
  0.00000000e+00  0.00000000e+00 -3.81330222e-09  2.96212797e-07
  0.00000000e+00  0.00000000e+00  0.00000000e+00  1.56472396e-06]","[[-0.00818385  0.00070699]
 [-0.00259171 -0.0034175 ]]",[],0.0,0.0
1787133259.138904,0.25737492927248573,-1.0915679307648327,0.36037283852132873,"[ 3.39179361e-06  8.82593061e-08  0.00000000e+00  0.00000000e+00
  0.00000000e+00 -3.81330222e-09  8.82593061e-08  3.30657864e-06
  0.00000000e+00  0.00000000e+00  0.00000000e+00  2.96212797e-07
  0.00000000e+00  0.00000000e+00  0.00000000e+00  0.00000000e+00
  0.00000000e+00  0.00000000e+00  0.00000000e+00  0.00000000e+00
  0.00000000e+00  0.00000000e+00  0.00000000e+00  0.00000000e+00
  0.00000000e+00  0.00000000e+00  0.00000000e+00  0.00000000e+00
  0.00000000e+00  0.00000000e+00 -3.81330222e-09  2.96212797e-07
  0.00000000e+00  0.00000000e+00  0.00000000e+00  1.56472396e-06]","[[-0.00818385  0.00070699]
 [-0.00259171 -0.0034175 ]]",[],0.0,0.0
1787133259.1888013,0.25737492927248573,-1.0915679307648327,0.36037283852132873,"[ 3.39179361e-06  8.82593061e-08  0.00000000e+00  0.00000000e+00
  0.00000000e+00 -3.81330222e-09  8.82593061e-08  3.30657864e-06
  0.00000000e+00  0.00000000e+00  0.00000000e+00  2.96212797e-07
  0.00000000e+00  0.00000000e+00  0.00000000e+00  0.00000000e+00
  0.00000000e+00  0.00000000e+00  0.00000000e+00  0.00000000e+00
  0.00000000e+00  0.00000000e+00  0.00000000e+00  0.00000000e+00
  0.00000000e+00  0.00000000e+00  0.00000000e+00  0.00000000e+00
  0.00000000e+00  0.00000000e+00 -3.81330222e-09  2.96212797e-07
  0.00000000e+00  0.00000000e+00  0.00000000e+00  1.56472396e-06]","[[-0.00818385  0.00070699]
 [-0.00259171 -0.0034175 ]]",[],0.0,0.0
1787133259.2727723,0.25737492927248573,-1.0915679307648327,0.36037283852132873,"[ 3.39179361e-06  8.82593061e-08  0.00000000e+00  0.00000000e+00
  0.00000000e+00 -3.81330222e-09  8.82593061e-08  3.30657864e-06
  0.00000000e+00  0.00000000e+00  0.00000000e+00  2.96212797e-07
  0.00000000e+00  0.00000000e+00  0.00000000e+00  0.00000000e+00
  0.00000000e+00  0.00000000e+00  0.00000000e+00  0.00000000e+00
  0.00000000e+00  0.00000000e+00  0.00000000e+00  0.00000000e+00
  0.00000000e+00  0.00000000e+00  0.00000000e+00  0.00000000e+00
  0.00000000e+00  0.00000000e+00 -3.81330222e-09  2.96212797e-07
  0.00000000e+00  0.00000000e+00  0.00000000e+00  1.56472396e-06]","[[-0.00818385  0.00070699]
 [-0.00259171 -0.0034175 ]]",[],0.0,0.0
1787133259.3111193,0.25737492927248573,-1.0915679307648327,0.36037283852132873,"[ 3.39179361e-06  8.82593061e-08  0.00000000e+00  0.00000000e+00
  0.00000000e+00 -3.81330222e-09  8.82593061e-08  3.30657864e-06
  0.00000000e+00  0.00000000e+00  0.00000000e+00  2.96212797e-07
  0.00000000e+00  0.00000000e+00  0.00000000e+00  0.00000000e+00
  0.00000000e+00  0.00000000e+00  0.00000000e+00  0.00000000e+00
  0.00000000e+00  0.00000000e+00  0.00000000e+00  0.00000000e+00
  0.00000000e+00  0.00000000e+00  0.00000000e+00  0.00000000e+00
  0.00000000e+00  0.00000000e+00 -3.81330222e-09  2.96212797e-07
  0.00000000e+00  0.00000000e+00  0.00000000e+00  1.56472396e-06]","[[-0.00818385  0.00070699]
 [-0.00259171 -0.0034175 ]]",[],0.0,0.0
1787133259.3660533,0.25737492927248573,-1.0915679307648327,0.36037283852132873,"[ 3.39179361e-06  8.82593061e-08  0.00000000e+00  0.00000000e+00
  0.00000000e+00 -3.81330222e-09  8.82593061e-08  3.30657864e-06
  0.00000000e+00  0.00000000e+00  0.00000000e+00  2.96212797e-07
  0.00000000e+00  0.00000000e+00  0.00000000e+00  0.00000000e+00
  0.00000000e+00  0.00000000e+00  0.00000000e+00  0.00000000e+00
  0.00000000e+00  0.00000000e+00  0.00000000e+00  0.00000000e+00
  0.00000000e+00  0.00000000e+00  0.00000000e+00  0.00000000e+00
  0.00000000e+00  0.00000000e+00 -3.81330222e-09  2.96212797e-07
  0.00000000e+00  0.00000000e+00  0.00000000e+00  1.56472396e-06]","[[-0.00818385  0.00070699]
 [-0.00259171 -0.0034175 ]]",[],0.0,0.0
1787133259.388506,0.25737492927248573,-1.0915679307648327,0.36037283852132873,"[ 3.39179361e-06  8.82593061e-08  0.00000000e+00  0.00000000e+00
  0.00000000e+00 -3.81330222e-09  8.82593061e-08  3.30657864e-06
  0.00000000e+00  0.00000000e+00  0.00000000e+00  2.96212797e-07
  0.00000000e+00  0.00000000e+00  0.00000000e+00  0.00000000e+00
  0.00000000e+00  0.00000000e+00  0.00000000e+00  0.00000000e+00
  0.00000000e+00  0.00000000e+00  0.00000000e+00  0.00000000e+00
  0.00000000e+00  0.00000000e+00  0.00000000e+00  0.00000000e+00
  0.00000000e+00  0.00000000e+00 -3.81330222e-09  2.96212797e-07
  0.00000000e+00  0.00000000e+00  0.00000000e+00  1.56472396e-06]","[[-0.00818385  0.00070699]
 [-0.00259171 -0.0034175 ]]",[],0.0,0.0
1787133259.4746187,0.25737492927248573,-1.0915679307648327,0.36037283852132873,"[ 3.39179361e-06  8.82593061e-08  0.00000000e+00  0.00000000e+00
  0.00000000e+00 -3.81330222e-09  8.82593061e-08  3.30657864e-06
  0.00000000e+00  0.00000000e+00  0.00000000e+00  2.96212797e-07
  0.00000000e+00  0.00000000e+00  0.00000000e+00  0.00000000e+00
  0.00000000e+00  0.00000000e+00  0.00000000e+00  0.00000000e+00
  0.00000000e+00  0.00000000e+00  0.00000000e+00  0.00000000e+00
  0.00000000e+00  0.00000000e+00  0.00000000e+00  0.00000000e+00
  0.00000000e+00  0.00000000e+00 -3.81330222e-09  2.96212797e-07
  0.00000000e+00  0.00000000e+00  0.00000000e+00  1.56472396e-06]","[[-0.00818385  0.00070699]
 [-0.00259171 -0.0034175 ]]",[],0.0,0.0
1787133259.5654154,0.25737492927248573,-1.0915679307648327,0.36037283852132873,"[ 3.39179361e-06  8.82593061e-08  0.00000000e+00  0.00000000e+00
  0.00000000e+00 -3.81330222e-09  8.82593061e-08  3.30657864e-06
  0.00000000e+00  0.00000000e+00  0.00000000e+00  2.96212797e-07
  0.00000000e+00  0.00000000e+00  0.00000000e+00  0.00000000e+00
  0.00000000e+00  0.00000000e+00  0.00000000e+00  0.00000000e+00
  0.00000000e+00  0.00000000e+00  0.00000000e+00  0.00000000e+00
  0.00000000e+00  0.00000000e+00  0.00000000e+00  0.00000000e+00
  0.00000000e+00  0.00000000e+00 -3.81330222e-09  2.96212797e-07
  0.00000000e+00  0.00000000e+00  0.00000000e+00  1.56472396e-06]","[[-0.00818385  0.00070699]
 [-0.00259171 -0.0034175 ]]",[],0.0,0.0
1787133259.5899649,0.25737492927248573,-1.0915679307648327,0.36037283852132873,"[ 3.39179361e-06  8.82593061e-08  0.00000000e+00  0.00000000e+00
  0.00000000e+00 -3.81330222e-09  8.82593061e-08  3.30657864e-06
  0.00000000e+00  0.00000000e+00  0.00000000e+00  2.96212797e-07
  0.00000000e+00  0.00000000e+00  0.00000000e+00  0.00000000e+00
  0.00000000e+00  0.00000000e+00  0.00000000e+00  0.00000000e+00
  0.00000000e+00  0.00000000e+00  0.00000000e+00  0.00000000e+00
  0.00000000e+00  0.00000000e+00  0.00000000e+00  0.00000000e+00
  0.00000000e+00  0.00000000e+00 -3.81330222e-09  2.96212797e-07
  0.00000000e+00  0.00000000e+00  0.00000000e+00  1.56472396e-06]","[[-0.00818385  0.00070699]
 [-0.00259171 -0.0034175 ]]",[],0.0,0.0
1787133259.6523466,0.25737492927248573,-1.0915679307648327,0.36037283852132873,"[ 3.39179361e-06  8.82593061e-08  0.00000000e+00  0.00000000e+00
  0.00000000e+00 -3.81330222e-09  8.82593061e-08  3.30657864e-06
  0.00000000e+00  0.00000000e+00  0.00000000e+00  2.96212797e-07
  0.00000000e+00  0.00000000e+00  0.00000000e+00  0.00000000e+00
  0.00000000e+00  0.00000000e+00  0.00000000e+00  0.00000000e+00
  0.00000000e+00  0.00000000e+00  0.00000000e+00  0.00000000e+00
  0.00000000e+00  0.00000000e+00  0.00000000e+00  0.00000000e+00
  0.00000000e+00  0.00000000e+00 -3.81330222e-09  2.96212797e-07
  0.00000000e+00  0.00000000e+00  0.00000000e+00  1.56472396e-06]","[[-0.00818385  0.00070699]
 [-0.00259171 -0.0034175 ]]",[],0.0,0.0
1787133259.7133846,0.25737492927248573,-1.0915679307648327,0.36037283852132873,"[ 3.39179361e-06  8.82593061e-08  0.00000000e+00  0.00000000e+00
  0.00000000e+00 -3.81330222e-09  8.82593061e-08  3.30657864e-06
  0.00000000e+00  0.00000000e+00  0.00000000e+00  2.96212797e-07
  0.00000000e+00  0.00000000e+00  0.00000000e+00  0.00000000e+00
  0.00000000e+00  0.00000000e+00  0.00000000e+00  0.00000000e+00
  0.00000000e+00  0.00000000e+00  0.00000000e+00  0.00000000e+00
  0.00000000e+00  0.00000000e+00  0.00000000e+00  0.00000000e+00
  0.00000000e+00  0.00000000e+00 -3.81330222e-09  2.96212797e-07
  0.00000000e+00  0.00000000e+00  0.00000000e+00  1.56472396e-06]","[[-0.00818385  0.00070699]
 [-0.00259171 -0.0034175 ]]",[],0.0,0.0
1787133259.7464223,0.25737492927248573,-1.0915679307648327,0.36037283852132873,"[ 3.39179361e-06  8.82593061e-08  0.00000000e+00  0.00000000e+00
  0.00000000e+00 -3.81330222e-09  8.82593061e-08  3.30657864e-06
  0.00000000e+00  0.00000000e+00  0.00000000e+00  2.96212797e-07
  0.00000000e+00  0.00000000e+00  0.00000000e+00  0.00000000e+00
  0.00000000e+00  0.00000000e+00  0.00000000e+00  0.00000000e+00
  0.00000000e+00  0.00000000e+00  0.00000000e+00  0.00000000e+00
  0.00000000e+00  0.00000000e+00  0.00000000e+00  0.00000000e+00
  0.00000000e+00  0.00000000e+00 -3.81330222e-09  2.96212797e-07
  0.00000000e+00  0.00000000e+00  0.00000000e+00  1.56472396e-06]","[[-0.00818385  0.00070699]
 [-0.00259171 -0.0034175 ]]",[],0.0,0.0
1787133259.7887256,0.25737492927248573,-1.0915679307648327,0.36037283852132873,"[ 3.39179361e-06  8.82593061e-08  0.00000000e+00  0.00000000e+00
  0.00000000e+00 -3.81330222e-09  8.82593061e-08  3.30657864e-06
  0.00000000e+00  0.00000000e+00  0.00000000e+00  2.96212797e-07
  0.00000000e+00  0.00000000e+00  0.00000000e+00  0.00000000e+00
  0.00000000e+00  0.00000000e+00  0.00000000e+00  0.00000000e+00
  0.00000000e+00  0.00000000e+00  0.00000000e+00  0.00000000e+00
  0.00000000e+00  0.00000000e+00  0.00000000e+00  0.00000000e+00
  0.00000000e+00  0.00000000e+00 -3.81330222e-09  2.96212797e-07
  0.00000000e+00  0.00000000e+00  0.00000000e+00  1.56472396e-06]","[[-0.00818385  0.00070699]
 [-0.00259171 -0.0034175 ]]",[],0.0,0.0
1787133259.8525355,0.25737492927248573,-1.0915679307648327,0.36037283852132873,"[ 3.39179361e-06  8.82593061e-08  0.00000000e+00  0.00000000e+00
  0.00000000e+00 -3.81330222e-09  8.82593061e-08  3.30657864e-06
  0.00000000e+00  0.00000000e+00  0.00000000e+00  2.96212797e-07
  0.00000000e+00  0.00000000e+00  0.00000000e+00  0.00000000e+00
  0.00000000e+00  0.00000000e+00  0.00000000e+00  0.00000000e+00
  0.00000000e+00  0.00000000e+00  0.00000000e+00  0.00000000e+00
  0.00000000e+00  0.00000000e+00  0.00000000e+00  0.00000000e+00
  0.00000000e+00  0.00000000e+00 -3.81330222e-09  2.96212797e-07
  0.00000000e+00  0.00000000e+00  0.00000000e+00  1.56472396e-06]","[[-0.00818385  0.00070699]
 [-0.00259171 -0.0034175 ]]",[],0.0,0.0
1787133259.906225,0.25737492927248573,-1.0915679307648327,0.36037283852132873,"[ 3.39179361e-06  8.82593061e-08  0.00000000e+00  0.00000000e+00
  0.00000000e+00 -3.81330222e-09  8.82593061e-08  3.30657864e-06
  0.00000000e+00  0.00000000e+00  0.00000000e+00  2.96212797e-07
  0.00000000e+00  0.00000000e+00  0.00000000e+00  0.00000000e+00
  0.00000000e+00  0.00000000e+00  0.00000000e+00  0.00000000e+00
  0.00000000e+00  0.00000000e+00  0.00000000e+00  0.00000000e+00
  0.00000000e+00  0.00000000e+00  0.00000000e+00  0.00000000e+00
  0.00000000e+00  0.00000000e+00 -3.81330222e-09  2.96212797e-07
  0.00000000e+00  0.00000000e+00  0.00000000e+00  1.56472396e-06]","[[-0.00818385  0.00070699]
 [-0.00259171 -0.0034175 ]]",[],0.0,0.0
1787133259.942455,0.25737492927248573,-1.0915679307648327,0.36037283852132873,"[ 3.39179361e-06  8.82593061e-08  0.00000000e+00  0.00000000e+00
  0.00000000e+00 -3.81330222e-09  8.82593061e-08  3.30657864e-06
  0.00000000e+00  0.00000000e+00  0.00000000e+00  2.96212797e-07
  0.00000000e+00  0.00000000e+00  0.00000000e+00  0.00000000e+00
  0.00000000e+00  0.00000000e+00  0.00000000e+00  0.00000000e+00
  0.00000000e+00  0.00000000e+00  0.00000000e+00  0.00000000e+00
  0.00000000e+00  0.00000000e+00  0.00000000e+00  0.00000000e+00
  0.00000000e+00  0.00000000e+00 -3.81330222e-09  2.96212797e-07
  0.00000000e+00  0.00000000e+00  0.00000000e+00  1.56472396e-06]","[[-0.00818385  0.00070699]
 [-0.00259171 -0.0034175 ]]",[],0.0,0.0
1787133260.0150442,0.25004631275417005,-1.0855152625421138,0.3525646915335252,"[1.78809185e-06 6.68486130e-08 0.00000000e+00 0.00000000e+00
 0.00000000e+00 2.91191276e-08 6.68486130e-08 1.67135305e-06
 0.00000000e+00 0.00000000e+00 0.00000000e+00 1.54816323e-07
 0.00000000e+00 0.00000000e+00 0.00000000e+00 0.00000000e+00
 0.00000000e+00 0.00000000e+00 0.00000000e+00 0.00000000e+00
 0.00000000e+00 0.00000000e+00 0.00000000e+00 0.00000000e+00
 0.00000000e+00 0.00000000e+00 0.00000000e+00 0.00000000e+00
 0.00000000e+00 0.00000000e+00 2.91191276e-08 1.54816323e-07
 0.00000000e+00 0.00000000e+00 0.00000000e+00 1.49996225e-06]","[[-0.0042908   0.00029363]
 [-0.00148882 -0.00171073]]",[],0.0,0.0
1787133260.0400422,0.25004631275417005,-1.0855152625421138,0.3525646915335252,"[1.78809185e-06 6.68486130e-08 0.00000000e+00 0.00000000e+00
 0.00000000e+00 2.91191276e-08 6.68486130e-08 1.67135305e-06
 0.00000000e+00 0.00000000e+00 0.00000000e+00 1.54816323e-07
 0.00000000e+00 0.00000000e+00 0.00000000e+00 0.00000000e+00
 0.00000000e+00 0.00000000e+00 0.00000000e+00 0.00000000e+00
 0.00000000e+00 0.00000000e+00 0.00000000e+00 0.00000000e+00
 0.00000000e+00 0.00000000e+00 0.00000000e+00 0.00000000e+00
 0.00000000e+00 0.00000000e+00 2.91191276e-08 1.54816323e-07
 0.00000000e+00 0.00000000e+00 0.00000000e+00 1.49996225e-06]","[[-0.0042908   0.00029363]
 [-0.00148882 -0.00171073]]",[],0.0,0.0
1787133260.0943289,0.25004631275417005,-1.0855152625421138,0.3525646915335252,"[1.78809185e-06 6.68486130e-08 0.00000000e+00 0.00000000e+00
 0.00000000e+00 2.91191276e-08 6.68486130e-08 1.67135305e-06
 0.00000000e+00 0.00000000e+00 0.00000000e+00 1.54816323e-07
 0.00000000e+00 0.00000000e+00 0.00000000e+00 0.00000000e+00
 0.00000000e+00 0.00000000e+00 0.00000000e+00 0.00000000e+00
 0.00000000e+00 0.00000000e+00 0.00000000e+00 0.00000000e+00
 0.00000000e+00 0.00000000e+00 0.00000000e+00 0.00000000e+00
 0.00000000e+00 0.00000000e+00 2.91191276e-08 1.54816323e-07
 0.00000000e+00 0.00000000e+00 0.00000000e+00 1.49996225e-06]","[[-0.0042908   0.00029363]
 [-0.00148882 -0.00171073]]",[],0.0,0.0
1787133260.5414116,0.25004631275417005,-1.0855152625421138,0.3525646915335252,"[1.78809185e-06 6.68486130e-08 0.00000000e+00 0.00000000e+00
 0.00000000e+00 2.91191276e-08 6.68486130e-08 1.67135305e-06
 0.00000000e+00 0.00000000e+00 0.00000000e+00 1.54816323e-07
 0.00000000e+00 0.00000000e+00 0.00000000e+00 0.00000000e+00
 0.00000000e+00 0.00000000e+00 0.00000000e+00 0.00000000e+00
 0.00000000e+00 0.00000000e+00 0.00000000e+00 0.00000000e+00
 0.00000000e+00 0.00000000e+00 0.00000000e+00 0.00000000e+00
 0.00000000e+00 0.00000000e+00 2.91191276e-08 1.54816323e-07
 0.00000000e+00 0.00000000e+00 0.00000000e+00 1.49996225e-06]","[[-0.0042908   0.00029363]
 [-0.00148882 -0.00171073]]",[],0.0,0.0
1787133260.5917513,0.25004631275417005,-1.0855152625421138,0.3525646915335252,"[1.78809185e-06 6.68486130e-08 0.00000000e+00 0.00000000e+00
 0.00000000e+00 2.91191276e-08 6.68486130e-08 1.67135305e-06
 0.00000000e+00 0.00000000e+00 0.00000000e+00 1.54816323e-07
 0.00000000e+00 0.00000000e+00 0.00000000e+00 0.00000000e+00
 0.00000000e+00 0.00000000e+00 0.00000000e+00 0.00000000e+00
 0.00000000e+00 0.00000000e+00 0.00000000e+00 0.00000000e+00
 0.00000000e+00 0.00000000e+00 0.00000000e+00 0.00000000e+00
 0.00000000e+00 0.00000000e+00 2.91191276e-08 1.54816323e-07
 0.00000000e+00 0.00000000e+00 0.00000000e+00 1.49996225e-06]","[[-0.0042908   0.00029363]
 [-0.00148882 -0.00171073]]",[],0.0,0.0
1787133260.7076666,0.25004631275417005,-1.0855152625421138,0.3525646915335252,"[1.78809185e-06 6.68486130e-08 0.00000000e+00 0.00000000e+00
 0.00000000e+00 2.91191276e-08 6.68486130e-08 1.67135305e-06
 0.00000000e+00 0.00000000e+00 0.00000000e+00 1.54816323e-07
 0.00000000e+00 0.00000000e+00 0.00000000e+00 0.00000000e+00
 0.00000000e+00 0.00000000e+00 0.00000000e+00 0.00000000e+00
 0.00000000e+00 0.00000000e+00 0.00000000e+00 0.00000000e+00
 0.00000000e+00 0.00000000e+00 0.00000000e+00 0.00000000e+00
 0.00000000e+00 0.00000000e+00 2.91191276e-08 1.54816323e-07
 0.00000000e+00 0.00000000e+00 0.00000000e+00 1.49996225e-06]","[[-0.0042908   0.00029363]
 [-0.00148882 -0.00171073]]",[],0.0,0.0
1787133260.8245406,0.25004631275417005,-1.0855152625421138,0.3525646915335252,"[1.78809185e-06 6.68486130e-08 0.00000000e+00 0.00000000e+00
 0.00000000e+00 2.91191276e-08 6.68486130e-08 1.67135305e-06
 0.00000000e+00 0.00000000e+00 0.00000000e+00 1.54816323e-07
 0.00000000e+00 0.00000000e+00 0.00000000e+00 0.00000000e+00
 0.00000000e+00 0.00000000e+00 0.00000000e+00 0.00000000e+00
 0.00000000e+00 0.00000000e+00 0.00000000e+00 0.00000000e+00
 0.00000000e+00 0.00000000e+00 0.00000000e+00 0.00000000e+00
 0.00000000e+00 0.00000000e+00 2.91191276e-08 1.54816323e-07
 0.00000000e+00 0.00000000e+00 0.00000000e+00 1.49996225e-06]","[[-0.0042908   0.00029363]
 [-0.00148882 -0.00171073]]",[],0.0,0.0
1787133260.911477,0.24733494738575032,-1.0800601768475073,0.35414623637539355,"[1.30449011e-06 8.18647315e-08 0.00000000e+00 0.00000000e+00
 0.00000000e+00 1.59804592e-08 8.18647315e-08 1.14538922e-06
 0.00000000e+00 0.00000000e+00 0.00000000e+00 1.03130109e-07
 0.00000000e+00 0.00000000e+00 0.00000000e+00 0.00000000e+00
 0.00000000e+00 0.00000000e+00 0.00000000e+00 0.00000000e+00
 0.00000000e+00 0.00000000e+00 0.00000000e+00 0.00000000e+00
 0.00000000e+00 0.00000000e+00 0.00000000e+00 0.00000000e+00
 0.00000000e+00 0.00000000e+00 1.59804592e-08 1.03130109e-07
 0.00000000e+00 0.00000000e+00 0.00000000e+00 1.54804063e-06]","[[-0.00315825  0.00020522]
 [-0.00110073 -0.00115349]]",[],0.0,0.0
1787133260.9541128,0.24733494738575032,-1.0800601768475073,0.35414623637539355,"[1.30449011e-06 8.18647315e-08 0.00000000e+00 0.00000000e+00
 0.00000000e+00 1.59804592e-08 8.18647315e-08 1.14538922e-06
 0.00000000e+00 0.00000000e+00 0.00000000e+00 1.03130109e-07
 0.00000000e+00 0.00000000e+00 0.00000000e+00 0.00000000e+00
 0.00000000e+00 0.00000000e+00 0.00000000e+00 0.00000000e+00
 0.00000000e+00 0.00000000e+00 0.00000000e+00 0.00000000e+00
 0.00000000e+00 0.00000000e+00 0.00000000e+00 0.00000000e+00
 0.00000000e+00 0.00000000e+00 1.59804592e-08 1.03130109e-07
 0.00000000e+00 0.00000000e+00 0.00000000e+00 1.54804063e-06]","[[-0.00315825  0.00020522]
 [-0.00110073 -0.00115349]]",[],0.0,0.0
1787133260.9934297,0.24733494738575032,-1.0800601768475073,0.35414623637539355,"[1.30449011e-06 8.18647315e-08 0.00000000e+00 0.00000000e+00
 0.00000000e+00 1.59804592e-08 8.18647315e-08 1.14538922e-06
 0.00000000e+00 0.00000000e+00 0.00000000e+00 1.03130109e-07
 0.00000000e+00 0.00000000e+00 0.00000000e+00 0.00000000e+00
 0.00000000e+00 0.00000000e+00 0.00000000e+00 0.00000000e+00
 0.00000000e+00 0.00000000e+00 0.00000000e+00 0.00000000e+00
 0.00000000e+00 0.00000000e+00 0.00000000e+00 0.00000000e+00
 0.00000000e+00 0.00000000e+00 1.59804592e-08 1.03130109e-07
 0.00000000e+00 0.00000000e+00 0.00000000e+00 1.54804063e-06]","[[-0.00315825  0.00020522]
 [-0.00110073 -0.00115349]]",[],0.0,0.0
1787133261.2285395,0.24733494738575032,-1.0800601768475073,0.35414623637539355,"[1.30449011e-06 8.18647315e-08 0.00000000e+00 0.00000000e+00
 0.00000000e+00 1.59804592e-08 8.18647315e-08 1.14538922e-06
 0.00000000e+00 0.00000000e+00 0.00000000e+00 1.03130109e-07
 0.00000000e+00 0.00000000e+00 0.00000000e+00 0.00000000e+00
 0.00000000e+00 0.00000000e+00 0.00000000e+00 0.00000000e+00
 0.00000000e+00 0.00000000e+00 0.00000000e+00 0.00000000e+00
 0.00000000e+00 0.00000000e+00 0.00000000e+00 0.00000000e+00
 0.00000000e+00 0.00000000e+00 1.59804592e-08 1.03130109e-07
 0.00000000e+00 0.00000000e+00 0.00000000e+00 1.54804063e-06]","[[-0.00315825  0.00020522]
 [-0.00110073 -0.00115349]]",[],0.0,0.0
1787133261.241437,0.24733494738575032,-1.0800601768475073,0.35414623637539355,"[1.30449011e-06 8.18647315e-08 0.00000000e+00 0.00000000e+00
 0.00000000e+00 1.59804592e-08 8.18647315e-08 1.14538922e-06
 0.00000000e+00 0.00000000e+00 0.00000000e+00 1.03130109e-07
 0.00000000e+00 0.00000000e+00 0.00000000e+00 0.00000000e+00
 0.00000000e+00 0.00000000e+00 0.00000000e+00 0.00000000e+00
 0.00000000e+00 0.00000000e+00 0.00000000e+00 0.00000000e+00
 0.00000000e+00 0.00000000e+00 0.00000000e+00 0.00000000e+00
 0.00000000e+00 0.00000000e+00 1.59804592e-08 1.03130109e-07
 0.00000000e+00 0.00000000e+00 0.00000000e+00 1.54804063e-06]","[[-0.00315825  0.00020522]
 [-0.00110073 -0.00115349]]",[],0.0,0.0
1787133261.3782947,0.24733494738575032,-1.0800601768475073,0.35414623637539355,"[1.30449011e-06 8.18647315e-08 0.00000000e+00 0.00000000e+00
 0.00000000e+00 1.59804592e-08 8.18647315e-08 1.14538922e-06
 0.00000000e+00 0.00000000e+00 0.00000000e+00 1.03130109e-07
 0.00000000e+00 0.00000000e+00 0.00000000e+00 0.00000000e+00
 0.00000000e+00 0.00000000e+00 0.00000000e+00 0.00000000e+00
 0.00000000e+00 0.00000000e+00 0.00000000e+00 0.00000000e+00
 0.00000000e+00 0.00000000e+00 0.00000000e+00 0.00000000e+00
 0.00000000e+00 0.00000000e+00 1.59804592e-08 1.03130109e-07
 0.00000000e+00 0.00000000e+00 0.00000000e+00 1.54804063e-06]","[[-0.00315825  0.00020522]
 [-0.00110073 -0.00115349]]",[],0.0,0.0
1787133261.7640243,0.24733494738575032,-1.0800601768475073,0.35414623637539355,"[1.30449011e-06 8.18647315e-08 0.00000000e+00 0.00000000e+00
 0.00000000e+00 1.59804592e-08 8.18647315e-08 1.14538922e-06
 0.00000000e+00 0.00000000e+00 0.00000000e+00 1.03130109e-07
 0.00000000e+00 0.00000000e+00 0.00000000e+00 0.00000000e+00
 0.00000000e+00 0.00000000e+00 0.00000000e+00 0.00000000e+00
 0.00000000e+00 0.00000000e+00 0.00000000e+00 0.00000000e+00
 0.00000000e+00 0.00000000e+00 0.00000000e+00 0.00000000e+00
 0.00000000e+00 0.00000000e+00 1.59804592e-08 1.03130109e-07
 0.00000000e+00 0.00000000e+00 0.00000000e+00 1.54804063e-06]","[[-0.00315825  0.00020522]
 [-0.00110073 -0.00115349]]",[],0.0,0.0
1787133261.803901,0.24247852991185867,-1.0762116242531783,0.3539539374202727,"[1.07505013e-06 9.87269360e-08 0.00000000e+00 0.00000000e+00
 0.00000000e+00 1.62334852e-08 9.87269360e-08 8.71240375e-07
 0.00000000e+00 0.00000000e+00 0.00000000e+00 9.01051349e-08
 0.00000000e+00 0.00000000e+00 0.00000000e+00 0.00000000e+00
 0.00000000e+00 0.00000000e+00 0.00000000e+00 0.00000000e+00
 0.00000000e+00 0.00000000e+00 0.00000000e+00 0.00000000e+00
 0.00000000e+00 0.00000000e+00 0.00000000e+00 0.00000000e+00
 0.00000000e+00 0.00000000e+00 1.62334852e-08 9.01051349e-08
 0.00000000e+00 0.00000000e+00 0.00000000e+00 1.47808266e-06]","[[-0.00261713  0.00014935]
 [-0.00095595 -0.00090196]]",[],0.0,0.0
1787133262.1753623,0.24247852991185867,-1.0762116242531783,0.3539539374202727,"[1.07505013e-06 9.87269360e-08 0.00000000e+00 0.00000000e+00
 0.00000000e+00 1.62334852e-08 9.87269360e-08 8.71240375e-07
 0.00000000e+00 0.00000000e+00 0.00000000e+00 9.01051349e-08
 0.00000000e+00 0.00000000e+00 0.00000000e+00 0.00000000e+00
 0.00000000e+00 0.00000000e+00 0.00000000e+00 0.00000000e+00
 0.00000000e+00 0.00000000e+00 0.00000000e+00 0.00000000e+00
 0.00000000e+00 0.00000000e+00 0.00000000e+00 0.00000000e+00
 0.00000000e+00 0.00000000e+00 1.62334852e-08 9.01051349e-08
 0.00000000e+00 0.00000000e+00 0.00000000e+00 1.47808266e-06]","[[-0.00261713  0.00014935]
 [-0.00095595 -0.00090196]]",[],0.0,0.0
1787133262.1909022,0.24247852991185867,-1.0762116242531783,0.3539539374202727,"[1.07505013e-06 9.87269360e-08 0.00000000e+00 0.00000000e+00
 0.00000000e+00 1.62334852e-08 9.87269360e-08 8.71240375e-07
 0.00000000e+00 0.00000000e+00 0.00000000e+00 9.01051349e-08
 0.00000000e+00 0.00000000e+00 0.00000000e+00 0.00000000e+00
 0.00000000e+00 0.00000000e+00 0.00000000e+00 0.00000000e+00
 0.00000000e+00 0.00000000e+00 0.00000000e+00 0.00000000e+00
 0.00000000e+00 0.00000000e+00 0.00000000e+00 0.00000000e+00
 0.00000000e+00 0.00000000e+00 1.62334852e-08 9.01051349e-08
 0.00000000e+00 0.00000000e+00 0.00000000e+00 1.47808266e-06]","[[-0.00261713  0.00014935]
 [-0.00095595 -0.00090196]]",[],0.0,0.0
1787133262.244076,0.24247852991185867,-1.0762116242531783,0.3539539374202727,"[1.07505013e-06 9.87269360e-08 0.00000000e+00 0.00000000e+00
 0.00000000e+00 1.62334852e-08 9.87269360e-08 8.71240375e-07
 0.00000000e+00 0.00000000e+00 0.00000000e+00 9.01051349e-08
 0.00000000e+00 0.00000000e+00 0.00000000e+00 0.00000000e+00
 0.00000000e+00 0.00000000e+00 0.00000000e+00 0.00000000e+00
 0.00000000e+00 0.00000000e+00 0.00000000e+00 0.00000000e+00
 0.00000000e+00 0.00000000e+00 0.00000000e+00 0.00000000e+00
 0.00000000e+00 0.00000000e+00 1.62334852e-08 9.01051349e-08
 0.00000000e+00 0.00000000e+00 0.00000000e+00 1.47808266e-06]","[[-0.00261713  0.00014935]
 [-0.00095595 -0.00090196]]",[],0.0,0.0
1787133262.2938173,0.24247852991185867,-1.0762116242531783,0.3539539374202727,"[1.07505013e-06 9.87269360e-08 0.00000000e+00 0.00000000e+00
 0.00000000e+00 1.62334852e-08 9.87269360e-08 8.71240375e-07
 0.00000000e+00 0.00000000e+00 0.00000000e+00 9.01051349e-08
 0.00000000e+00 0.00000000e+00 0.00000000e+00 0.00000000e+00
 0.00000000e+00 0.00000000e+00 0.00000000e+00 0.00000000e+00
 0.00000000e+00 0.00000000e+00 0.00000000e+00 0.00000000e+00
 0.00000000e+00 0.00000000e+00 0.00000000e+00 0.00000000e+00
 0.00000000e+00 0.00000000e+00 1.62334852e-08 9.01051349e-08
 0.00000000e+00 0.00000000e+00 0.00000000e+00 1.47808266e-06]","[[-0.00261713  0.00014935]
 [-0.00095595 -0.00090196]]",[],0.0,0.0
1787133262.338586,0.24247852991185867,-1.0762116242531783,0.3539539374202727,"[1.07505013e-06 9.87269360e-08 0.00000000e+00 0.00000000e+00
 0.00000000e+00 1.62334852e-08 9.87269360e-08 8.71240375e-07
 0.00000000e+00 0.00000000e+00 0.00000000e+00 9.01051349e-08
 0.00000000e+00 0.00000000e+00 0.00000000e+00 0.00000000e+00
 0.00000000e+00 0.00000000e+00 0.00000000e+00 0.00000000e+00
 0.00000000e+00 0.00000000e+00 0.00000000e+00 0.00000000e+00
 0.00000000e+00 0.00000000e+00 0.00000000e+00 0.00000000e+00
 0.00000000e+00 0.00000000e+00 1.62334852e-08 9.01051349e-08
 0.00000000e+00 0.00000000e+00 0.00000000e+00 1.47808266e-06]","[[-0.00261713  0.00014935]
 [-0.00095595 -0.00090196]]",[],0.0,0.0
1787133262.416218,0.24247852991185867,-1.0762116242531783,0.3539539374202727,"[1.07505013e-06 9.87269360e-08 0.00000000e+00 0.00000000e+00
 0.00000000e+00 1.62334852e-08 9.87269360e-08 8.71240375e-07
 0.00000000e+00 0.00000000e+00 0.00000000e+00 9.01051349e-08
 0.00000000e+00 0.00000000e+00 0.00000000e+00 0.00000000e+00
 0.00000000e+00 0.00000000e+00 0.00000000e+00 0.00000000e+00
 0.00000000e+00 0.00000000e+00 0.00000000e+00 0.00000000e+00
 0.00000000e+00 0.00000000e+00 0.00000000e+00 0.00000000e+00
 0.00000000e+00 0.00000000e+00 1.62334852e-08 9.01051349e-08
 0.00000000e+00 0.00000000e+00 0.00000000e+00 1.47808266e-06]","[[-0.00261713  0.00014935]
 [-0.00095595 -0.00090196]]",[],0.0,0.0
1787133262.4691892,0.24247852991185867,-1.0762116242531783,0.3539539374202727,"[1.07505013e-06 9.87269360e-08 0.00000000e+00 0.00000000e+00
 0.00000000e+00 1.62334852e-08 9.87269360e-08 8.71240375e-07
 0.00000000e+00 0.00000000e+00 0.00000000e+00 9.01051349e-08
 0.00000000e+00 0.00000000e+00 0.00000000e+00 0.00000000e+00
 0.00000000e+00 0.00000000e+00 0.00000000e+00 0.00000000e+00
 0.00000000e+00 0.00000000e+00 0.00000000e+00 0.00000000e+00
 0.00000000e+00 0.00000000e+00 0.00000000e+00 0.00000000e+00
 0.00000000e+00 0.00000000e+00 1.62334852e-08 9.01051349e-08
 0.00000000e+00 0.00000000e+00 0.00000000e+00 1.47808266e-06]","[[-0.00261713  0.00014935]
 [-0.00095595 -0.00090196]]",[],0.0,0.0
1787133262.4897878,0.24247852991185867,-1.0762116242531783,0.3539539374202727,"[1.07505013e-06 9.87269360e-08 0.00000000e+00 0.00000000e+00
 0.00000000e+00 1.62334852e-08 9.87269360e-08 8.71240375e-07
 0.00000000e+00 0.00000000e+00 0.00000000e+00 9.01051349e-08
 0.00000000e+00 0.00000000e+00 0.00000000e+00 0.00000000e+00
 0.00000000e+00 0.00000000e+00 0.00000000e+00 0.00000000e+00
 0.00000000e+00 0.00000000e+00 0.00000000e+00 0.00000000e+00
 0.00000000e+00 0.00000000e+00 0.00000000e+00 0.00000000e+00
 0.00000000e+00 0.00000000e+00 1.62334852e-08 9.01051349e-08
 0.00000000e+00 0.00000000e+00 0.00000000e+00 1.47808266e-06]","[[-0.00261713  0.00014935]
 [-0.00095595 -0.00090196]]",[],0.0,0.0
1787133262.5398011,0.24247852991185867,-1.0762116242531783,0.3539539374202727,"[1.07505013e-06 9.87269360e-08 0.00000000e+00 0.00000000e+00
 0.00000000e+00 1.62334852e-08 9.87269360e-08 8.71240375e-07
 0.00000000e+00 0.00000000e+00 0.00000000e+00 9.01051349e-08
 0.00000000e+00 0.00000000e+00 0.00000000e+00 0.00000000e+00
 0.00000000e+00 0.00000000e+00 0.00000000e+00 0.00000000e+00
 0.00000000e+00 0.00000000e+00 0.00000000e+00 0.00000000e+00
 0.00000000e+00 0.00000000e+00 0.00000000e+00 0.00000000e+00
 0.00000000e+00 0.00000000e+00 1.62334852e-08 9.01051349e-08
 0.00000000e+00 0.00000000e+00 0.00000000e+00 1.47808266e-06]","[[-0.00261713  0.00014935]
 [-0.00095595 -0.00090196]]",[],0.0,0.0
1787133262.6092665,0.24247852991185867,-1.0762116242531783,0.3539539374202727,"[1.07505013e-06 9.87269360e-08 0.00000000e+00 0.00000000e+00
 0.00000000e+00 1.62334852e-08 9.87269360e-08 8.71240375e-07
 0.00000000e+00 0.00000000e+00 0.00000000e+00 9.01051349e-08
 0.00000000e+00 0.00000000e+00 0.00000000e+00 0.00000000e+00
 0.00000000e+00 0.00000000e+00 0.00000000e+00 0.00000000e+00
 0.00000000e+00 0.00000000e+00 0.00000000e+00 0.00000000e+00
 0.00000000e+00 0.00000000e+00 0.00000000e+00 0.00000000e+00
 0.00000000e+00 0.00000000e+00 1.62334852e-08 9.01051349e-08
 0.00000000e+00 0.00000000e+00 0.00000000e+00 1.47808266e-06]","[[-0.00261713  0.00014935]
 [-0.00095595 -0.00090196]]",[],0.0,0.0
1787133262.7020116,0.24247852991185867,-1.0762116242531783,0.3539539374202727,"[1.07505013e-06 9.87269360e-08 0.00000000e+00 0.00000000e+00
 0.00000000e+00 1.62334852e-08 9.87269360e-08 8.71240375e-07
 0.00000000e+00 0.00000000e+00 0.00000000e+00 9.01051349e-08
 0.00000000e+00 0.00000000e+00 0.00000000e+00 0.00000000e+00
 0.00000000e+00 0.00000000e+00 0.00000000e+00 0.00000000e+00
 0.00000000e+00 0.00000000e+00 0.00000000e+00 0.00000000e+00
 0.00000000e+00 0.00000000e+00 0.00000000e+00 0.00000000e+00
 0.00000000e+00 0.00000000e+00 1.62334852e-08 9.01051349e-08
 0.00000000e+00 0.00000000e+00 0.00000000e+00 1.47808266e-06]","[[-0.00261713  0.00014935]
 [-0.00095595 -0.00090196]]",[],0.0,0.0
1787133262.8261118,0.23985149870903505,-1.0746807356262753,0.36008757273930003,"[9.72563932e-07 1.19559656e-07 0.00000000e+00 0.00000000e+00
 0.00000000e+00 4.26693280e-08 1.19559656e-07 7.11866078e-07
 0.00000000e+00 0.00000000e+00 0.00000000e+00 6.90934566e-08
 0.00000000e+00 0.00000000e+00 0.00000000e+00 0.00000000e+00
 0.00000000e+00 0.00000000e+00 0.00000000e+00 0.00000000e+00
 0.00000000e+00 0.00000000e+00 0.00000000e+00 0.00000000e+00
 0.00000000e+00 0.00000000e+00 0.00000000e+00 0.00000000e+00
 0.00000000e+00 0.00000000e+00 4.26693280e-08 6.90934566e-08
 0.00000000e+00 0.00000000e+00 0.00000000e+00 1.50214375e-06]","[[-2.40685764e-03  1.22615677e-07]
 [-8.26982595e-04 -7.19766509e-04]]",[],0.0,0.0
1787133262.8436878,0.23985149870903505,-1.0746807356262753,0.36008757273930003,"[9.72563932e-07 1.19559656e-07 0.00000000e+00 0.00000000e+00
 0.00000000e+00 4.26693280e-08 1.19559656e-07 7.11866078e-07
 0.00000000e+00 0.00000000e+00 0.00000000e+00 6.90934566e-08
 0.00000000e+00 0.00000000e+00 0.00000000e+00 0.00000000e+00
 0.00000000e+00 0.00000000e+00 0.00000000e+00 0.00000000e+00
 0.00000000e+00 0.00000000e+00 0.00000000e+00 0.00000000e+00
 0.00000000e+00 0.00000000e+00 0.00000000e+00 0.00000000e+00
 0.00000000e+00 0.00000000e+00 4.26693280e-08 6.90934566e-08
 0.00000000e+00 0.00000000e+00 0.00000000e+00 1.50214375e-06]","[[-2.40685764e-03  1.22615677e-07]
 [-8.26982595e-04 -7.19766509e-04]]",[],0.0,0.0
1787133262.9243357,0.23985149870903505,-1.0746807356262753,0.36008757273930003,"[9.72563932e-07 1.19559656e-07 0.00000000e+00 0.00000000e+00
 0.00000000e+00 4.26693280e-08 1.19559656e-07 7.11866078e-07
 0.00000000e+00 0.00000000e+00 0.00000000e+00 6.90934566e-08
 0.00000000e+00 0.00000000e+00 0.00000000e+00 0.00000000e+00
 0.00000000e+00 0.00000000e+00 0.00000000e+00 0.00000000e+00
 0.00000000e+00 0.00000000e+00 0.00000000e+00 0.00000000e+00
 0.00000000e+00 0.00000000e+00 0.00000000e+00 0.00000000e+00
 0.00000000e+00 0.00000000e+00 4.26693280e-08 6.90934566e-08
 0.00000000e+00 0.00000000e+00 0.00000000e+00 1.50214375e-06]","[[-2.40685764e-03  1.22615677e-07]
 [-8.26982595e-04 -7.19766509e-04]]",[],0.0,0.0
1787133262.9484742,0.23985149870903505,-1.0746807356262753,0.36008757273930003,"[9.72563932e-07 1.19559656e-07 0.00000000e+00 0.00000000e+00
 0.00000000e+00 4.26693280e-08 1.19559656e-07 7.11866078e-07
 0.00000000e+00 0.00000000e+00 0.00000000e+00 6.90934566e-08
 0.00000000e+00 0.00000000e+00 0.00000000e+00 0.00000000e+00
 0.00000000e+00 0.00000000e+00 0.00000000e+00 0.00000000e+00
 0.00000000e+00 0.00000000e+00 0.00000000e+00 0.00000000e+00
 0.00000000e+00 0.00000000e+00 0.00000000e+00 0.00000000e+00
 0.00000000e+00 0.00000000e+00 4.26693280e-08 6.90934566e-08
 0.00000000e+00 0.00000000e+00 0.00000000e+00 1.50214375e-06]","[[-2.40685764e-03  1.22615677e-07]
 [-8.26982595e-04 -7.19766509e-04]]",[],0.0,0.0
1787133263.0025523,0.23985149870903505,-1.0746807356262753,0.36008757273930003,"[9.72563932e-07 1.19559656e-07 0.00000000e+00 0.00000000e+00
 0.00000000e+00 4.26693280e-08 1.19559656e-07 7.11866078e-07
 0.00000000e+00 0.00000000e+00 0.00000000e+00 6.90934566e-08
 0.00000000e+00 0.00000000e+00 0.00000000e+00 0.00000000e+00
 0.00000000e+00 0.00000000e+00 0.00000000e+00 0.00000000e+00
 0.00000000e+00 0.00000000e+00 0.00000000e+00 0.00000000e+00
 0.00000000e+00 0.00000000e+00 0.00000000e+00 0.00000000e+00
 0.00000000e+00 0.00000000e+00 4.26693280e-08 6.90934566e-08
 0.00000000e+00 0.00000000e+00 0.00000000e+00 1.50214375e-06]","[[-2.40685764e-03  1.22615677e-07]
 [-8.26982595e-04 -7.19766509e-04]]",[],0.0,0.0
1787133263.0723374,0.23985149870903505,-1.0746807356262753,0.36008757273930003,"[9.72563932e-07 1.19559656e-07 0.00000000e+00 0.00000000e+00
 0.00000000e+00 4.26693280e-08 1.19559656e-07 7.11866078e-07
 0.00000000e+00 0.00000000e+00 0.00000000e+00 6.90934566e-08
 0.00000000e+00 0.00000000e+00 0.00000000e+00 0.00000000e+00
 0.00000000e+00 0.00000000e+00 0.00000000e+00 0.00000000e+00
 0.00000000e+00 0.00000000e+00 0.00000000e+00 0.00000000e+00
 0.00000000e+00 0.00000000e+00 0.00000000e+00 0.00000000e+00
 0.00000000e+00 0.00000000e+00 4.26693280e-08 6.90934566e-08
 0.00000000e+00 0.00000000e+00 0.00000000e+00 1.50214375e-06]","[[-2.40685764e-03  1.22615677e-07]
 [-8.26982595e-04 -7.19766509e-04]]",[],0.0,0.0
1787133263.1183705,0.23985149870903505,-1.0746807356262753,0.36008757273930003,"[9.72563932e-07 1.19559656e-07 0.00000000e+00 0.00000000e+00
 0.00000000e+00 4.26693280e-08 1.19559656e-07 7.11866078e-07
 0.00000000e+00 0.00000000e+00 0.00000000e+00 6.90934566e-08
 0.00000000e+00 0.00000000e+00 0.00000000e+00 0.00000000e+00
 0.00000000e+00 0.00000000e+00 0.00000000e+00 0.00000000e+00
 0.00000000e+00 0.00000000e+00 0.00000000e+00 0.00000000e+00
 0.00000000e+00 0.00000000e+00 0.00000000e+00 0.00000000e+00
 0.00000000e+00 0.00000000e+00 4.26693280e-08 6.90934566e-08
 0.00000000e+00 0.00000000e+00 0.00000000e+00 1.50214375e-06]","[[-2.40685764e-03  1.22615677e-07]
 [-8.26982595e-04 -7.19766509e-04]]",[],0.0,0.0
1787133263.1497507,0.23985149870903505,-1.0746807356262753,0.36008757273930003,"[9.72563932e-07 1.19559656e-07 0.00000000e+00 0.00000000e+00
 0.00000000e+00 4.26693280e-08 1.19559656e-07 7.11866078e-07
 0.00000000e+00 0.00000000e+00 0.00000000e+00 6.90934566e-08
 0.00000000e+00 0.00000000e+00 0.00000000e+00 0.00000000e+00
 0.00000000e+00 0.00000000e+00 0.00000000e+00 0.00000000e+00
 0.00000000e+00 0.00000000e+00 0.00000000e+00 0.00000000e+00
 0.00000000e+00 0.00000000e+00 0.00000000e+00 0.00000000e+00
 0.00000000e+00 0.00000000e+00 4.26693280e-08 6.90934566e-08
 0.00000000e+00 0.00000000e+00 0.00000000e+00 1.50214375e-06]","[[-2.40685764e-03  1.22615677e-07]
 [-8.26982595e-04 -7.19766509e-04]]",[],0.0,0.0
1787133263.1923187,0.23985149870903505,-1.0746807356262753,0.36008757273930003,"[9.72563932e-07 1.19559656e-07 0.00000000e+00 0.00000000e+00
 0.00000000e+00 4.26693280e-08 1.19559656e-07 7.11866078e-07
 0.00000000e+00 0.00000000e+00 0.00000000e+00 6.90934566e-08
 0.00000000e+00 0.00000000e+00 0.00000000e+00 0.00000000e+00
 0.00000000e+00 0.00000000e+00 0.00000000e+00 0.00000000e+00
 0.00000000e+00 0.00000000e+00 0.00000000e+00 0.00000000e+00
 0.00000000e+00 0.00000000e+00 0.00000000e+00 0.00000000e+00
 0.00000000e+00 0.00000000e+00 4.26693280e-08 6.90934566e-08
 0.00000000e+00 0.00000000e+00 0.00000000e+00 1.50214375e-06]","[[-2.40685764e-03  1.22615677e-07]
 [-8.26982595e-04 -7.19766509e-04]]",[],0.0,0.0
1787133263.2437022,0.23985149870903505,-1.0746807356262753,0.36008757273930003,"[9.72563932e-07 1.19559656e-07 0.00000000e+00 0.00000000e+00
 0.00000000e+00 4.26693280e-08 1.19559656e-07 7.11866078e-07
 0.00000000e+00 0.00000000e+00 0.00000000e+00 6.90934566e-08
 0.00000000e+00 0.00000000e+00 0.00000000e+00 0.00000000e+00
 0.00000000e+00 0.00000000e+00 0.00000000e+00 0.00000000e+00
 0.00000000e+00 0.00000000e+00 0.00000000e+00 0.00000000e+00
 0.00000000e+00 0.00000000e+00 0.00000000e+00 0.00000000e+00
 0.00000000e+00 0.00000000e+00 4.26693280e-08 6.90934566e-08
 0.00000000e+00 0.00000000e+00 0.00000000e+00 1.50214375e-06]","[[-2.40685764e-03  1.22615677e-07]
 [-8.26982595e-04 -7.19766509e-04]]",[],0.0,0.0
1787133263.3399544,0.23985149870903505,-1.0746807356262753,0.36008757273930003,"[9.72563932e-07 1.19559656e-07 0.00000000e+00 0.00000000e+00
 0.00000000e+00 4.26693280e-08 1.19559656e-07 7.11866078e-07
 0.00000000e+00 0.00000000e+00 0.00000000e+00 6.90934566e-08
 0.00000000e+00 0.00000000e+00 0.00000000e+00 0.00000000e+00
 0.00000000e+00 0.00000000e+00 0.00000000e+00 0.00000000e+00
 0.00000000e+00 0.00000000e+00 0.00000000e+00 0.00000000e+00
 0.00000000e+00 0.00000000e+00 0.00000000e+00 0.00000000e+00
 0.00000000e+00 0.00000000e+00 4.26693280e-08 6.90934566e-08
 0.00000000e+00 0.00000000e+00 0.00000000e+00 1.50214375e-06]","[[-2.40685764e-03  1.22615677e-07]
 [-8.26982595e-04 -7.19766509e-04]]",[],0.0,0.0
1787133263.3947794,0.23985149870903505,-1.0746807356262753,0.36008757273930003,"[9.72563932e-07 1.19559656e-07 0.00000000e+00 0.00000000e+00
 0.00000000e+00 4.26693280e-08 1.19559656e-07 7.11866078e-07
 0.00000000e+00 0.00000000e+00 0.00000000e+00 6.90934566e-08
 0.00000000e+00 0.00000000e+00 0.00000000e+00 0.00000000e+00
 0.00000000e+00 0.00000000e+00 0.00000000e+00 0.00000000e+00
 0.00000000e+00 0.00000000e+00 0.00000000e+00 0.00000000e+00
 0.00000000e+00 0.00000000e+00 0.00000000e+00 0.00000000e+00
 0.00000000e+00 0.00000000e+00 4.26693280e-08 6.90934566e-08
 0.00000000e+00 0.00000000e+00 0.00000000e+00 1.50214375e-06]","[[-2.40685764e-03  1.22615677e-07]
 [-8.26982595e-04 -7.19766509e-04]]",[],0.0,0.0
1787133263.4686246,0.23985149870903505,-1.0746807356262753,0.36008757273930003,"[9.72563932e-07 1.19559656e-07 0.00000000e+00 0.00000000e+00
 0.00000000e+00 4.26693280e-08 1.19559656e-07 7.11866078e-07
 0.00000000e+00 0.00000000e+00 0.00000000e+00 6.90934566e-08
 0.00000000e+00 0.00000000e+00 0.00000000e+00 0.00000000e+00
 0.00000000e+00 0.00000000e+00 0.00000000e+00 0.00000000e+00
 0.00000000e+00 0.00000000e+00 0.00000000e+00 0.00000000e+00
 0.00000000e+00 0.00000000e+00 0.00000000e+00 0.00000000e+00
 0.00000000e+00 0.00000000e+00 4.26693280e-08 6.90934566e-08
 0.00000000e+00 0.00000000e+00 0.00000000e+00 1.50214375e-06]","[[-2.40685764e-03  1.22615677e-07]
 [-8.26982595e-04 -7.19766509e-04]]",[],0.0,0.0
1787133263.5018427,0.23985149870903505,-1.0746807356262753,0.36008757273930003,"[9.72563932e-07 1.19559656e-07 0.00000000e+00 0.00000000e+00
 0.00000000e+00 4.26693280e-08 1.19559656e-07 7.11866078e-07
 0.00000000e+00 0.00000000e+00 0.00000000e+00 6.90934566e-08
 0.00000000e+00 0.00000000e+00 0.00000000e+00 0.00000000e+00
 0.00000000e+00 0.00000000e+00 0.00000000e+00 0.00000000e+00
 0.00000000e+00 0.00000000e+00 0.00000000e+00 0.00000000e+00
 0.00000000e+00 0.00000000e+00 0.00000000e+00 0.00000000e+00
 0.00000000e+00 0.00000000e+00 4.26693280e-08 6.90934566e-08
 0.00000000e+00 0.00000000e+00 0.00000000e+00 1.50214375e-06]","[[-2.40685764e-03  1.22615677e-07]
 [-8.26982595e-04 -7.19766509e-04]]",[],0.0,0.0
1787133263.5530462,0.23985149870903505,-1.0746807356262753,0.36008757273930003,"[9.72563932e-07 1.19559656e-07 0.00000000e+00 0.00000000e+00
 0.00000000e+00 4.26693280e-08 1.19559656e-07 7.11866078e-07
 0.00000000e+00 0.00000000e+00 0.00000000e+00 6.90934566e-08
 0.00000000e+00 0.00000000e+00 0.00000000e+00 0.00000000e+00
 0.00000000e+00 0.00000000e+00 0.00000000e+00 0.00000000e+00
 0.00000000e+00 0.00000000e+00 0.00000000e+00 0.00000000e+00
 0.00000000e+00 0.00000000e+00 0.00000000e+00 0.00000000e+00
 0.00000000e+00 0.00000000e+00 4.26693280e-08 6.90934566e-08
 0.00000000e+00 0.00000000e+00 0.00000000e+00 1.50214375e-06]","[[-2.40685764e-03  1.22615677e-07]
 [-8.26982595e-04 -7.19766509e-04]]",[],0.0,0.0
1787133263.612959,0.23985149870903505,-1.0746807356262753,0.36008757273930003,"[9.72563932e-07 1.19559656e-07 0.00000000e+00 0.00000000e+00
 0.00000000e+00 4.26693280e-08 1.19559656e-07 7.11866078e-07
 0.00000000e+00 0.00000000e+00 0.00000000e+00 6.90934566e-08
 0.00000000e+00 0.00000000e+00 0.00000000e+00 0.00000000e+00
 0.00000000e+00 0.00000000e+00 0.00000000e+00 0.00000000e+00
 0.00000000e+00 0.00000000e+00 0.00000000e+00 0.00000000e+00
 0.00000000e+00 0.00000000e+00 0.00000000e+00 0.00000000e+00
 0.00000000e+00 0.00000000e+00 4.26693280e-08 6.90934566e-08
 0.00000000e+00 0.00000000e+00 0.00000000e+00 1.50214375e-06]","[[-2.40685764e-03  1.22615677e-07]
 [-8.26982595e-04 -7.19766509e-04]]",[],0.0,0.0
1787133263.6905832,0.23843137345016,-1.0729263278247119,0.3590259295392478,"[9.08144026e-07 1.35902326e-07 0.00000000e+00 0.00000000e+00
 0.00000000e+00 4.00176787e-08 1.35902326e-07 6.06388127e-07
 0.00000000e+00 0.00000000e+00 0.00000000e+00 6.51019413e-08
 0.00000000e+00 0.00000000e+00 0.00000000e+00 0.00000000e+00
 0.00000000e+00 0.00000000e+00 0.00000000e+00 0.00000000e+00
 0.00000000e+00 0.00000000e+00 0.00000000e+00 0.00000000e+00
 0.00000000e+00 0.00000000e+00 0.00000000e+00 0.00000000e+00
 0.00000000e+00 0.00000000e+00 4.00176787e-08 6.51019413e-08
 0.00000000e+00 0.00000000e+00 0.00000000e+00 1.49239876e-06]","[[-2.25393239e-03  2.21917533e-06]
 [-8.25151899e-04 -6.17432070e-04]]",[],0.0,0.0
1787133263.771092,0.23843137345016,-1.0729263278247119,0.3590259295392478,"[9.08144026e-07 1.35902326e-07 0.00000000e+00 0.00000000e+00
 0.00000000e+00 4.00176787e-08 1.35902326e-07 6.06388127e-07
 0.00000000e+00 0.00000000e+00 0.00000000e+00 6.51019413e-08
 0.00000000e+00 0.00000000e+00 0.00000000e+00 0.00000000e+00
 0.00000000e+00 0.00000000e+00 0.00000000e+00 0.00000000e+00
 0.00000000e+00 0.00000000e+00 0.00000000e+00 0.00000000e+00
 0.00000000e+00 0.00000000e+00 0.00000000e+00 0.00000000e+00
 0.00000000e+00 0.00000000e+00 4.00176787e-08 6.51019413e-08
 0.00000000e+00 0.00000000e+00 0.00000000e+00 1.49239876e-06]","[[-2.25393239e-03  2.21917533e-06]
 [-8.25151899e-04 -6.17432070e-04]]",[],0.0,0.0
1787133263.8163176,0.23843137345016,-1.0729263278247119,0.3590259295392478,"[9.08144026e-07 1.35902326e-07 0.00000000e+00 0.00000000e+00
 0.00000000e+00 4.00176787e-08 1.35902326e-07 6.06388127e-07
 0.00000000e+00 0.00000000e+00 0.00000000e+00 6.51019413e-08
 0.00000000e+00 0.00000000e+00 0.00000000e+00 0.00000000e+00
 0.00000000e+00 0.00000000e+00 0.00000000e+00 0.00000000e+00
 0.00000000e+00 0.00000000e+00 0.00000000e+00 0.00000000e+00
 0.00000000e+00 0.00000000e+00 0.00000000e+00 0.00000000e+00
 0.00000000e+00 0.00000000e+00 4.00176787e-08 6.51019413e-08
 0.00000000e+00 0.00000000e+00 0.00000000e+00 1.49239876e-06]","[[-2.25393239e-03  2.21917533e-06]
 [-8.25151899e-04 -6.17432070e-04]]",[],0.0,0.0
1787133263.8413525,0.23843137345016,-1.0729263278247119,0.3590259295392478,"[9.08144026e-07 1.35902326e-07 0.00000000e+00 0.00000000e+00
 0.00000000e+00 4.00176787e-08 1.35902326e-07 6.06388127e-07
 0.00000000e+00 0.00000000e+00 0.00000000e+00 6.51019413e-08
 0.00000000e+00 0.00000000e+00 0.00000000e+00 0.00000000e+00
 0.00000000e+00 0.00000000e+00 0.00000000e+00 0.00000000e+00
 0.00000000e+00 0.00000000e+00 0.00000000e+00 0.00000000e+00
 0.00000000e+00 0.00000000e+00 0.00000000e+00 0.00000000e+00
 0.00000000e+00 0.00000000e+00 4.00176787e-08 6.51019413e-08
 0.00000000e+00 0.00000000e+00 0.00000000e+00 1.49239876e-06]","[[-2.25393239e-03  2.21917533e-06]
 [-8.25151899e-04 -6.17432070e-04]]",[],0.0,0.0
1787133263.8924265,0.23843137345016,-1.0729263278247119,0.3590259295392478,"[9.08144026e-07 1.35902326e-07 0.00000000e+00 0.00000000e+00
 0.00000000e+00 4.00176787e-08 1.35902326e-07 6.06388127e-07
 0.00000000e+00 0.00000000e+00 0.00000000e+00 6.51019413e-08
 0.00000000e+00 0.00000000e+00 0.00000000e+00 0.00000000e+00
 0.00000000e+00 0.00000000e+00 0.00000000e+00 0.00000000e+00
 0.00000000e+00 0.00000000e+00 0.00000000e+00 0.00000000e+00
 0.00000000e+00 0.00000000e+00 0.00000000e+00 0.00000000e+00
 0.00000000e+00 0.00000000e+00 4.00176787e-08 6.51019413e-08
 0.00000000e+00 0.00000000e+00 0.00000000e+00 1.49239876e-06]","[[-2.25393239e-03  2.21917533e-06]
 [-8.25151899e-04 -6.17432070e-04]]",[],0.0,0.0
1787133263.9457512,0.23843137345016,-1.0729263278247119,0.3590259295392478,"[9.08144026e-07 1.35902326e-07 0.00000000e+00 0.00000000e+00
 0.00000000e+00 4.00176787e-08 1.35902326e-07 6.06388127e-07
 0.00000000e+00 0.00000000e+00 0.00000000e+00 6.51019413e-08
 0.00000000e+00 0.00000000e+00 0.00000000e+00 0.00000000e+00
 0.00000000e+00 0.00000000e+00 0.00000000e+00 0.00000000e+00
 0.00000000e+00 0.00000000e+00 0.00000000e+00 0.00000000e+00
 0.00000000e+00 0.00000000e+00 0.00000000e+00 0.00000000e+00
 0.00000000e+00 0.00000000e+00 4.00176787e-08 6.51019413e-08
 0.00000000e+00 0.00000000e+00 0.00000000e+00 1.49239876e-06]","[[-2.25393239e-03  2.21917533e-06]
 [-8.25151899e-04 -6.17432070e-04]]",[],0.0,0.0
1787133263.993503,0.23843137345016,-1.0729263278247119,0.3590259295392478,"[9.08144026e-07 1.35902326e-07 0.00000000e+00 0.00000000e+00
 0.00000000e+00 4.00176787e-08 1.35902326e-07 6.06388127e-07
 0.00000000e+00 0.00000000e+00 0.00000000e+00 6.51019413e-08
 0.00000000e+00 0.00000000e+00 0.00000000e+00 0.00000000e+00
 0.00000000e+00 0.00000000e+00 0.00000000e+00 0.00000000e+00
 0.00000000e+00 0.00000000e+00 0.00000000e+00 0.00000000e+00
 0.00000000e+00 0.00000000e+00 0.00000000e+00 0.00000000e+00
 0.00000000e+00 0.00000000e+00 4.00176787e-08 6.51019413e-08
 0.00000000e+00 0.00000000e+00 0.00000000e+00 1.49239876e-06]","[[-2.25393239e-03  2.21917533e-06]
 [-8.25151899e-04 -6.17432070e-04]]",[],0.0,0.0
1787133264.0684865,0.23843137345016,-1.0729263278247119,0.3590259295392478,"[9.08144026e-07 1.35902326e-07 0.00000000e+00 0.00000000e+00
 0.00000000e+00 4.00176787e-08 1.35902326e-07 6.06388127e-07
 0.00000000e+00 0.00000000e+00 0.00000000e+00 6.51019413e-08
 0.00000000e+00 0.00000000e+00 0.00000000e+00 0.00000000e+00
 0.00000000e+00 0.00000000e+00 0.00000000e+00 0.00000000e+00
 0.00000000e+00 0.00000000e+00 0.00000000e+00 0.00000000e+00
 0.00000000e+00 0.00000000e+00 0.00000000e+00 0.00000000e+00
 0.00000000e+00 0.00000000e+00 4.00176787e-08 6.51019413e-08
 0.00000000e+00 0.00000000e+00 0.00000000e+00 1.49239876e-06]","[[-2.25393239e-03  2.21917533e-06]
 [-8.25151899e-04 -6.17432070e-04]]",[],0.0,0.0
1787133264.0975256,0.23843137345016,-1.0729263278247119,0.3590259295392478,"[9.08144026e-07 1.35902326e-07 0.00000000e+00 0.00000000e+00
 0.00000000e+00 4.00176787e-08 1.35902326e-07 6.06388127e-07
 0.00000000e+00 0.00000000e+00 0.00000000e+00 6.51019413e-08
 0.00000000e+00 0.00000000e+00 0.00000000e+00 0.00000000e+00
 0.00000000e+00 0.00000000e+00 0.00000000e+00 0.00000000e+00
 0.00000000e+00 0.00000000e+00 0.00000000e+00 0.00000000e+00
 0.00000000e+00 0.00000000e+00 0.00000000e+00 0.00000000e+00
 0.00000000e+00 0.00000000e+00 4.00176787e-08 6.51019413e-08
 0.00000000e+00 0.00000000e+00 0.00000000e+00 1.49239876e-06]","[[-2.25393239e-03  2.21917533e-06]
 [-8.25151899e-04 -6.17432070e-04]]",[],0.0,0.0
1787133264.1454074,0.23843137345016,-1.0729263278247119,0.3590259295392478,"[9.08144026e-07 1.35902326e-07 0.00000000e+00 0.00000000e+00
 0.00000000e+00 4.00176787e-08 1.35902326e-07 6.06388127e-07
 0.00000000e+00 0.00000000e+00 0.00000000e+00 6.51019413e-08
 0.00000000e+00 0.00000000e+00 0.00000000e+00 0.00000000e+00
 0.00000000e+00 0.00000000e+00 0.00000000e+00 0.00000000e+00
 0.00000000e+00 0.00000000e+00 0.00000000e+00 0.00000000e+00
 0.00000000e+00 0.00000000e+00 0.00000000e+00 0.00000000e+00
 0.00000000e+00 0.00000000e+00 4.00176787e-08 6.51019413e-08
 0.00000000e+00 0.00000000e+00 0.00000000e+00 1.49239876e-06]","[[-2.25393239e-03  2.21917533e-06]
 [-8.25151899e-04 -6.17432070e-04]]",[],0.0,0.0
1787133264.197783,0.23843137345016,-1.0729263278247119,0.3590259295392478,"[9.08144026e-07 1.35902326e-07 0.00000000e+00 0.00000000e+00
 0.00000000e+00 4.00176787e-08 1.35902326e-07 6.06388127e-07
 0.00000000e+00 0.00000000e+00 0.00000000e+00 6.51019413e-08
 0.00000000e+00 0.00000000e+00 0.00000000e+00 0.00000000e+00
 0.00000000e+00 0.00000000e+00 0.00000000e+00 0.00000000e+00
 0.00000000e+00 0.00000000e+00 0.00000000e+00 0.00000000e+00
 0.00000000e+00 0.00000000e+00 0.00000000e+00 0.00000000e+00
 0.00000000e+00 0.00000000e+00 4.00176787e-08 6.51019413e-08
 0.00000000e+00 0.00000000e+00 0.00000000e+00 1.49239876e-06]","[[-2.25393239e-03  2.21917533e-06]
 [-8.25151899e-04 -6.17432070e-04]]",[],0.0,0.0
1787133264.2815282,0.23843137345016,-1.0729263278247119,0.3590259295392478,"[9.08144026e-07 1.35902326e-07 0.00000000e+00 0.00000000e+00
 0.00000000e+00 4.00176787e-08 1.35902326e-07 6.06388127e-07
 0.00000000e+00 0.00000000e+00 0.00000000e+00 6.51019413e-08
 0.00000000e+00 0.00000000e+00 0.00000000e+00 0.00000000e+00
 0.00000000e+00 0.00000000e+00 0.00000000e+00 0.00000000e+00
 0.00000000e+00 0.00000000e+00 0.00000000e+00 0.00000000e+00
 0.00000000e+00 0.00000000e+00 0.00000000e+00 0.00000000e+00
 0.00000000e+00 0.00000000e+00 4.00176787e-08 6.51019413e-08
 0.00000000e+00 0.00000000e+00 0.00000000e+00 1.49239876e-06]","[[-2.25393239e-03  2.21917533e-06]
 [-8.25151899e-04 -6.17432070e-04]]",[],0.0,0.0
1787133264.2943,0.23843137345016,-1.0729263278247119,0.3590259295392478,"[9.08144026e-07 1.35902326e-07 0.00000000e+00 0.00000000e+00
 0.00000000e+00 4.00176787e-08 1.35902326e-07 6.06388127e-07
 0.00000000e+00 0.00000000e+00 0.00000000e+00 6.51019413e-08
 0.00000000e+00 0.00000000e+00 0.00000000e+00 0.00000000e+00
 0.00000000e+00 0.00000000e+00 0.00000000e+00 0.00000000e+00
 0.00000000e+00 0.00000000e+00 0.00000000e+00 0.00000000e+00
 0.00000000e+00 0.00000000e+00 0.00000000e+00 0.00000000e+00
 0.00000000e+00 0.00000000e+00 4.00176787e-08 6.51019413e-08
 0.00000000e+00 0.00000000e+00 0.00000000e+00 1.49239876e-06]","[[-2.25393239e-03  2.21917533e-06]
 [-8.25151899e-04 -6.17432070e-04]]",[],0.0,0.0
1787133264.3497694,0.23843137345016,-1.0729263278247119,0.3590259295392478,"[9.08144026e-07 1.35902326e-07 0.00000000e+00 0.00000000e+00
 0.00000000e+00 4.00176787e-08 1.35902326e-07 6.06388127e-07
 0.00000000e+00 0.00000000e+00 0.00000000e+00 6.51019413e-08
 0.00000000e+00 0.00000000e+00 0.00000000e+00 0.00000000e+00
 0.00000000e+00 0.00000000e+00 0.00000000e+00 0.00000000e+00
 0.00000000e+00 0.00000000e+00 0.00000000e+00 0.00000000e+00
 0.00000000e+00 0.00000000e+00 0.00000000e+00 0.00000000e+00
 0.00000000e+00 0.00000000e+00 4.00176787e-08 6.51019413e-08
 0.00000000e+00 0.00000000e+00 0.00000000e+00 1.49239876e-06]","[[-2.25393239e-03  2.21917533e-06]
 [-8.25151899e-04 -6.17432070e-04]]",[],0.0,0.0
1787133264.395312,0.23843137345016,-1.0729263278247119,0.3590259295392478,"[9.08144026e-07 1.35902326e-07 0.00000000e+00 0.00000000e+00
 0.00000000e+00 4.00176787e-08 1.35902326e-07 6.06388127e-07
 0.00000000e+00 0.00000000e+00 0.00000000e+00 6.51019413e-08
 0.00000000e+00 0.00000000e+00 0.00000000e+00 0.00000000e+00
 0.00000000e+00 0.00000000e+00 0.00000000e+00 0.00000000e+00
 0.00000000e+00 0.00000000e+00 0.00000000e+00 0.00000000e+00
 0.00000000e+00 0.00000000e+00 0.00000000e+00 0.00000000e+00
 0.00000000e+00 0.00000000e+00 4.00176787e-08 6.51019413e-08
 0.00000000e+00 0.00000000e+00 0.00000000e+00 1.49239876e-06]","[[-2.25393239e-03  2.21917533e-06]
 [-8.25151899e-04 -6.17432070e-04]]",[],0.0,0.0
1787133264.4764037,0.23843137345016,-1.0729263278247119,0.3590259295392478,"[9.08144026e-07 1.35902326e-07 0.00000000e+00 0.00000000e+00
 0.00000000e+00 4.00176787e-08 1.35902326e-07 6.06388127e-07
 0.00000000e+00 0.00000000e+00 0.00000000e+00 6.51019413e-08
 0.00000000e+00 0.00000000e+00 0.00000000e+00 0.00000000e+00
 0.00000000e+00 0.00000000e+00 0.00000000e+00 0.00000000e+00
 0.00000000e+00 0.00000000e+00 0.00000000e+00 0.00000000e+00
 0.00000000e+00 0.00000000e+00 0.00000000e+00 0.00000000e+00
 0.00000000e+00 0.00000000e+00 4.00176787e-08 6.51019413e-08
 0.00000000e+00 0.00000000e+00 0.00000000e+00 1.49239876e-06]","[[-2.25393239e-03  2.21917533e-06]
 [-8.25151899e-04 -6.17432070e-04]]",[],0.0,0.0
1787133264.492119,0.23843137345016,-1.0729263278247119,0.3590259295392478,"[9.08144026e-07 1.35902326e-07 0.00000000e+00 0.00000000e+00
 0.00000000e+00 4.00176787e-08 1.35902326e-07 6.06388127e-07
 0.00000000e+00 0.00000000e+00 0.00000000e+00 6.51019413e-08
 0.00000000e+00 0.00000000e+00 0.00000000e+00 0.00000000e+00
 0.00000000e+00 0.00000000e+00 0.00000000e+00 0.00000000e+00
 0.00000000e+00 0.00000000e+00 0.00000000e+00 0.00000000e+00
 0.00000000e+00 0.00000000e+00 0.00000000e+00 0.00000000e+00
 0.00000000e+00 0.00000000e+00 4.00176787e-08 6.51019413e-08
 0.00000000e+00 0.00000000e+00 0.00000000e+00 1.49239876e-06]","[[-2.25393239e-03  2.21917533e-06]
 [-8.25151899e-04 -6.17432070e-04]]",[],0.0,0.0
1787133264.5511725,0.23843137345016,-1.0729263278247119,0.3590259295392478,"[9.08144026e-07 1.35902326e-07 0.00000000e+00 0.00000000e+00
 0.00000000e+00 4.00176787e-08 1.35902326e-07 6.06388127e-07
 0.00000000e+00 0.00000000e+00 0.00000000e+00 6.51019413e-08
 0.00000000e+00 0.00000000e+00 0.00000000e+00 0.00000000e+00
 0.00000000e+00 0.00000000e+00 0.00000000e+00 0.00000000e+00
 0.00000000e+00 0.00000000e+00 0.00000000e+00 0.00000000e+00
 0.00000000e+00 0.00000000e+00 0.00000000e+00 0.00000000e+00
 0.00000000e+00 0.00000000e+00 4.00176787e-08 6.51019413e-08
 0.00000000e+00 0.00000000e+00 0.00000000e+00 1.49239876e-06]","[[-2.25393239e-03  2.21917533e-06]
 [-8.25151899e-04 -6.17432070e-04]]",[],0.0,0.0
1787133264.599465,0.23843137345016,-1.0729263278247119,0.3590259295392478,"[9.08144026e-07 1.35902326e-07 0.00000000e+00 0.00000000e+00
 0.00000000e+00 4.00176787e-08 1.35902326e-07 6.06388127e-07
 0.00000000e+00 0.00000000e+00 0.00000000e+00 6.51019413e-08
 0.00000000e+00 0.00000000e+00 0.00000000e+00 0.00000000e+00
 0.00000000e+00 0.00000000e+00 0.00000000e+00 0.00000000e+00
 0.00000000e+00 0.00000000e+00 0.00000000e+00 0.00000000e+00
 0.00000000e+00 0.00000000e+00 0.00000000e+00 0.00000000e+00
 0.00000000e+00 0.00000000e+00 4.00176787e-08 6.51019413e-08
 0.00000000e+00 0.00000000e+00 0.00000000e+00 1.49239876e-06]","[[-2.25393239e-03  2.21917533e-06]
 [-8.25151899e-04 -6.17432070e-04]]",[],0.0,0.0
1787133264.700365,0.23613389816181315,-1.0715025878258928,0.3614479466507868,"[8.90238195e-07 1.57752079e-07 0.00000000e+00 0.00000000e+00
 0.00000000e+00 3.43605340e-08 1.57752079e-07 5.33765828e-07
 0.00000000e+00 0.00000000e+00 0.00000000e+00 5.97134319e-08
 0.00000000e+00 0.00000000e+00 0.00000000e+00 0.00000000e+00
 0.00000000e+00 0.00000000e+00 0.00000000e+00 0.00000000e+00
 0.00000000e+00 0.00000000e+00 0.00000000e+00 0.00000000e+00
 0.00000000e+00 0.00000000e+00 0.00000000e+00 0.00000000e+00
 0.00000000e+00 0.00000000e+00 3.43605340e-08 5.97134319e-08
 0.00000000e+00 0.00000000e+00 0.00000000e+00 1.49435077e-06]","[[-2.23715835e-03 -1.38814018e-05]
 [-7.92409272e-04 -5.47013044e-04]]",[],0.0,0.0
1787133264.7872105,0.23613389816181315,-1.0715025878258928,0.3614479466507868,"[8.90238195e-07 1.57752079e-07 0.00000000e+00 0.00000000e+00
 0.00000000e+00 3.43605340e-08 1.57752079e-07 5.33765828e-07
 0.00000000e+00 0.00000000e+00 0.00000000e+00 5.97134319e-08
 0.00000000e+00 0.00000000e+00 0.00000000e+00 0.00000000e+00
 0.00000000e+00 0.00000000e+00 0.00000000e+00 0.00000000e+00
 0.00000000e+00 0.00000000e+00 0.00000000e+00 0.00000000e+00
 0.00000000e+00 0.00000000e+00 0.00000000e+00 0.00000000e+00
 0.00000000e+00 0.00000000e+00 3.43605340e-08 5.97134319e-08
 0.00000000e+00 0.00000000e+00 0.00000000e+00 1.49435077e-06]","[[-2.23715835e-03 -1.38814018e-05]
 [-7.92409272e-04 -5.47013044e-04]]",[],0.0,0.0
1787133264.7880645,0.23613389816181315,-1.0715025878258928,0.3614479466507868,"[8.90238195e-07 1.57752079e-07 0.00000000e+00 0.00000000e+00
 0.00000000e+00 3.43605340e-08 1.57752079e-07 5.33765828e-07
 0.00000000e+00 0.00000000e+00 0.00000000e+00 5.97134319e-08
 0.00000000e+00 0.00000000e+00 0.00000000e+00 0.00000000e+00
 0.00000000e+00 0.00000000e+00 0.00000000e+00 0.00000000e+00
 0.00000000e+00 0.00000000e+00 0.00000000e+00 0.00000000e+00
 0.00000000e+00 0.00000000e+00 0.00000000e+00 0.00000000e+00
 0.00000000e+00 0.00000000e+00 3.43605340e-08 5.97134319e-08
 0.00000000e+00 0.00000000e+00 0.00000000e+00 1.49435077e-06]","[[-2.23715835e-03 -1.38814018e-05]
 [-7.92409272e-04 -5.47013044e-04]]",[],0.0,0.0
1787133264.8646781,0.23613389816181315,-1.0715025878258928,0.3614479466507868,"[8.90238195e-07 1.57752079e-07 0.00000000e+00 0.00000000e+00
 0.00000000e+00 3.43605340e-08 1.57752079e-07 5.33765828e-07
 0.00000000e+00 0.00000000e+00 0.00000000e+00 5.97134319e-08
 0.00000000e+00 0.00000000e+00 0.00000000e+00 0.00000000e+00
 0.00000000e+00 0.00000000e+00 0.00000000e+00 0.00000000e+00
 0.00000000e+00 0.00000000e+00 0.00000000e+00 0.00000000e+00
 0.00000000e+00 0.00000000e+00 0.00000000e+00 0.00000000e+00
 0.00000000e+00 0.00000000e+00 3.43605340e-08 5.97134319e-08
 0.00000000e+00 0.00000000e+00 0.00000000e+00 1.49435077e-06]","[[-2.23715835e-03 -1.38814018e-05]
 [-7.92409272e-04 -5.47013044e-04]]",[],0.0,0.0
1787133264.940854,0.23613389816181315,-1.0715025878258928,0.3614479466507868,"[8.90238195e-07 1.57752079e-07 0.00000000e+00 0.00000000e+00
 0.00000000e+00 3.43605340e-08 1.57752079e-07 5.33765828e-07
 0.00000000e+00 0.00000000e+00 0.00000000e+00 5.97134319e-08
 0.00000000e+00 0.00000000e+00 0.00000000e+00 0.00000000e+00
 0.00000000e+00 0.00000000e+00 0.00000000e+00 0.00000000e+00
 0.00000000e+00 0.00000000e+00 0.00000000e+00 0.00000000e+00
 0.00000000e+00 0.00000000e+00 0.00000000e+00 0.00000000e+00
 0.00000000e+00 0.00000000e+00 3.43605340e-08 5.97134319e-08
 0.00000000e+00 0.00000000e+00 0.00000000e+00 1.49435077e-06]","[[-2.23715835e-03 -1.38814018e-05]
 [-7.92409272e-04 -5.47013044e-04]]",[],0.0,0.0
1787133264.9887197,0.23613389816181315,-1.0715025878258928,0.3614479466507868,"[8.90238195e-07 1.57752079e-07 0.00000000e+00 0.00000000e+00
 0.00000000e+00 3.43605340e-08 1.57752079e-07 5.33765828e-07
 0.00000000e+00 0.00000000e+00 0.00000000e+00 5.97134319e-08
 0.00000000e+00 0.00000000e+00 0.00000000e+00 0.00000000e+00
 0.00000000e+00 0.00000000e+00 0.00000000e+00 0.00000000e+00
 0.00000000e+00 0.00000000e+00 0.00000000e+00 0.00000000e+00
 0.00000000e+00 0.00000000e+00 0.00000000e+00 0.00000000e+00
 0.00000000e+00 0.00000000e+00 3.43605340e-08 5.97134319e-08
 0.00000000e+00 0.00000000e+00 0.00000000e+00 1.49435077e-06]","[[-2.23715835e-03 -1.38814018e-05]
 [-7.92409272e-04 -5.47013044e-04]]",[],0.0,0.0
1787133265.079483,0.23613389816181315,-1.0715025878258928,0.3614479466507868,"[8.90238195e-07 1.57752079e-07 0.00000000e+00 0.00000000e+00
 0.00000000e+00 3.43605340e-08 1.57752079e-07 5.33765828e-07
 0.00000000e+00 0.00000000e+00 0.00000000e+00 5.97134319e-08
 0.00000000e+00 0.00000000e+00 0.00000000e+00 0.00000000e+00
 0.00000000e+00 0.00000000e+00 0.00000000e+00 0.00000000e+00
 0.00000000e+00 0.00000000e+00 0.00000000e+00 0.00000000e+00
 0.00000000e+00 0.00000000e+00 0.00000000e+00 0.00000000e+00
 0.00000000e+00 0.00000000e+00 3.43605340e-08 5.97134319e-08
 0.00000000e+00 0.00000000e+00 0.00000000e+00 1.49435077e-06]","[[-2.23715835e-03 -1.38814018e-05]
 [-7.92409272e-04 -5.47013044e-04]]",[],0.0,0.0
1787133265.1192029,0.23613389816181315,-1.0715025878258928,0.3614479466507868,"[8.90238195e-07 1.57752079e-07 0.00000000e+00 0.00000000e+00
 0.00000000e+00 3.43605340e-08 1.57752079e-07 5.33765828e-07
 0.00000000e+00 0.00000000e+00 0.00000000e+00 5.97134319e-08
 0.00000000e+00 0.00000000e+00 0.00000000e+00 0.00000000e+00
 0.00000000e+00 0.00000000e+00 0.00000000e+00 0.00000000e+00
 0.00000000e+00 0.00000000e+00 0.00000000e+00 0.00000000e+00
 0.00000000e+00 0.00000000e+00 0.00000000e+00 0.00000000e+00
 0.00000000e+00 0.00000000e+00 3.43605340e-08 5.97134319e-08
 0.00000000e+00 0.00000000e+00 0.00000000e+00 1.49435077e-06]","[[-2.23715835e-03 -1.38814018e-05]
 [-7.92409272e-04 -5.47013044e-04]]",[],0.0,0.0
1787133265.1520813,0.23613389816181315,-1.0715025878258928,0.3614479466507868,"[8.90238195e-07 1.57752079e-07 0.00000000e+00 0.00000000e+00
 0.00000000e+00 3.43605340e-08 1.57752079e-07 5.33765828e-07
 0.00000000e+00 0.00000000e+00 0.00000000e+00 5.97134319e-08
 0.00000000e+00 0.00000000e+00 0.00000000e+00 0.00000000e+00
 0.00000000e+00 0.00000000e+00 0.00000000e+00 0.00000000e+00
 0.00000000e+00 0.00000000e+00 0.00000000e+00 0.00000000e+00
 0.00000000e+00 0.00000000e+00 0.00000000e+00 0.00000000e+00
 0.00000000e+00 0.00000000e+00 3.43605340e-08 5.97134319e-08
 0.00000000e+00 0.00000000e+00 0.00000000e+00 1.49435077e-06]","[[-2.23715835e-03 -1.38814018e-05]
 [-7.92409272e-04 -5.47013044e-04]]",[],0.0,0.0
1787133265.188655,0.23613389816181315,-1.0715025878258928,0.3614479466507868,"[8.90238195e-07 1.57752079e-07 0.00000000e+00 0.00000000e+00
 0.00000000e+00 3.43605340e-08 1.57752079e-07 5.33765828e-07
 0.00000000e+00 0.00000000e+00 0.00000000e+00 5.97134319e-08
 0.00000000e+00 0.00000000e+00 0.00000000e+00 0.00000000e+00
 0.00000000e+00 0.00000000e+00 0.00000000e+00 0.00000000e+00
 0.00000000e+00 0.00000000e+00 0.00000000e+00 0.00000000e+00
 0.00000000e+00 0.00000000e+00 0.00000000e+00 0.00000000e+00
 0.00000000e+00 0.00000000e+00 3.43605340e-08 5.97134319e-08
 0.00000000e+00 0.00000000e+00 0.00000000e+00 1.49435077e-06]","[[-2.23715835e-03 -1.38814018e-05]
 [-7.92409272e-04 -5.47013044e-04]]",[],0.0,0.0
1787133265.2528348,0.23613389816181315,-1.0715025878258928,0.3614479466507868,"[8.90238195e-07 1.57752079e-07 0.00000000e+00 0.00000000e+00
 0.00000000e+00 3.43605340e-08 1.57752079e-07 5.33765828e-07
 0.00000000e+00 0.00000000e+00 0.00000000e+00 5.97134319e-08
 0.00000000e+00 0.00000000e+00 0.00000000e+00 0.00000000e+00
 0.00000000e+00 0.00000000e+00 0.00000000e+00 0.00000000e+00
 0.00000000e+00 0.00000000e+00 0.00000000e+00 0.00000000e+00
 0.00000000e+00 0.00000000e+00 0.00000000e+00 0.00000000e+00
 0.00000000e+00 0.00000000e+00 3.43605340e-08 5.97134319e-08
 0.00000000e+00 0.00000000e+00 0.00000000e+00 1.49435077e-06]","[[-2.23715835e-03 -1.38814018e-05]
 [-7.92409272e-04 -5.47013044e-04]]",[],0.0,0.0
1787133265.28903,0.23613389816181315,-1.0715025878258928,0.3614479466507868,"[8.90238195e-07 1.57752079e-07 0.00000000e+00 0.00000000e+00
 0.00000000e+00 3.43605340e-08 1.57752079e-07 5.33765828e-07
 0.00000000e+00 0.00000000e+00 0.00000000e+00 5.97134319e-08
 0.00000000e+00 0.00000000e+00 0.00000000e+00 0.00000000e+00
 0.00000000e+00 0.00000000e+00 0.00000000e+00 0.00000000e+00
 0.00000000e+00 0.00000000e+00 0.00000000e+00 0.00000000e+00
 0.00000000e+00 0.00000000e+00 0.00000000e+00 0.00000000e+00
 0.00000000e+00 0.00000000e+00 3.43605340e-08 5.97134319e-08
 0.00000000e+00 0.00000000e+00 0.00000000e+00 1.49435077e-06]","[[-2.23715835e-03 -1.38814018e-05]
 [-7.92409272e-04 -5.47013044e-04]]",[],0.0,0.0
1787133265.3389888,0.23613389816181315,-1.0715025878258928,0.3614479466507868,"[8.90238195e-07 1.57752079e-07 0.00000000e+00 0.00000000e+00
 0.00000000e+00 3.43605340e-08 1.57752079e-07 5.33765828e-07
 0.00000000e+00 0.00000000e+00 0.00000000e+00 5.97134319e-08
 0.00000000e+00 0.00000000e+00 0.00000000e+00 0.00000000e+00
 0.00000000e+00 0.00000000e+00 0.00000000e+00 0.00000000e+00
 0.00000000e+00 0.00000000e+00 0.00000000e+00 0.00000000e+00
 0.00000000e+00 0.00000000e+00 0.00000000e+00 0.00000000e+00
 0.00000000e+00 0.00000000e+00 3.43605340e-08 5.97134319e-08
 0.00000000e+00 0.00000000e+00 0.00000000e+00 1.49435077e-06]","[[-2.23715835e-03 -1.38814018e-05]
 [-7.92409272e-04 -5.47013044e-04]]",[],0.0,0.0
1787133265.3887901,0.23613389816181315,-1.0715025878258928,0.3614479466507868,"[8.90238195e-07 1.57752079e-07 0.00000000e+00 0.00000000e+00
 0.00000000e+00 3.43605340e-08 1.57752079e-07 5.33765828e-07
 0.00000000e+00 0.00000000e+00 0.00000000e+00 5.97134319e-08
 0.00000000e+00 0.00000000e+00 0.00000000e+00 0.00000000e+00
 0.00000000e+00 0.00000000e+00 0.00000000e+00 0.00000000e+00
 0.00000000e+00 0.00000000e+00 0.00000000e+00 0.00000000e+00
 0.00000000e+00 0.00000000e+00 0.00000000e+00 0.00000000e+00
 0.00000000e+00 0.00000000e+00 3.43605340e-08 5.97134319e-08
 0.00000000e+00 0.00000000e+00 0.00000000e+00 1.49435077e-06]","[[-2.23715835e-03 -1.38814018e-05]
 [-7.92409272e-04 -5.47013044e-04]]",[],0.0,0.0
1787133265.4747653,0.23613389816181315,-1.0715025878258928,0.3614479466507868,"[8.90238195e-07 1.57752079e-07 0.00000000e+00 0.00000000e+00
 0.00000000e+00 3.43605340e-08 1.57752079e-07 5.33765828e-07
 0.00000000e+00 0.00000000e+00 0.00000000e+00 5.97134319e-08
 0.00000000e+00 0.00000000e+00 0.00000000e+00 0.00000000e+00
 0.00000000e+00 0.00000000e+00 0.00000000e+00 0.00000000e+00
 0.00000000e+00 0.00000000e+00 0.00000000e+00 0.00000000e+00
 0.00000000e+00 0.00000000e+00 0.00000000e+00 0.00000000e+00
 0.00000000e+00 0.00000000e+00 3.43605340e-08 5.97134319e-08
 0.00000000e+00 0.00000000e+00 0.00000000e+00 1.49435077e-06]","[[-2.23715835e-03 -1.38814018e-05]
 [-7.92409272e-04 -5.47013044e-04]]",[],0.0,0.0
1787133265.544757,0.23613389816181315,-1.0715025878258928,0.3614479466507868,"[8.90238195e-07 1.57752079e-07 0.00000000e+00 0.00000000e+00
 0.00000000e+00 3.43605340e-08 1.57752079e-07 5.33765828e-07
 0.00000000e+00 0.00000000e+00 0.00000000e+00 5.97134319e-08
 0.00000000e+00 0.00000000e+00 0.00000000e+00 0.00000000e+00
 0.00000000e+00 0.00000000e+00 0.00000000e+00 0.00000000e+00
 0.00000000e+00 0.00000000e+00 0.00000000e+00 0.00000000e+00
 0.00000000e+00 0.00000000e+00 0.00000000e+00 0.00000000e+00
 0.00000000e+00 0.00000000e+00 3.43605340e-08 5.97134319e-08
 0.00000000e+00 0.00000000e+00 0.00000000e+00 1.49435077e-06]","[[-2.23715835e-03 -1.38814018e-05]
 [-7.92409272e-04 -5.47013044e-04]]",[],0.0,0.0
1787133265.6188219,0.23418924052369253,-1.0701421765921173,0.3683075569456005,"[8.80603821e-07 1.78845080e-07 0.00000000e+00 0.00000000e+00
 0.00000000e+00 3.89531114e-08 1.78845080e-07 4.85147278e-07
 0.00000000e+00 0.00000000e+00 0.00000000e+00 5.44918598e-08
 0.00000000e+00 0.00000000e+00 0.00000000e+00 0.00000000e+00
 0.00000000e+00 0.00000000e+00 0.00000000e+00 0.00000000e+00
 0.00000000e+00 0.00000000e+00 0.00000000e+00 0.00000000e+00
 0.00000000e+00 0.00000000e+00 0.00000000e+00 0.00000000e+00
 0.00000000e+00 0.00000000e+00 3.89531114e-08 5.44918598e-08
 0.00000000e+00 0.00000000e+00 0.00000000e+00 1.55094308e-06]","[[-2.22520177e-03 -3.32429734e-05]
 [-8.24031619e-04 -4.84657269e-04]]",[],0.0,0.0
1787133265.6785645,0.23418924052369253,-1.0701421765921173,0.3683075569456005,"[8.80603821e-07 1.78845080e-07 0.00000000e+00 0.00000000e+00
 0.00000000e+00 3.89531114e-08 1.78845080e-07 4.85147278e-07
 0.00000000e+00 0.00000000e+00 0.00000000e+00 5.44918598e-08
 0.00000000e+00 0.00000000e+00 0.00000000e+00 0.00000000e+00
 0.00000000e+00 0.00000000e+00 0.00000000e+00 0.00000000e+00
 0.00000000e+00 0.00000000e+00 0.00000000e+00 0.00000000e+00
 0.00000000e+00 0.00000000e+00 0.00000000e+00 0.00000000e+00
 0.00000000e+00 0.00000000e+00 3.89531114e-08 5.44918598e-08
 0.00000000e+00 0.00000000e+00 0.00000000e+00 1.55094308e-06]","[[-2.22520177e-03 -3.32429734e-05]
 [-8.24031619e-04 -4.84657269e-04]]",[],0.0,0.0
1787133265.7349358,0.23418924052369253,-1.0701421765921173,0.3683075569456005,"[8.80603821e-07 1.78845080e-07 0.00000000e+00 0.00000000e+00
 0.00000000e+00 3.89531114e-08 1.78845080e-07 4.85147278e-07
 0.00000000e+00 0.00000000e+00 0.00000000e+00 5.44918598e-08
 0.00000000e+00 0.00000000e+00 0.00000000e+00 0.00000000e+00
 0.00000000e+00 0.00000000e+00 0.00000000e+00 0.00000000e+00
 0.00000000e+00 0.00000000e+00 0.00000000e+00 0.00000000e+00
 0.00000000e+00 0.00000000e+00 0.00000000e+00 0.00000000e+00
 0.00000000e+00 0.00000000e+00 3.89531114e-08 5.44918598e-08
 0.00000000e+00 0.00000000e+00 0.00000000e+00 1.55094308e-06]","[[-2.22520177e-03 -3.32429734e-05]
 [-8.24031619e-04 -4.84657269e-04]]",[],0.0,0.0
1787133265.7428055,0.23418924052369253,-1.0701421765921173,0.3683075569456005,"[8.80603821e-07 1.78845080e-07 0.00000000e+00 0.00000000e+00
 0.00000000e+00 3.89531114e-08 1.78845080e-07 4.85147278e-07
 0.00000000e+00 0.00000000e+00 0.00000000e+00 5.44918598e-08
 0.00000000e+00 0.00000000e+00 0.00000000e+00 0.00000000e+00
 0.00000000e+00 0.00000000e+00 0.00000000e+00 0.00000000e+00
 0.00000000e+00 0.00000000e+00 0.00000000e+00 0.00000000e+00
 0.00000000e+00 0.00000000e+00 0.00000000e+00 0.00000000e+00
 0.00000000e+00 0.00000000e+00 3.89531114e-08 5.44918598e-08
 0.00000000e+00 0.00000000e+00 0.00000000e+00 1.55094308e-06]","[[-2.22520177e-03 -3.32429734e-05]
 [-8.24031619e-04 -4.84657269e-04]]",[],0.0,0.0
1787133265.7893312,0.23418924052369253,-1.0701421765921173,0.3683075569456005,"[8.80603821e-07 1.78845080e-07 0.00000000e+00 0.00000000e+00
 0.00000000e+00 3.89531114e-08 1.78845080e-07 4.85147278e-07
 0.00000000e+00 0.00000000e+00 0.00000000e+00 5.44918598e-08
 0.00000000e+00 0.00000000e+00 0.00000000e+00 0.00000000e+00
 0.00000000e+00 0.00000000e+00 0.00000000e+00 0.00000000e+00
 0.00000000e+00 0.00000000e+00 0.00000000e+00 0.00000000e+00
 0.00000000e+00 0.00000000e+00 0.00000000e+00 0.00000000e+00
 0.00000000e+00 0.00000000e+00 3.89531114e-08 5.44918598e-08
 0.00000000e+00 0.00000000e+00 0.00000000e+00 1.55094308e-06]","[[-2.22520177e-03 -3.32429734e-05]
 [-8.24031619e-04 -4.84657269e-04]]",[],0.0,0.0
1787133265.8587165,0.23418924052369253,-1.0701421765921173,0.3683075569456005,"[8.80603821e-07 1.78845080e-07 0.00000000e+00 0.00000000e+00
 0.00000000e+00 3.89531114e-08 1.78845080e-07 4.85147278e-07
 0.00000000e+00 0.00000000e+00 0.00000000e+00 5.44918598e-08
 0.00000000e+00 0.00000000e+00 0.00000000e+00 0.00000000e+00
 0.00000000e+00 0.00000000e+00 0.00000000e+00 0.00000000e+00
 0.00000000e+00 0.00000000e+00 0.00000000e+00 0.00000000e+00
 0.00000000e+00 0.00000000e+00 0.00000000e+00 0.00000000e+00
 0.00000000e+00 0.00000000e+00 3.89531114e-08 5.44918598e-08
 0.00000000e+00 0.00000000e+00 0.00000000e+00 1.55094308e-06]","[[-2.22520177e-03 -3.32429734e-05]
 [-8.24031619e-04 -4.84657269e-04]]",[],0.0,0.0
1787133265.9217093,0.23418924052369253,-1.0701421765921173,0.3683075569456005,"[8.80603821e-07 1.78845080e-07 0.00000000e+00 0.00000000e+00
 0.00000000e+00 3.89531114e-08 1.78845080e-07 4.85147278e-07
 0.00000000e+00 0.00000000e+00 0.00000000e+00 5.44918598e-08
 0.00000000e+00 0.00000000e+00 0.00000000e+00 0.00000000e+00
 0.00000000e+00 0.00000000e+00 0.00000000e+00 0.00000000e+00
 0.00000000e+00 0.00000000e+00 0.00000000e+00 0.00000000e+00
 0.00000000e+00 0.00000000e+00 0.00000000e+00 0.00000000e+00
 0.00000000e+00 0.00000000e+00 3.89531114e-08 5.44918598e-08
 0.00000000e+00 0.00000000e+00 0.00000000e+00 1.55094308e-06]","[[-2.22520177e-03 -3.32429734e-05]
 [-8.24031619e-04 -4.84657269e-04]]",[],0.0,0.0
1787133265.9514575,0.23418924052369253,-1.0701421765921173,0.3683075569456005,"[8.80603821e-07 1.78845080e-07 0.00000000e+00 0.00000000e+00
 0.00000000e+00 3.89531114e-08 1.78845080e-07 4.85147278e-07
 0.00000000e+00 0.00000000e+00 0.00000000e+00 5.44918598e-08
 0.00000000e+00 0.00000000e+00 0.00000000e+00 0.00000000e+00
 0.00000000e+00 0.00000000e+00 0.00000000e+00 0.00000000e+00
 0.00000000e+00 0.00000000e+00 0.00000000e+00 0.00000000e+00
 0.00000000e+00 0.00000000e+00 0.00000000e+00 0.00000000e+00
 0.00000000e+00 0.00000000e+00 3.89531114e-08 5.44918598e-08
 0.00000000e+00 0.00000000e+00 0.00000000e+00 1.55094308e-06]","[[-2.22520177e-03 -3.32429734e-05]
 [-8.24031619e-04 -4.84657269e-04]]",[],0.0,0.0
1787133265.9963362,0.23418924052369253,-1.0701421765921173,0.3683075569456005,"[8.80603821e-07 1.78845080e-07 0.00000000e+00 0.00000000e+00
 0.00000000e+00 3.89531114e-08 1.78845080e-07 4.85147278e-07
 0.00000000e+00 0.00000000e+00 0.00000000e+00 5.44918598e-08
 0.00000000e+00 0.00000000e+00 0.00000000e+00 0.00000000e+00
 0.00000000e+00 0.00000000e+00 0.00000000e+00 0.00000000e+00
 0.00000000e+00 0.00000000e+00 0.00000000e+00 0.00000000e+00
 0.00000000e+00 0.00000000e+00 0.00000000e+00 0.00000000e+00
 0.00000000e+00 0.00000000e+00 3.89531114e-08 5.44918598e-08
 0.00000000e+00 0.00000000e+00 0.00000000e+00 1.55094308e-06]","[[-2.22520177e-03 -3.32429734e-05]
 [-8.24031619e-04 -4.84657269e-04]]",[],0.0,0.0
1787133266.0660558,0.23418924052369253,-1.0701421765921173,0.3683075569456005,"[8.80603821e-07 1.78845080e-07 0.00000000e+00 0.00000000e+00
 0.00000000e+00 3.89531114e-08 1.78845080e-07 4.85147278e-07
 0.00000000e+00 0.00000000e+00 0.00000000e+00 5.44918598e-08
 0.00000000e+00 0.00000000e+00 0.00000000e+00 0.00000000e+00
 0.00000000e+00 0.00000000e+00 0.00000000e+00 0.00000000e+00
 0.00000000e+00 0.00000000e+00 0.00000000e+00 0.00000000e+00
 0.00000000e+00 0.00000000e+00 0.00000000e+00 0.00000000e+00
 0.00000000e+00 0.00000000e+00 3.89531114e-08 5.44918598e-08
 0.00000000e+00 0.00000000e+00 0.00000000e+00 1.55094308e-06]","[[-2.22520177e-03 -3.32429734e-05]
 [-8.24031619e-04 -4.84657269e-04]]",[],0.0,0.0
1787133266.0884545,0.23418924052369253,-1.0701421765921173,0.3683075569456005,"[8.80603821e-07 1.78845080e-07 0.00000000e+00 0.00000000e+00
 0.00000000e+00 3.89531114e-08 1.78845080e-07 4.85147278e-07
 0.00000000e+00 0.00000000e+00 0.00000000e+00 5.44918598e-08
 0.00000000e+00 0.00000000e+00 0.00000000e+00 0.00000000e+00
 0.00000000e+00 0.00000000e+00 0.00000000e+00 0.00000000e+00
 0.00000000e+00 0.00000000e+00 0.00000000e+00 0.00000000e+00
 0.00000000e+00 0.00000000e+00 0.00000000e+00 0.00000000e+00
 0.00000000e+00 0.00000000e+00 3.89531114e-08 5.44918598e-08
 0.00000000e+00 0.00000000e+00 0.00000000e+00 1.55094308e-06]","[[-2.22520177e-03 -3.32429734e-05]
 [-8.24031619e-04 -4.84657269e-04]]",[],0.0,0.0
1787133266.145959,0.23418924052369253,-1.0701421765921173,0.3683075569456005,"[8.80603821e-07 1.78845080e-07 0.00000000e+00 0.00000000e+00
 0.00000000e+00 3.89531114e-08 1.78845080e-07 4.85147278e-07
 0.00000000e+00 0.00000000e+00 0.00000000e+00 5.44918598e-08
 0.00000000e+00 0.00000000e+00 0.00000000e+00 0.00000000e+00
 0.00000000e+00 0.00000000e+00 0.00000000e+00 0.00000000e+00
 0.00000000e+00 0.00000000e+00 0.00000000e+00 0.00000000e+00
 0.00000000e+00 0.00000000e+00 0.00000000e+00 0.00000000e+00
 0.00000000e+00 0.00000000e+00 3.89531114e-08 5.44918598e-08
 0.00000000e+00 0.00000000e+00 0.00000000e+00 1.55094308e-06]","[[-2.22520177e-03 -3.32429734e-05]
 [-8.24031619e-04 -4.84657269e-04]]",[],0.0,0.0
1787133266.5018985,0.23418924052369253,-1.0701421765921173,0.3683075569456005,"[8.80603821e-07 1.78845080e-07 0.00000000e+00 0.00000000e+00
 0.00000000e+00 3.89531114e-08 1.78845080e-07 4.85147278e-07
 0.00000000e+00 0.00000000e+00 0.00000000e+00 5.44918598e-08
 0.00000000e+00 0.00000000e+00 0.00000000e+00 0.00000000e+00
 0.00000000e+00 0.00000000e+00 0.00000000e+00 0.00000000e+00
 0.00000000e+00 0.00000000e+00 0.00000000e+00 0.00000000e+00
 0.00000000e+00 0.00000000e+00 0.00000000e+00 0.00000000e+00
 0.00000000e+00 0.00000000e+00 3.89531114e-08 5.44918598e-08
 0.00000000e+00 0.00000000e+00 0.00000000e+00 1.55094308e-06]","[[-2.22520177e-03 -3.32429734e-05]
 [-8.24031619e-04 -4.84657269e-04]]",[],0.0,0.0
1787133266.5455608,0.2312874717277174,-1.0694396456352908,0.364976886050564,"[8.50570750e-07 1.87535647e-07 0.00000000e+00 0.00000000e+00
 0.00000000e+00 4.04581863e-08 1.87535647e-07 4.41309366e-07
 0.00000000e+00 0.00000000e+00 0.00000000e+00 4.54136085e-08
 0.00000000e+00 0.00000000e+00 0.00000000e+00 0.00000000e+00
 0.00000000e+00 0.00000000e+00 0.00000000e+00 0.00000000e+00
 0.00000000e+00 0.00000000e+00 0.00000000e+00 0.00000000e+00
 0.00000000e+00 0.00000000e+00 0.00000000e+00 0.00000000e+00
 0.00000000e+00 0.00000000e+00 4.04581863e-08 4.54136085e-08
 0.00000000e+00 0.00000000e+00 0.00000000e+00 1.43976845e-06]","[[-2.16291828e-03 -5.59489821e-05]
 [-8.03542666e-04 -4.20932823e-04]]",[],0.0,0.0
1787133266.6159449,0.2312874717277174,-1.0694396456352908,0.364976886050564,"[8.50570750e-07 1.87535647e-07 0.00000000e+00 0.00000000e+00
 0.00000000e+00 4.04581863e-08 1.87535647e-07 4.41309366e-07
 0.00000000e+00 0.00000000e+00 0.00000000e+00 4.54136085e-08
 0.00000000e+00 0.00000000e+00 0.00000000e+00 0.00000000e+00
 0.00000000e+00 0.00000000e+00 0.00000000e+00 0.00000000e+00
 0.00000000e+00 0.00000000e+00 0.00000000e+00 0.00000000e+00
 0.00000000e+00 0.00000000e+00 0.00000000e+00 0.00000000e+00
 0.00000000e+00 0.00000000e+00 4.04581863e-08 4.54136085e-08
 0.00000000e+00 0.00000000e+00 0.00000000e+00 1.43976845e-06]","[[-2.16291828e-03 -5.59489821e-05]
 [-8.03542666e-04 -4.20932823e-04]]",[],0.0,0.0
1787133266.7323198,0.2312874717277174,-1.0694396456352908,0.364976886050564,"[8.50570750e-07 1.87535647e-07 0.00000000e+00 0.00000000e+00
 0.00000000e+00 4.04581863e-08 1.87535647e-07 4.41309366e-07
 0.00000000e+00 0.00000000e+00 0.00000000e+00 4.54136085e-08
 0.00000000e+00 0.00000000e+00 0.00000000e+00 0.00000000e+00
 0.00000000e+00 0.00000000e+00 0.00000000e+00 0.00000000e+00
 0.00000000e+00 0.00000000e+00 0.00000000e+00 0.00000000e+00
 0.00000000e+00 0.00000000e+00 0.00000000e+00 0.00000000e+00
 0.00000000e+00 0.00000000e+00 4.04581863e-08 4.54136085e-08
 0.00000000e+00 0.00000000e+00 0.00000000e+00 1.43976845e-06]","[[-2.16291828e-03 -5.59489821e-05]
 [-8.03542666e-04 -4.20932823e-04]]",[],0.0,0.0
1787133266.747742,0.2312874717277174,-1.0694396456352908,0.364976886050564,"[8.50570750e-07 1.87535647e-07 0.00000000e+00 0.00000000e+00
 0.00000000e+00 4.04581863e-08 1.87535647e-07 4.41309366e-07
 0.00000000e+00 0.00000000e+00 0.00000000e+00 4.54136085e-08
 0.00000000e+00 0.00000000e+00 0.00000000e+00 0.00000000e+00
 0.00000000e+00 0.00000000e+00 0.00000000e+00 0.00000000e+00
 0.00000000e+00 0.00000000e+00 0.00000000e+00 0.00000000e+00
 0.00000000e+00 0.00000000e+00 0.00000000e+00 0.00000000e+00
 0.00000000e+00 0.00000000e+00 4.04581863e-08 4.54136085e-08
 0.00000000e+00 0.00000000e+00 0.00000000e+00 1.43976845e-06]","[[-2.16291828e-03 -5.59489821e-05]
 [-8.03542666e-04 -4.20932823e-04]]",[],0.0,0.0
1787133266.7908156,0.2312874717277174,-1.0694396456352908,0.364976886050564,"[8.50570750e-07 1.87535647e-07 0.00000000e+00 0.00000000e+00
 0.00000000e+00 4.04581863e-08 1.87535647e-07 4.41309366e-07
 0.00000000e+00 0.00000000e+00 0.00000000e+00 4.54136085e-08
 0.00000000e+00 0.00000000e+00 0.00000000e+00 0.00000000e+00
 0.00000000e+00 0.00000000e+00 0.00000000e+00 0.00000000e+00
 0.00000000e+00 0.00000000e+00 0.00000000e+00 0.00000000e+00
 0.00000000e+00 0.00000000e+00 0.00000000e+00 0.00000000e+00
 0.00000000e+00 0.00000000e+00 4.04581863e-08 4.54136085e-08
 0.00000000e+00 0.00000000e+00 0.00000000e+00 1.43976845e-06]","[[-2.16291828e-03 -5.59489821e-05]
 [-8.03542666e-04 -4.20932823e-04]]",[],0.0,0.0
1787133267.3094614,0.2312874717277174,-1.0694396456352908,0.364976886050564,"[8.50570750e-07 1.87535647e-07 0.00000000e+00 0.00000000e+00
 0.00000000e+00 4.04581863e-08 1.87535647e-07 4.41309366e-07
 0.00000000e+00 0.00000000e+00 0.00000000e+00 4.54136085e-08
 0.00000000e+00 0.00000000e+00 0.00000000e+00 0.00000000e+00
 0.00000000e+00 0.00000000e+00 0.00000000e+00 0.00000000e+00
 0.00000000e+00 0.00000000e+00 0.00000000e+00 0.00000000e+00
 0.00000000e+00 0.00000000e+00 0.00000000e+00 0.00000000e+00
 0.00000000e+00 0.00000000e+00 4.04581863e-08 4.54136085e-08
 0.00000000e+00 0.00000000e+00 0.00000000e+00 1.43976845e-06]","[[-2.16291828e-03 -5.59489821e-05]
 [-8.03542666e-04 -4.20932823e-04]]",[],0.0,0.0
1787133267.3590963,0.22918308081714697,-1.0683359645461568,0.36125312840956436,"[7.90643798e-07 1.79080057e-07 0.00000000e+00 0.00000000e+00
 0.00000000e+00 3.67593801e-08 1.79080057e-07 3.99996192e-07
 0.00000000e+00 0.00000000e+00 0.00000000e+00 4.45210350e-08
 0.00000000e+00 0.00000000e+00 0.00000000e+00 0.00000000e+00
 0.00000000e+00 0.00000000e+00 0.00000000e+00 0.00000000e+00
 0.00000000e+00 0.00000000e+00 0.00000000e+00 0.00000000e+00
 0.00000000e+00 0.00000000e+00 0.00000000e+00 0.00000000e+00
 0.00000000e+00 0.00000000e+00 3.67593801e-08 4.45210350e-08
 0.00000000e+00 0.00000000e+00 0.00000000e+00 1.41471020e-06]","[[-2.00955734e-03 -3.99870934e-05]
 [-7.65658134e-04 -3.86737388e-04]]",[],0.0,0.0
1787133267.3989942,0.22918308081714697,-1.0683359645461568,0.36125312840956436,"[7.90643798e-07 1.79080057e-07 0.00000000e+00 0.00000000e+00
 0.00000000e+00 3.67593801e-08 1.79080057e-07 3.99996192e-07
 0.00000000e+00 0.00000000e+00 0.00000000e+00 4.45210350e-08
 0.00000000e+00 0.00000000e+00 0.00000000e+00 0.00000000e+00
 0.00000000e+00 0.00000000e+00 0.00000000e+00 0.00000000e+00
 0.00000000e+00 0.00000000e+00 0.00000000e+00 0.00000000e+00
 0.00000000e+00 0.00000000e+00 0.00000000e+00 0.00000000e+00
 0.00000000e+00 0.00000000e+00 3.67593801e-08 4.45210350e-08
 0.00000000e+00 0.00000000e+00 0.00000000e+00 1.41471020e-06]","[[-2.00955734e-03 -3.99870934e-05]
 [-7.65658134e-04 -3.86737388e-04]]",[],0.0,0.0
1787133267.4425404,0.22918308081714697,-1.0683359645461568,0.36125312840956436,"[7.90643798e-07 1.79080057e-07 0.00000000e+00 0.00000000e+00
 0.00000000e+00 3.67593801e-08 1.79080057e-07 3.99996192e-07
 0.00000000e+00 0.00000000e+00 0.00000000e+00 4.45210350e-08
 0.00000000e+00 0.00000000e+00 0.00000000e+00 0.00000000e+00
 0.00000000e+00 0.00000000e+00 0.00000000e+00 0.00000000e+00
 0.00000000e+00 0.00000000e+00 0.00000000e+00 0.00000000e+00
 0.00000000e+00 0.00000000e+00 0.00000000e+00 0.00000000e+00
 0.00000000e+00 0.00000000e+00 3.67593801e-08 4.45210350e-08
 0.00000000e+00 0.00000000e+00 0.00000000e+00 1.41471020e-06]","[[-2.00955734e-03 -3.99870934e-05]
 [-7.65658134e-04 -3.86737388e-04]]",[],0.0,0.0
1787133268.1503582,0.22918308081714697,-1.0683359645461568,0.36125312840956436,"[7.90643798e-07 1.79080057e-07 0.00000000e+00 0.00000000e+00
 0.00000000e+00 3.67593801e-08 1.79080057e-07 3.99996192e-07
 0.00000000e+00 0.00000000e+00 0.00000000e+00 4.45210350e-08
 0.00000000e+00 0.00000000e+00 0.00000000e+00 0.00000000e+00
 0.00000000e+00 0.00000000e+00 0.00000000e+00 0.00000000e+00
 0.00000000e+00 0.00000000e+00 0.00000000e+00 0.00000000e+00
 0.00000000e+00 0.00000000e+00 0.00000000e+00 0.00000000e+00
 0.00000000e+00 0.00000000e+00 3.67593801e-08 4.45210350e-08
 0.00000000e+00 0.00000000e+00 0.00000000e+00 1.41471020e-06]","[[-2.00955734e-03 -3.99870934e-05]
 [-7.65658134e-04 -3.86737388e-04]]",[],0.0,0.0
1787133268.1909614,0.22918308081714697,-1.0683359645461568,0.36125312840956436,"[7.90643798e-07 1.79080057e-07 0.00000000e+00 0.00000000e+00
 0.00000000e+00 3.67593801e-08 1.79080057e-07 3.99996192e-07
 0.00000000e+00 0.00000000e+00 0.00000000e+00 4.45210350e-08
 0.00000000e+00 0.00000000e+00 0.00000000e+00 0.00000000e+00
 0.00000000e+00 0.00000000e+00 0.00000000e+00 0.00000000e+00
 0.00000000e+00 0.00000000e+00 0.00000000e+00 0.00000000e+00
 0.00000000e+00 0.00000000e+00 0.00000000e+00 0.00000000e+00
 0.00000000e+00 0.00000000e+00 3.67593801e-08 4.45210350e-08
 0.00000000e+00 0.00000000e+00 0.00000000e+00 1.41471020e-06]","[[-2.00955734e-03 -3.99870934e-05]
 [-7.65658134e-04 -3.86737388e-04]]",[],0.0,0.0
1787133268.242581,0.2259535392352952,-1.0676267665691583,0.3608147081568572,"[7.84127294e-07 1.87063630e-07 0.00000000e+00 0.00000000e+00
 0.00000000e+00 3.30145479e-08 1.87063630e-07 3.72078262e-07
 0.00000000e+00 0.00000000e+00 0.00000000e+00 4.27298293e-08
 0.00000000e+00 0.00000000e+00 0.00000000e+00 0.00000000e+00
 0.00000000e+00 0.00000000e+00 0.00000000e+00 0.00000000e+00
 0.00000000e+00 0.00000000e+00 0.00000000e+00 0.00000000e+00
 0.00000000e+00 0.00000000e+00 0.00000000e+00 0.00000000e+00
 0.00000000e+00 0.00000000e+00 3.30145479e-08 4.27298293e-08
 0.00000000e+00 0.00000000e+00 0.00000000e+00 1.45669075e-06]","[[-2.00646169e-03 -5.05878730e-05]
 [-7.42412026e-04 -3.63681125e-04]]",[],0.0,0.0
1787133268.3103738,0.2259535392352952,-1.0676267665691583,0.3608147081568572,"[7.84127294e-07 1.87063630e-07 0.00000000e+00 0.00000000e+00
 0.00000000e+00 3.30145479e-08 1.87063630e-07 3.72078262e-07
 0.00000000e+00 0.00000000e+00 0.00000000e+00 4.27298293e-08
 0.00000000e+00 0.00000000e+00 0.00000000e+00 0.00000000e+00
 0.00000000e+00 0.00000000e+00 0.00000000e+00 0.00000000e+00
 0.00000000e+00 0.00000000e+00 0.00000000e+00 0.00000000e+00
 0.00000000e+00 0.00000000e+00 0.00000000e+00 0.00000000e+00
 0.00000000e+00 0.00000000e+00 3.30145479e-08 4.27298293e-08
 0.00000000e+00 0.00000000e+00 0.00000000e+00 1.45669075e-06]","[[-2.00646169e-03 -5.05878730e-05]
 [-7.42412026e-04 -3.63681125e-04]]",[],0.0,0.0
1787133268.3630834,0.2259535392352952,-1.0676267665691583,0.3608147081568572,"[7.84127294e-07 1.87063630e-07 0.00000000e+00 0.00000000e+00
 0.00000000e+00 3.30145479e-08 1.87063630e-07 3.72078262e-07
 0.00000000e+00 0.00000000e+00 0.00000000e+00 4.27298293e-08
 0.00000000e+00 0.00000000e+00 0.00000000e+00 0.00000000e+00
 0.00000000e+00 0.00000000e+00 0.00000000e+00 0.00000000e+00
 0.00000000e+00 0.00000000e+00 0.00000000e+00 0.00000000e+00
 0.00000000e+00 0.00000000e+00 0.00000000e+00 0.00000000e+00
 0.00000000e+00 0.00000000e+00 3.30145479e-08 4.27298293e-08
 0.00000000e+00 0.00000000e+00 0.00000000e+00 1.45669075e-06]","[[-2.00646169e-03 -5.05878730e-05]
 [-7.42412026e-04 -3.63681125e-04]]",[],0.0,0.0
1787133268.4181764,0.2259535392352952,-1.0676267665691583,0.3608147081568572,"[7.84127294e-07 1.87063630e-07 0.00000000e+00 0.00000000e+00
 0.00000000e+00 3.30145479e-08 1.87063630e-07 3.72078262e-07
 0.00000000e+00 0.00000000e+00 0.00000000e+00 4.27298293e-08
 0.00000000e+00 0.00000000e+00 0.00000000e+00 0.00000000e+00
 0.00000000e+00 0.00000000e+00 0.00000000e+00 0.00000000e+00
 0.00000000e+00 0.00000000e+00 0.00000000e+00 0.00000000e+00
 0.00000000e+00 0.00000000e+00 0.00000000e+00 0.00000000e+00
 0.00000000e+00 0.00000000e+00 3.30145479e-08 4.27298293e-08
 0.00000000e+00 0.00000000e+00 0.00000000e+00 1.45669075e-06]","[[-2.00646169e-03 -5.05878730e-05]
 [-7.42412026e-04 -3.63681125e-04]]",[],0.0,0.0
1787133268.4387395,0.2259535392352952,-1.0676267665691583,0.3608147081568572,"[7.84127294e-07 1.87063630e-07 0.00000000e+00 0.00000000e+00
 0.00000000e+00 3.30145479e-08 1.87063630e-07 3.72078262e-07
 0.00000000e+00 0.00000000e+00 0.00000000e+00 4.27298293e-08
 0.00000000e+00 0.00000000e+00 0.00000000e+00 0.00000000e+00
 0.00000000e+00 0.00000000e+00 0.00000000e+00 0.00000000e+00
 0.00000000e+00 0.00000000e+00 0.00000000e+00 0.00000000e+00
 0.00000000e+00 0.00000000e+00 0.00000000e+00 0.00000000e+00
 0.00000000e+00 0.00000000e+00 3.30145479e-08 4.27298293e-08
 0.00000000e+00 0.00000000e+00 0.00000000e+00 1.45669075e-06]","[[-2.00646169e-03 -5.05878730e-05]
 [-7.42412026e-04 -3.63681125e-04]]",[],0.0,0.0
1787133268.5124953,0.2259535392352952,-1.0676267665691583,0.3608147081568572,"[7.84127294e-07 1.87063630e-07 0.00000000e+00 0.00000000e+00
 0.00000000e+00 3.30145479e-08 1.87063630e-07 3.72078262e-07
 0.00000000e+00 0.00000000e+00 0.00000000e+00 4.27298293e-08
 0.00000000e+00 0.00000000e+00 0.00000000e+00 0.00000000e+00
 0.00000000e+00 0.00000000e+00 0.00000000e+00 0.00000000e+00
 0.00000000e+00 0.00000000e+00 0.00000000e+00 0.00000000e+00
 0.00000000e+00 0.00000000e+00 0.00000000e+00 0.00000000e+00
 0.00000000e+00 0.00000000e+00 3.30145479e-08 4.27298293e-08
 0.00000000e+00 0.00000000e+00 0.00000000e+00 1.45669075e-06]","[[-2.00646169e-03 -5.05878730e-05]
 [-7.42412026e-04 -3.63681125e-04]]",[],0.0,0.0
1787133268.541419,0.2259535392352952,-1.0676267665691583,0.3608147081568572,"[7.84127294e-07 1.87063630e-07 0.00000000e+00 0.00000000e+00
 0.00000000e+00 3.30145479e-08 1.87063630e-07 3.72078262e-07
 0.00000000e+00 0.00000000e+00 0.00000000e+00 4.27298293e-08
 0.00000000e+00 0.00000000e+00 0.00000000e+00 0.00000000e+00
 0.00000000e+00 0.00000000e+00 0.00000000e+00 0.00000000e+00
 0.00000000e+00 0.00000000e+00 0.00000000e+00 0.00000000e+00
 0.00000000e+00 0.00000000e+00 0.00000000e+00 0.00000000e+00
 0.00000000e+00 0.00000000e+00 3.30145479e-08 4.27298293e-08
 0.00000000e+00 0.00000000e+00 0.00000000e+00 1.45669075e-06]","[[-2.00646169e-03 -5.05878730e-05]
 [-7.42412026e-04 -3.63681125e-04]]",[],0.0,0.0
1787133268.5889866,0.2259535392352952,-1.0676267665691583,0.3608147081568572,"[7.84127294e-07 1.87063630e-07 0.00000000e+00 0.00000000e+00
 0.00000000e+00 3.30145479e-08 1.87063630e-07 3.72078262e-07
 0.00000000e+00 0.00000000e+00 0.00000000e+00 4.27298293e-08
 0.00000000e+00 0.00000000e+00 0.00000000e+00 0.00000000e+00
 0.00000000e+00 0.00000000e+00 0.00000000e+00 0.00000000e+00
 0.00000000e+00 0.00000000e+00 0.00000000e+00 0.00000000e+00
 0.00000000e+00 0.00000000e+00 0.00000000e+00 0.00000000e+00
 0.00000000e+00 0.00000000e+00 3.30145479e-08 4.27298293e-08
 0.00000000e+00 0.00000000e+00 0.00000000e+00 1.45669075e-06]","[[-2.00646169e-03 -5.05878730e-05]
 [-7.42412026e-04 -3.63681125e-04]]",[],0.0,0.0
1787133268.643863,0.2259535392352952,-1.0676267665691583,0.3608147081568572,"[7.84127294e-07 1.87063630e-07 0.00000000e+00 0.00000000e+00
 0.00000000e+00 3.30145479e-08 1.87063630e-07 3.72078262e-07
 0.00000000e+00 0.00000000e+00 0.00000000e+00 4.27298293e-08
 0.00000000e+00 0.00000000e+00 0.00000000e+00 0.00000000e+00
 0.00000000e+00 0.00000000e+00 0.00000000e+00 0.00000000e+00
 0.00000000e+00 0.00000000e+00 0.00000000e+00 0.00000000e+00
 0.00000000e+00 0.00000000e+00 0.00000000e+00 0.00000000e+00
 0.00000000e+00 0.00000000e+00 3.30145479e-08 4.27298293e-08
 0.00000000e+00 0.00000000e+00 0.00000000e+00 1.45669075e-06]","[[-2.00646169e-03 -5.05878730e-05]
 [-7.42412026e-04 -3.63681125e-04]]",[],0.0,0.0
1787133268.7188332,0.2259535392352952,-1.0676267665691583,0.3608147081568572,"[7.84127294e-07 1.87063630e-07 0.00000000e+00 0.00000000e+00
 0.00000000e+00 3.30145479e-08 1.87063630e-07 3.72078262e-07
 0.00000000e+00 0.00000000e+00 0.00000000e+00 4.27298293e-08
 0.00000000e+00 0.00000000e+00 0.00000000e+00 0.00000000e+00
 0.00000000e+00 0.00000000e+00 0.00000000e+00 0.00000000e+00
 0.00000000e+00 0.00000000e+00 0.00000000e+00 0.00000000e+00
 0.00000000e+00 0.00000000e+00 0.00000000e+00 0.00000000e+00
 0.00000000e+00 0.00000000e+00 3.30145479e-08 4.27298293e-08
 0.00000000e+00 0.00000000e+00 0.00000000e+00 1.45669075e-06]","[[-2.00646169e-03 -5.05878730e-05]
 [-7.42412026e-04 -3.63681125e-04]]",[],0.0,0.0
1787133268.7395363,0.2259535392352952,-1.0676267665691583,0.3608147081568572,"[7.84127294e-07 1.87063630e-07 0.00000000e+00 0.00000000e+00
 0.00000000e+00 3.30145479e-08 1.87063630e-07 3.72078262e-07
 0.00000000e+00 0.00000000e+00 0.00000000e+00 4.27298293e-08
 0.00000000e+00 0.00000000e+00 0.00000000e+00 0.00000000e+00
 0.00000000e+00 0.00000000e+00 0.00000000e+00 0.00000000e+00
 0.00000000e+00 0.00000000e+00 0.00000000e+00 0.00000000e+00
 0.00000000e+00 0.00000000e+00 0.00000000e+00 0.00000000e+00
 0.00000000e+00 0.00000000e+00 3.30145479e-08 4.27298293e-08
 0.00000000e+00 0.00000000e+00 0.00000000e+00 1.45669075e-06]","[[-2.00646169e-03 -5.05878730e-05]
 [-7.42412026e-04 -3.63681125e-04]]",[],0.0,0.0
1787133268.788532,0.2259535392352952,-1.0676267665691583,0.3608147081568572,"[7.84127294e-07 1.87063630e-07 0.00000000e+00 0.00000000e+00
 0.00000000e+00 3.30145479e-08 1.87063630e-07 3.72078262e-07
 0.00000000e+00 0.00000000e+00 0.00000000e+00 4.27298293e-08
 0.00000000e+00 0.00000000e+00 0.00000000e+00 0.00000000e+00
 0.00000000e+00 0.00000000e+00 0.00000000e+00 0.00000000e+00
 0.00000000e+00 0.00000000e+00 0.00000000e+00 0.00000000e+00
 0.00000000e+00 0.00000000e+00 0.00000000e+00 0.00000000e+00
 0.00000000e+00 0.00000000e+00 3.30145479e-08 4.27298293e-08
 0.00000000e+00 0.00000000e+00 0.00000000e+00 1.45669075e-06]","[[-2.00646169e-03 -5.05878730e-05]
 [-7.42412026e-04 -3.63681125e-04]]",[],0.0,0.0
1787133268.8386858,0.2259535392352952,-1.0676267665691583,0.3608147081568572,"[7.84127294e-07 1.87063630e-07 0.00000000e+00 0.00000000e+00
 0.00000000e+00 3.30145479e-08 1.87063630e-07 3.72078262e-07
 0.00000000e+00 0.00000000e+00 0.00000000e+00 4.27298293e-08
 0.00000000e+00 0.00000000e+00 0.00000000e+00 0.00000000e+00
 0.00000000e+00 0.00000000e+00 0.00000000e+00 0.00000000e+00
 0.00000000e+00 0.00000000e+00 0.00000000e+00 0.00000000e+00
 0.00000000e+00 0.00000000e+00 0.00000000e+00 0.00000000e+00
 0.00000000e+00 0.00000000e+00 3.30145479e-08 4.27298293e-08
 0.00000000e+00 0.00000000e+00 0.00000000e+00 1.45669075e-06]","[[-2.00646169e-03 -5.05878730e-05]
 [-7.42412026e-04 -3.63681125e-04]]",[],0.0,0.0
1787133268.8919516,0.2259535392352952,-1.0676267665691583,0.3608147081568572,"[7.84127294e-07 1.87063630e-07 0.00000000e+00 0.00000000e+00
 0.00000000e+00 3.30145479e-08 1.87063630e-07 3.72078262e-07
 0.00000000e+00 0.00000000e+00 0.00000000e+00 4.27298293e-08
 0.00000000e+00 0.00000000e+00 0.00000000e+00 0.00000000e+00
 0.00000000e+00 0.00000000e+00 0.00000000e+00 0.00000000e+00
 0.00000000e+00 0.00000000e+00 0.00000000e+00 0.00000000e+00
 0.00000000e+00 0.00000000e+00 0.00000000e+00 0.00000000e+00
 0.00000000e+00 0.00000000e+00 3.30145479e-08 4.27298293e-08
 0.00000000e+00 0.00000000e+00 0.00000000e+00 1.45669075e-06]","[[-2.00646169e-03 -5.05878730e-05]
 [-7.42412026e-04 -3.63681125e-04]]",[],0.0,0.0
1787133268.9386442,0.2259535392352952,-1.0676267665691583,0.3608147081568572,"[7.84127294e-07 1.87063630e-07 0.00000000e+00 0.00000000e+00
 0.00000000e+00 3.30145479e-08 1.87063630e-07 3.72078262e-07
 0.00000000e+00 0.00000000e+00 0.00000000e+00 4.27298293e-08
 0.00000000e+00 0.00000000e+00 0.00000000e+00 0.00000000e+00
 0.00000000e+00 0.00000000e+00 0.00000000e+00 0.00000000e+00
 0.00000000e+00 0.00000000e+00 0.00000000e+00 0.00000000e+00
 0.00000000e+00 0.00000000e+00 0.00000000e+00 0.00000000e+00
 0.00000000e+00 0.00000000e+00 3.30145479e-08 4.27298293e-08
 0.00000000e+00 0.00000000e+00 0.00000000e+00 1.45669075e-06]","[[-2.00646169e-03 -5.05878730e-05]
 [-7.42412026e-04 -3.63681125e-04]]",[],0.0,0.0
1787133268.9889238,0.2259535392352952,-1.0676267665691583,0.3608147081568572,"[7.84127294e-07 1.87063630e-07 0.00000000e+00 0.00000000e+00
 0.00000000e+00 3.30145479e-08 1.87063630e-07 3.72078262e-07
 0.00000000e+00 0.00000000e+00 0.00000000e+00 4.27298293e-08
 0.00000000e+00 0.00000000e+00 0.00000000e+00 0.00000000e+00
 0.00000000e+00 0.00000000e+00 0.00000000e+00 0.00000000e+00
 0.00000000e+00 0.00000000e+00 0.00000000e+00 0.00000000e+00
 0.00000000e+00 0.00000000e+00 0.00000000e+00 0.00000000e+00
 0.00000000e+00 0.00000000e+00 3.30145479e-08 4.27298293e-08
 0.00000000e+00 0.00000000e+00 0.00000000e+00 1.45669075e-06]","[[-2.00646169e-03 -5.05878730e-05]
 [-7.42412026e-04 -3.63681125e-04]]",[],0.0,0.0
1787133269.0767865,0.2259535392352952,-1.0676267665691583,0.3608147081568572,"[7.84127294e-07 1.87063630e-07 0.00000000e+00 0.00000000e+00
 0.00000000e+00 3.30145479e-08 1.87063630e-07 3.72078262e-07
 0.00000000e+00 0.00000000e+00 0.00000000e+00 4.27298293e-08
 0.00000000e+00 0.00000000e+00 0.00000000e+00 0.00000000e+00
 0.00000000e+00 0.00000000e+00 0.00000000e+00 0.00000000e+00
 0.00000000e+00 0.00000000e+00 0.00000000e+00 0.00000000e+00
 0.00000000e+00 0.00000000e+00 0.00000000e+00 0.00000000e+00
 0.00000000e+00 0.00000000e+00 3.30145479e-08 4.27298293e-08
 0.00000000e+00 0.00000000e+00 0.00000000e+00 1.45669075e-06]","[[-2.00646169e-03 -5.05878730e-05]
 [-7.42412026e-04 -3.63681125e-04]]",[],0.0,0.0
1787133269.1177757,0.2259535392352952,-1.0676267665691583,0.3608147081568572,"[7.84127294e-07 1.87063630e-07 0.00000000e+00 0.00000000e+00
 0.00000000e+00 3.30145479e-08 1.87063630e-07 3.72078262e-07
 0.00000000e+00 0.00000000e+00 0.00000000e+00 4.27298293e-08
 0.00000000e+00 0.00000000e+00 0.00000000e+00 0.00000000e+00
 0.00000000e+00 0.00000000e+00 0.00000000e+00 0.00000000e+00
 0.00000000e+00 0.00000000e+00 0.00000000e+00 0.00000000e+00
 0.00000000e+00 0.00000000e+00 0.00000000e+00 0.00000000e+00
 0.00000000e+00 0.00000000e+00 3.30145479e-08 4.27298293e-08
 0.00000000e+00 0.00000000e+00 0.00000000e+00 1.45669075e-06]","[[-2.00646169e-03 -5.05878730e-05]
 [-7.42412026e-04 -3.63681125e-04]]",[],0.0,0.0
1787133269.1400433,0.2259535392352952,-1.0676267665691583,0.3608147081568572,"[7.84127294e-07 1.87063630e-07 0.00000000e+00 0.00000000e+00
 0.00000000e+00 3.30145479e-08 1.87063630e-07 3.72078262e-07
 0.00000000e+00 0.00000000e+00 0.00000000e+00 4.27298293e-08
 0.00000000e+00 0.00000000e+00 0.00000000e+00 0.00000000e+00
 0.00000000e+00 0.00000000e+00 0.00000000e+00 0.00000000e+00
 0.00000000e+00 0.00000000e+00 0.00000000e+00 0.00000000e+00
 0.00000000e+00 0.00000000e+00 0.00000000e+00 0.00000000e+00
 0.00000000e+00 0.00000000e+00 3.30145479e-08 4.27298293e-08
 0.00000000e+00 0.00000000e+00 0.00000000e+00 1.45669075e-06]","[[-2.00646169e-03 -5.05878730e-05]
 [-7.42412026e-04 -3.63681125e-04]]",[],0.0,0.0
1787133269.2156909,0.2259535392352952,-1.0676267665691583,0.3608147081568572,"[7.84127294e-07 1.87063630e-07 0.00000000e+00 0.00000000e+00
 0.00000000e+00 3.30145479e-08 1.87063630e-07 3.72078262e-07
 0.00000000e+00 0.00000000e+00 0.00000000e+00 4.27298293e-08
 0.00000000e+00 0.00000000e+00 0.00000000e+00 0.00000000e+00
 0.00000000e+00 0.00000000e+00 0.00000000e+00 0.00000000e+00
 0.00000000e+00 0.00000000e+00 0.00000000e+00 0.00000000e+00
 0.00000000e+00 0.00000000e+00 0.00000000e+00 0.00000000e+00
 0.00000000e+00 0.00000000e+00 3.30145479e-08 4.27298293e-08
 0.00000000e+00 0.00000000e+00 0.00000000e+00 1.45669075e-06]","[[-2.00646169e-03 -5.05878730e-05]
 [-7.42412026e-04 -3.63681125e-04]]",[],0.0,0.0
1787133269.2635393,0.2259535392352952,-1.0676267665691583,0.3608147081568572,"[7.84127294e-07 1.87063630e-07 0.00000000e+00 0.00000000e+00
 0.00000000e+00 3.30145479e-08 1.87063630e-07 3.72078262e-07
 0.00000000e+00 0.00000000e+00 0.00000000e+00 4.27298293e-08
 0.00000000e+00 0.00000000e+00 0.00000000e+00 0.00000000e+00
 0.00000000e+00 0.00000000e+00 0.00000000e+00 0.00000000e+00
 0.00000000e+00 0.00000000e+00 0.00000000e+00 0.00000000e+00
 0.00000000e+00 0.00000000e+00 0.00000000e+00 0.00000000e+00
 0.00000000e+00 0.00000000e+00 3.30145479e-08 4.27298293e-08
 0.00000000e+00 0.00000000e+00 0.00000000e+00 1.45669075e-06]","[[-2.00646169e-03 -5.05878730e-05]
 [-7.42412026e-04 -3.63681125e-04]]",[],0.0,0.0
1787133269.288859,0.22447185893119048,-1.0666752828729504,0.3670475946841436,"[8.50566199e-07 2.20901917e-07 0.00000000e+00 0.00000000e+00
 0.00000000e+00 4.44531661e-08 2.20901917e-07 3.59958924e-07
 0.00000000e+00 0.00000000e+00 0.00000000e+00 4.31519793e-08
 0.00000000e+00 0.00000000e+00 0.00000000e+00 0.00000000e+00
 0.00000000e+00 0.00000000e+00 0.00000000e+00 0.00000000e+00
 0.00000000e+00 0.00000000e+00 0.00000000e+00 0.00000000e+00
 0.00000000e+00 0.00000000e+00 0.00000000e+00 0.00000000e+00
 0.00000000e+00 0.00000000e+00 4.44531661e-08 4.31519793e-08
 0.00000000e+00 0.00000000e+00 0.00000000e+00 1.53358706e-06]","[[-0.00219219 -0.00010164]
 [-0.0008073  -0.00034999]]",[],0.0,0.0
1787133269.3390088,0.22447185893119048,-1.0666752828729504,0.3670475946841436,"[8.50566199e-07 2.20901917e-07 0.00000000e+00 0.00000000e+00
 0.00000000e+00 4.44531661e-08 2.20901917e-07 3.59958924e-07
 0.00000000e+00 0.00000000e+00 0.00000000e+00 4.31519793e-08
 0.00000000e+00 0.00000000e+00 0.00000000e+00 0.00000000e+00
 0.00000000e+00 0.00000000e+00 0.00000000e+00 0.00000000e+00
 0.00000000e+00 0.00000000e+00 0.00000000e+00 0.00000000e+00
 0.00000000e+00 0.00000000e+00 0.00000000e+00 0.00000000e+00
 0.00000000e+00 0.00000000e+00 4.44531661e-08 4.31519793e-08
 0.00000000e+00 0.00000000e+00 0.00000000e+00 1.53358706e-06]","[[-0.00219219 -0.00010164]
 [-0.0008073  -0.00034999]]",[],0.0,0.0
1787133269.388697,0.22447185893119048,-1.0666752828729504,0.3670475946841436,"[8.50566199e-07 2.20901917e-07 0.00000000e+00 0.00000000e+00
 0.00000000e+00 4.44531661e-08 2.20901917e-07 3.59958924e-07
 0.00000000e+00 0.00000000e+00 0.00000000e+00 4.31519793e-08
 0.00000000e+00 0.00000000e+00 0.00000000e+00 0.00000000e+00
 0.00000000e+00 0.00000000e+00 0.00000000e+00 0.00000000e+00
 0.00000000e+00 0.00000000e+00 0.00000000e+00 0.00000000e+00
 0.00000000e+00 0.00000000e+00 0.00000000e+00 0.00000000e+00
 0.00000000e+00 0.00000000e+00 4.44531661e-08 4.31519793e-08
 0.00000000e+00 0.00000000e+00 0.00000000e+00 1.53358706e-06]","[[-0.00219219 -0.00010164]
 [-0.0008073  -0.00034999]]",[],0.0,0.0
1787133269.4397259,0.22447185893119048,-1.0666752828729504,0.3670475946841436,"[8.50566199e-07 2.20901917e-07 0.00000000e+00 0.00000000e+00
 0.00000000e+00 4.44531661e-08 2.20901917e-07 3.59958924e-07
 0.00000000e+00 0.00000000e+00 0.00000000e+00 4.31519793e-08
 0.00000000e+00 0.00000000e+00 0.00000000e+00 0.00000000e+00
 0.00000000e+00 0.00000000e+00 0.00000000e+00 0.00000000e+00
 0.00000000e+00 0.00000000e+00 0.00000000e+00 0.00000000e+00
 0.00000000e+00 0.00000000e+00 0.00000000e+00 0.00000000e+00
 0.00000000e+00 0.00000000e+00 4.44531661e-08 4.31519793e-08
 0.00000000e+00 0.00000000e+00 0.00000000e+00 1.53358706e-06]","[[-0.00219219 -0.00010164]
 [-0.0008073  -0.00034999]]",[],0.0,0.0
1787133269.4907172,0.22447185893119048,-1.0666752828729504,0.3670475946841436,"[8.50566199e-07 2.20901917e-07 0.00000000e+00 0.00000000e+00
 0.00000000e+00 4.44531661e-08 2.20901917e-07 3.59958924e-07
 0.00000000e+00 0.00000000e+00 0.00000000e+00 4.31519793e-08
 0.00000000e+00 0.00000000e+00 0.00000000e+00 0.00000000e+00
 0.00000000e+00 0.00000000e+00 0.00000000e+00 0.00000000e+00
 0.00000000e+00 0.00000000e+00 0.00000000e+00 0.00000000e+00
 0.00000000e+00 0.00000000e+00 0.00000000e+00 0.00000000e+00
 0.00000000e+00 0.00000000e+00 4.44531661e-08 4.31519793e-08
 0.00000000e+00 0.00000000e+00 0.00000000e+00 1.53358706e-06]","[[-0.00219219 -0.00010164]
 [-0.0008073  -0.00034999]]",[],0.0,0.0
1787133269.5384057,0.22447185893119048,-1.0666752828729504,0.3670475946841436,"[8.50566199e-07 2.20901917e-07 0.00000000e+00 0.00000000e+00
 0.00000000e+00 4.44531661e-08 2.20901917e-07 3.59958924e-07
 0.00000000e+00 0.00000000e+00 0.00000000e+00 4.31519793e-08
 0.00000000e+00 0.00000000e+00 0.00000000e+00 0.00000000e+00
 0.00000000e+00 0.00000000e+00 0.00000000e+00 0.00000000e+00
 0.00000000e+00 0.00000000e+00 0.00000000e+00 0.00000000e+00
 0.00000000e+00 0.00000000e+00 0.00000000e+00 0.00000000e+00
 0.00000000e+00 0.00000000e+00 4.44531661e-08 4.31519793e-08
 0.00000000e+00 0.00000000e+00 0.00000000e+00 1.53358706e-06]","[[-0.00219219 -0.00010164]
 [-0.0008073  -0.00034999]]",[],0.0,0.0
1787133269.5886183,0.22447185893119048,-1.0666752828729504,0.3670475946841436,"[8.50566199e-07 2.20901917e-07 0.00000000e+00 0.00000000e+00
 0.00000000e+00 4.44531661e-08 2.20901917e-07 3.59958924e-07
 0.00000000e+00 0.00000000e+00 0.00000000e+00 4.31519793e-08
 0.00000000e+00 0.00000000e+00 0.00000000e+00 0.00000000e+00
 0.00000000e+00 0.00000000e+00 0.00000000e+00 0.00000000e+00
 0.00000000e+00 0.00000000e+00 0.00000000e+00 0.00000000e+00
 0.00000000e+00 0.00000000e+00 0.00000000e+00 0.00000000e+00
 0.00000000e+00 0.00000000e+00 4.44531661e-08 4.31519793e-08
 0.00000000e+00 0.00000000e+00 0.00000000e+00 1.53358706e-06]","[[-0.00219219 -0.00010164]
 [-0.0008073  -0.00034999]]",[],0.0,0.0
1787133269.6388113,0.22447185893119048,-1.0666752828729504,0.3670475946841436,"[8.50566199e-07 2.20901917e-07 0.00000000e+00 0.00000000e+00
 0.00000000e+00 4.44531661e-08 2.20901917e-07 3.59958924e-07
 0.00000000e+00 0.00000000e+00 0.00000000e+00 4.31519793e-08
 0.00000000e+00 0.00000000e+00 0.00000000e+00 0.00000000e+00
 0.00000000e+00 0.00000000e+00 0.00000000e+00 0.00000000e+00
 0.00000000e+00 0.00000000e+00 0.00000000e+00 0.00000000e+00
 0.00000000e+00 0.00000000e+00 0.00000000e+00 0.00000000e+00
 0.00000000e+00 0.00000000e+00 4.44531661e-08 4.31519793e-08
 0.00000000e+00 0.00000000e+00 0.00000000e+00 1.53358706e-06]","[[-0.00219219 -0.00010164]
 [-0.0008073  -0.00034999]]",[],0.0,0.0
1787133269.688384,0.22447185893119048,-1.0666752828729504,0.3670475946841436,"[8.50566199e-07 2.20901917e-07 0.00000000e+00 0.00000000e+00
 0.00000000e+00 4.44531661e-08 2.20901917e-07 3.59958924e-07
 0.00000000e+00 0.00000000e+00 0.00000000e+00 4.31519793e-08
 0.00000000e+00 0.00000000e+00 0.00000000e+00 0.00000000e+00
 0.00000000e+00 0.00000000e+00 0.00000000e+00 0.00000000e+00
 0.00000000e+00 0.00000000e+00 0.00000000e+00 0.00000000e+00
 0.00000000e+00 0.00000000e+00 0.00000000e+00 0.00000000e+00
 0.00000000e+00 0.00000000e+00 4.44531661e-08 4.31519793e-08
 0.00000000e+00 0.00000000e+00 0.00000000e+00 1.53358706e-06]","[[-0.00219219 -0.00010164]
 [-0.0008073  -0.00034999]]",[],0.0,0.0
1787133269.741058,0.22447185893119048,-1.0666752828729504,0.3670475946841436,"[8.50566199e-07 2.20901917e-07 0.00000000e+00 0.00000000e+00
 0.00000000e+00 4.44531661e-08 2.20901917e-07 3.59958924e-07
 0.00000000e+00 0.00000000e+00 0.00000000e+00 4.31519793e-08
 0.00000000e+00 0.00000000e+00 0.00000000e+00 0.00000000e+00
 0.00000000e+00 0.00000000e+00 0.00000000e+00 0.00000000e+00
 0.00000000e+00 0.00000000e+00 0.00000000e+00 0.00000000e+00
 0.00000000e+00 0.00000000e+00 0.00000000e+00 0.00000000e+00
 0.00000000e+00 0.00000000e+00 4.44531661e-08 4.31519793e-08
 0.00000000e+00 0.00000000e+00 0.00000000e+00 1.53358706e-06]","[[-0.00219219 -0.00010164]
 [-0.0008073  -0.00034999]]",[],0.0,0.0
1787133269.7919884,0.22447185893119048,-1.0666752828729504,0.3670475946841436,"[8.50566199e-07 2.20901917e-07 0.00000000e+00 0.00000000e+00
 0.00000000e+00 4.44531661e-08 2.20901917e-07 3.59958924e-07
 0.00000000e+00 0.00000000e+00 0.00000000e+00 4.31519793e-08
 0.00000000e+00 0.00000000e+00 0.00000000e+00 0.00000000e+00
 0.00000000e+00 0.00000000e+00 0.00000000e+00 0.00000000e+00
 0.00000000e+00 0.00000000e+00 0.00000000e+00 0.00000000e+00
 0.00000000e+00 0.00000000e+00 0.00000000e+00 0.00000000e+00
 0.00000000e+00 0.00000000e+00 4.44531661e-08 4.31519793e-08
 0.00000000e+00 0.00000000e+00 0.00000000e+00 1.53358706e-06]","[[-0.00219219 -0.00010164]
 [-0.0008073  -0.00034999]]",[],0.0,0.0
1787133269.8386867,0.22447185893119048,-1.0666752828729504,0.3670475946841436,"[8.50566199e-07 2.20901917e-07 0.00000000e+00 0.00000000e+00
 0.00000000e+00 4.44531661e-08 2.20901917e-07 3.59958924e-07
 0.00000000e+00 0.00000000e+00 0.00000000e+00 4.31519793e-08
 0.00000000e+00 0.00000000e+00 0.00000000e+00 0.00000000e+00
 0.00000000e+00 0.00000000e+00 0.00000000e+00 0.00000000e+00
 0.00000000e+00 0.00000000e+00 0.00000000e+00 0.00000000e+00
 0.00000000e+00 0.00000000e+00 0.00000000e+00 0.00000000e+00
 0.00000000e+00 0.00000000e+00 4.44531661e-08 4.31519793e-08
 0.00000000e+00 0.00000000e+00 0.00000000e+00 1.53358706e-06]","[[-0.00219219 -0.00010164]
 [-0.0008073  -0.00034999]]",[],0.0,0.0
1787133269.8925793,0.22447185893119048,-1.0666752828729504,0.3670475946841436,"[8.50566199e-07 2.20901917e-07 0.00000000e+00 0.00000000e+00
 0.00000000e+00 4.44531661e-08 2.20901917e-07 3.59958924e-07
 0.00000000e+00 0.00000000e+00 0.00000000e+00 4.31519793e-08
 0.00000000e+00 0.00000000e+00 0.00000000e+00 0.00000000e+00
 0.00000000e+00 0.00000000e+00 0.00000000e+00 0.00000000e+00
 0.00000000e+00 0.00000000e+00 0.00000000e+00 0.00000000e+00
 0.00000000e+00 0.00000000e+00 0.00000000e+00 0.00000000e+00
 0.00000000e+00 0.00000000e+00 4.44531661e-08 4.31519793e-08
 0.00000000e+00 0.00000000e+00 0.00000000e+00 1.53358706e-06]","[[-0.00219219 -0.00010164]
 [-0.0008073  -0.00034999]]",[],0.0,0.0
1787133269.938984,0.22447185893119048,-1.0666752828729504,0.3670475946841436,"[8.50566199e-07 2.20901917e-07 0.00000000e+00 0.00000000e+00
 0.00000000e+00 4.44531661e-08 2.20901917e-07 3.59958924e-07
 0.00000000e+00 0.00000000e+00 0.00000000e+00 4.31519793e-08
 0.00000000e+00 0.00000000e+00 0.00000000e+00 0.00000000e+00
 0.00000000e+00 0.00000000e+00 0.00000000e+00 0.00000000e+00
 0.00000000e+00 0.00000000e+00 0.00000000e+00 0.00000000e+00
 0.00000000e+00 0.00000000e+00 0.00000000e+00 0.00000000e+00
 0.00000000e+00 0.00000000e+00 4.44531661e-08 4.31519793e-08
 0.00000000e+00 0.00000000e+00 0.00000000e+00 1.53358706e-06]","[[-0.00219219 -0.00010164]
 [-0.0008073  -0.00034999]]",[],0.0,0.0
1787133269.9891372,0.22447185893119048,-1.0666752828729504,0.3670475946841436,"[8.50566199e-07 2.20901917e-07 0.00000000e+00 0.00000000e+00
 0.00000000e+00 4.44531661e-08 2.20901917e-07 3.59958924e-07
 0.00000000e+00 0.00000000e+00 0.00000000e+00 4.31519793e-08
 0.00000000e+00 0.00000000e+00 0.00000000e+00 0.00000000e+00
 0.00000000e+00 0.00000000e+00 0.00000000e+00 0.00000000e+00
 0.00000000e+00 0.00000000e+00 0.00000000e+00 0.00000000e+00
 0.00000000e+00 0.00000000e+00 0.00000000e+00 0.00000000e+00
 0.00000000e+00 0.00000000e+00 4.44531661e-08 4.31519793e-08
 0.00000000e+00 0.00000000e+00 0.00000000e+00 1.53358706e-06]","[[-0.00219219 -0.00010164]
 [-0.0008073  -0.00034999]]",[],0.0,0.0
1787133270.0388424,0.22447185893119048,-1.0666752828729504,0.3670475946841436,"[8.50566199e-07 2.20901917e-07 0.00000000e+00 0.00000000e+00
 0.00000000e+00 4.44531661e-08 2.20901917e-07 3.59958924e-07
 0.00000000e+00 0.00000000e+00 0.00000000e+00 4.31519793e-08
 0.00000000e+00 0.00000000e+00 0.00000000e+00 0.00000000e+00
 0.00000000e+00 0.00000000e+00 0.00000000e+00 0.00000000e+00
 0.00000000e+00 0.00000000e+00 0.00000000e+00 0.00000000e+00
 0.00000000e+00 0.00000000e+00 0.00000000e+00 0.00000000e+00
 0.00000000e+00 0.00000000e+00 4.44531661e-08 4.31519793e-08
 0.00000000e+00 0.00000000e+00 0.00000000e+00 1.53358706e-06]","[[-0.00219219 -0.00010164]
 [-0.0008073  -0.00034999]]",[],0.0,0.0
1787133270.0952337,0.22447185893119048,-1.0666752828729504,0.3670475946841436,"[8.50566199e-07 2.20901917e-07 0.00000000e+00 0.00000000e+00
 0.00000000e+00 4.44531661e-08 2.20901917e-07 3.59958924e-07
 0.00000000e+00 0.00000000e+00 0.00000000e+00 4.31519793e-08
 0.00000000e+00 0.00000000e+00 0.00000000e+00 0.00000000e+00
 0.00000000e+00 0.00000000e+00 0.00000000e+00 0.00000000e+00
 0.00000000e+00 0.00000000e+00 0.00000000e+00 0.00000000e+00
 0.00000000e+00 0.00000000e+00 0.00000000e+00 0.00000000e+00
 0.00000000e+00 0.00000000e+00 4.44531661e-08 4.31519793e-08
 0.00000000e+00 0.00000000e+00 0.00000000e+00 1.53358706e-06]","[[-0.00219219 -0.00010164]
 [-0.0008073  -0.00034999]]",[],0.0,0.0
1787133270.1389554,0.22447185893119048,-1.0666752828729504,0.3670475946841436,"[8.50566199e-07 2.20901917e-07 0.00000000e+00 0.00000000e+00
 0.00000000e+00 4.44531661e-08 2.20901917e-07 3.59958924e-07
 0.00000000e+00 0.00000000e+00 0.00000000e+00 4.31519793e-08
 0.00000000e+00 0.00000000e+00 0.00000000e+00 0.00000000e+00
 0.00000000e+00 0.00000000e+00 0.00000000e+00 0.00000000e+00
 0.00000000e+00 0.00000000e+00 0.00000000e+00 0.00000000e+00
 0.00000000e+00 0.00000000e+00 0.00000000e+00 0.00000000e+00
 0.00000000e+00 0.00000000e+00 4.44531661e-08 4.31519793e-08
 0.00000000e+00 0.00000000e+00 0.00000000e+00 1.53358706e-06]","[[-0.00219219 -0.00010164]
 [-0.0008073  -0.00034999]]",[],0.0,0.0
1787133270.1923969,0.22447185893119048,-1.0666752828729504,0.3670475946841436,"[8.50566199e-07 2.20901917e-07 0.00000000e+00 0.00000000e+00
 0.00000000e+00 4.44531661e-08 2.20901917e-07 3.59958924e-07
 0.00000000e+00 0.00000000e+00 0.00000000e+00 4.31519793e-08
 0.00000000e+00 0.00000000e+00 0.00000000e+00 0.00000000e+00
 0.00000000e+00 0.00000000e+00 0.00000000e+00 0.00000000e+00
 0.00000000e+00 0.00000000e+00 0.00000000e+00 0.00000000e+00
 0.00000000e+00 0.00000000e+00 0.00000000e+00 0.00000000e+00
 0.00000000e+00 0.00000000e+00 4.44531661e-08 4.31519793e-08
 0.00000000e+00 0.00000000e+00 0.00000000e+00 1.53358706e-06]","[[-0.00219219 -0.00010164]
 [-0.0008073  -0.00034999]]",[],0.0,0.0
1787133270.238282,0.22447185893119048,-1.0666752828729504,0.3670475946841436,"[8.50566199e-07 2.20901917e-07 0.00000000e+00 0.00000000e+00
 0.00000000e+00 4.44531661e-08 2.20901917e-07 3.59958924e-07
 0.00000000e+00 0.00000000e+00 0.00000000e+00 4.31519793e-08
 0.00000000e+00 0.00000000e+00 0.00000000e+00 0.00000000e+00
 0.00000000e+00 0.00000000e+00 0.00000000e+00 0.00000000e+00
 0.00000000e+00 0.00000000e+00 0.00000000e+00 0.00000000e+00
 0.00000000e+00 0.00000000e+00 0.00000000e+00 0.00000000e+00
 0.00000000e+00 0.00000000e+00 4.44531661e-08 4.31519793e-08
 0.00000000e+00 0.00000000e+00 0.00000000e+00 1.53358706e-06]","[[-0.00219219 -0.00010164]
 [-0.0008073  -0.00034999]]",[],0.0,0.0
1787133270.2888377,0.22447185893119048,-1.0666752828729504,0.3670475946841436,"[8.50566199e-07 2.20901917e-07 0.00000000e+00 0.00000000e+00
 0.00000000e+00 4.44531661e-08 2.20901917e-07 3.59958924e-07
 0.00000000e+00 0.00000000e+00 0.00000000e+00 4.31519793e-08
 0.00000000e+00 0.00000000e+00 0.00000000e+00 0.00000000e+00
 0.00000000e+00 0.00000000e+00 0.00000000e+00 0.00000000e+00
 0.00000000e+00 0.00000000e+00 0.00000000e+00 0.00000000e+00
 0.00000000e+00 0.00000000e+00 0.00000000e+00 0.00000000e+00
 0.00000000e+00 0.00000000e+00 4.44531661e-08 4.31519793e-08
 0.00000000e+00 0.00000000e+00 0.00000000e+00 1.53358706e-06]","[[-0.00219219 -0.00010164]
 [-0.0008073  -0.00034999]]",[],0.0,0.0
1787133270.338471,0.22447185893119048,-1.0666752828729504,0.3670475946841436,"[8.50566199e-07 2.20901917e-07 0.00000000e+00 0.00000000e+00
 0.00000000e+00 4.44531661e-08 2.20901917e-07 3.59958924e-07
 0.00000000e+00 0.00000000e+00 0.00000000e+00 4.31519793e-08
 0.00000000e+00 0.00000000e+00 0.00000000e+00 0.00000000e+00
 0.00000000e+00 0.00000000e+00 0.00000000e+00 0.00000000e+00
 0.00000000e+00 0.00000000e+00 0.00000000e+00 0.00000000e+00
 0.00000000e+00 0.00000000e+00 0.00000000e+00 0.00000000e+00
 0.00000000e+00 0.00000000e+00 4.44531661e-08 4.31519793e-08
 0.00000000e+00 0.00000000e+00 0.00000000e+00 1.53358706e-06]","[[-0.00219219 -0.00010164]
 [-0.0008073  -0.00034999]]",[],0.0,0.0
1787133270.3885217,0.22447185893119048,-1.0666752828729504,0.3670475946841436,"[8.50566199e-07 2.20901917e-07 0.00000000e+00 0.00000000e+00
 0.00000000e+00 4.44531661e-08 2.20901917e-07 3.59958924e-07
 0.00000000e+00 0.00000000e+00 0.00000000e+00 4.31519793e-08
 0.00000000e+00 0.00000000e+00 0.00000000e+00 0.00000000e+00
 0.00000000e+00 0.00000000e+00 0.00000000e+00 0.00000000e+00
 0.00000000e+00 0.00000000e+00 0.00000000e+00 0.00000000e+00
 0.00000000e+00 0.00000000e+00 0.00000000e+00 0.00000000e+00
 0.00000000e+00 0.00000000e+00 4.44531661e-08 4.31519793e-08
 0.00000000e+00 0.00000000e+00 0.00000000e+00 1.53358706e-06]","[[-0.00219219 -0.00010164]
 [-0.0008073  -0.00034999]]",[],0.0,0.0
1787133270.4388068,0.22447185893119048,-1.0666752828729504,0.3670475946841436,"[8.50566199e-07 2.20901917e-07 0.00000000e+00 0.00000000e+00
 0.00000000e+00 4.44531661e-08 2.20901917e-07 3.59958924e-07
 0.00000000e+00 0.00000000e+00 0.00000000e+00 4.31519793e-08
 0.00000000e+00 0.00000000e+00 0.00000000e+00 0.00000000e+00
 0.00000000e+00 0.00000000e+00 0.00000000e+00 0.00000000e+00
 0.00000000e+00 0.00000000e+00 0.00000000e+00 0.00000000e+00
 0.00000000e+00 0.00000000e+00 0.00000000e+00 0.00000000e+00
 0.00000000e+00 0.00000000e+00 4.44531661e-08 4.31519793e-08
 0.00000000e+00 0.00000000e+00 0.00000000e+00 1.53358706e-06]","[[-0.00219219 -0.00010164]
 [-0.0008073  -0.00034999]]",[],0.0,0.0
1787133270.4895234,0.22447185893119048,-1.0666752828729504,0.3670475946841436,"[8.50566199e-07 2.20901917e-07 0.00000000e+00 0.00000000e+00
 0.00000000e+00 4.44531661e-08 2.20901917e-07 3.59958924e-07
 0.00000000e+00 0.00000000e+00 0.00000000e+00 4.31519793e-08
 0.00000000e+00 0.00000000e+00 0.00000000e+00 0.00000000e+00
 0.00000000e+00 0.00000000e+00 0.00000000e+00 0.00000000e+00
 0.00000000e+00 0.00000000e+00 0.00000000e+00 0.00000000e+00
 0.00000000e+00 0.00000000e+00 0.00000000e+00 0.00000000e+00
 0.00000000e+00 0.00000000e+00 4.44531661e-08 4.31519793e-08
 0.00000000e+00 0.00000000e+00 0.00000000e+00 1.53358706e-06]","[[-0.00219219 -0.00010164]
 [-0.0008073  -0.00034999]]",[],0.0,0.0
1787133270.5397046,0.22170761508969683,-1.0660992971185357,0.3624106996473531,"[9.45007143e-07 2.66066120e-07 0.00000000e+00 0.00000000e+00
 0.00000000e+00 5.08811612e-08 2.66066120e-07 3.56746131e-07
 0.00000000e+00 0.00000000e+00 0.00000000e+00 4.03081218e-08
 0.00000000e+00 0.00000000e+00 0.00000000e+00 0.00000000e+00
 0.00000000e+00 0.00000000e+00 0.00000000e+00 0.00000000e+00
 0.00000000e+00 0.00000000e+00 0.00000000e+00 0.00000000e+00
 0.00000000e+00 0.00000000e+00 0.00000000e+00 0.00000000e+00
 0.00000000e+00 0.00000000e+00 5.08811612e-08 4.03081218e-08
 0.00000000e+00 0.00000000e+00 0.00000000e+00 1.54821829e-06]","[[-0.00245313 -0.00014314]
 [-0.0009031  -0.00033138]]",[],0.0,0.0
1787133270.5908058,0.22170761508969683,-1.0660992971185357,0.3624106996473531,"[9.45007143e-07 2.66066120e-07 0.00000000e+00 0.00000000e+00
 0.00000000e+00 5.08811612e-08 2.66066120e-07 3.56746131e-07
 0.00000000e+00 0.00000000e+00 0.00000000e+00 4.03081218e-08
 0.00000000e+00 0.00000000e+00 0.00000000e+00 0.00000000e+00
 0.00000000e+00 0.00000000e+00 0.00000000e+00 0.00000000e+00
 0.00000000e+00 0.00000000e+00 0.00000000e+00 0.00000000e+00
 0.00000000e+00 0.00000000e+00 0.00000000e+00 0.00000000e+00
 0.00000000e+00 0.00000000e+00 5.08811612e-08 4.03081218e-08
 0.00000000e+00 0.00000000e+00 0.00000000e+00 1.54821829e-06]","[[-0.00245313 -0.00014314]
 [-0.0009031  -0.00033138]]",[],0.0,0.0
1787133270.6688306,0.22170761508969683,-1.0660992971185357,0.3624106996473531,"[9.45007143e-07 2.66066120e-07 0.00000000e+00 0.00000000e+00
 0.00000000e+00 5.08811612e-08 2.66066120e-07 3.56746131e-07
 0.00000000e+00 0.00000000e+00 0.00000000e+00 4.03081218e-08
 0.00000000e+00 0.00000000e+00 0.00000000e+00 0.00000000e+00
 0.00000000e+00 0.00000000e+00 0.00000000e+00 0.00000000e+00
 0.00000000e+00 0.00000000e+00 0.00000000e+00 0.00000000e+00
 0.00000000e+00 0.00000000e+00 0.00000000e+00 0.00000000e+00
 0.00000000e+00 0.00000000e+00 5.08811612e-08 4.03081218e-08
 0.00000000e+00 0.00000000e+00 0.00000000e+00 1.54821829e-06]","[[-0.00245313 -0.00014314]
 [-0.0009031  -0.00033138]]",[],0.0,0.0
1787133270.7194238,0.22170761508969683,-1.0660992971185357,0.3624106996473531,"[9.45007143e-07 2.66066120e-07 0.00000000e+00 0.00000000e+00
 0.00000000e+00 5.08811612e-08 2.66066120e-07 3.56746131e-07
 0.00000000e+00 0.00000000e+00 0.00000000e+00 4.03081218e-08
 0.00000000e+00 0.00000000e+00 0.00000000e+00 0.00000000e+00
 0.00000000e+00 0.00000000e+00 0.00000000e+00 0.00000000e+00
 0.00000000e+00 0.00000000e+00 0.00000000e+00 0.00000000e+00
 0.00000000e+00 0.00000000e+00 0.00000000e+00 0.00000000e+00
 0.00000000e+00 0.00000000e+00 5.08811612e-08 4.03081218e-08
 0.00000000e+00 0.00000000e+00 0.00000000e+00 1.54821829e-06]","[[-0.00245313 -0.00014314]
 [-0.0009031  -0.00033138]]",[],0.0,0.0
1787133270.7418506,0.22170761508969683,-1.0660992971185357,0.3624106996473531,"[9.45007143e-07 2.66066120e-07 0.00000000e+00 0.00000000e+00
 0.00000000e+00 5.08811612e-08 2.66066120e-07 3.56746131e-07
 0.00000000e+00 0.00000000e+00 0.00000000e+00 4.03081218e-08
 0.00000000e+00 0.00000000e+00 0.00000000e+00 0.00000000e+00
 0.00000000e+00 0.00000000e+00 0.00000000e+00 0.00000000e+00
 0.00000000e+00 0.00000000e+00 0.00000000e+00 0.00000000e+00
