time,x,y,yaw,cov_prop,K_gain,innovation,v_ekf,omega_ekf
1787210419.800458,1.7384846454571032,1.2316905411204533,2.047430973708199,"[ 8.27694265e-05  3.30839728e-06  0.00000000e+00  0.00000000e+00
  0.00000000e+00 -6.30964190e-06  3.30839728e-06  5.27581274e-05
  0.00000000e+00  0.00000000e+00  0.00000000e+00 -1.74123422e-06
  0.00000000e+00  0.00000000e+00  0.00000000e+00  0.00000000e+00
  0.00000000e+00  0.00000000e+00  0.00000000e+00  0.00000000e+00
  0.00000000e+00  0.00000000e+00  0.00000000e+00  0.00000000e+00
  0.00000000e+00  0.00000000e+00  0.00000000e+00  0.00000000e+00
  0.00000000e+00  0.00000000e+00 -6.30964190e-06 -1.74123422e-06
  0.00000000e+00  0.00000000e+00  0.00000000e+00  4.57920070e-06]","[[-0.00077293  0.06981402]
 [-0.00127011 -0.0084043 ]]",[],0.0,0.0
1787210419.8336036,1.7384846454571032,1.2316905411204533,2.047430973708199,"[ 8.27694265e-05  3.30839728e-06  0.00000000e+00  0.00000000e+00
  0.00000000e+00 -6.30964190e-06  3.30839728e-06  5.27581274e-05
  0.00000000e+00  0.00000000e+00  0.00000000e+00 -1.74123422e-06
  0.00000000e+00  0.00000000e+00  0.00000000e+00  0.00000000e+00
  0.00000000e+00  0.00000000e+00  0.00000000e+00  0.00000000e+00
  0.00000000e+00  0.00000000e+00  0.00000000e+00  0.00000000e+00
  0.00000000e+00  0.00000000e+00  0.00000000e+00  0.00000000e+00
  0.00000000e+00  0.00000000e+00 -6.30964190e-06 -1.74123422e-06
  0.00000000e+00  0.00000000e+00  0.00000000e+00  4.57920070e-06]","[[-0.00077293  0.06981402]
 [-0.00127011 -0.0084043 ]]",[],0.0,0.0
1787210419.8840494,1.7384846454571032,1.2316905411204533,2.047430973708199,"[ 8.27694265e-05  3.30839728e-06  0.00000000e+00  0.00000000e+00
  0.00000000e+00 -6.30964190e-06  3.30839728e-06  5.27581274e-05
  0.00000000e+00  0.00000000e+00  0.00000000e+00 -1.74123422e-06
  0.00000000e+00  0.00000000e+00  0.00000000e+00  0.00000000e+00
  0.00000000e+00  0.00000000e+00  0.00000000e+00  0.00000000e+00
  0.00000000e+00  0.00000000e+00  0.00000000e+00  0.00000000e+00
  0.00000000e+00  0.00000000e+00  0.00000000e+00  0.00000000e+00
  0.00000000e+00  0.00000000e+00 -6.30964190e-06 -1.74123422e-06
  0.00000000e+00  0.00000000e+00  0.00000000e+00  4.57920070e-06]","[[-0.00077293  0.06981402]
 [-0.00127011 -0.0084043 ]]",[],0.0,0.0
1787210419.9337099,1.7384846454571032,1.2316905411204533,2.047430973708199,"[ 8.27694265e-05  3.30839728e-06  0.00000000e+00  0.00000000e+00
  0.00000000e+00 -6.30964190e-06  3.30839728e-06  5.27581274e-05
  0.00000000e+00  0.00000000e+00  0.00000000e+00 -1.74123422e-06
  0.00000000e+00  0.00000000e+00  0.00000000e+00  0.00000000e+00
  0.00000000e+00  0.00000000e+00  0.00000000e+00  0.00000000e+00
  0.00000000e+00  0.00000000e+00  0.00000000e+00  0.00000000e+00
  0.00000000e+00  0.00000000e+00  0.00000000e+00  0.00000000e+00
  0.00000000e+00  0.00000000e+00 -6.30964190e-06 -1.74123422e-06
  0.00000000e+00  0.00000000e+00  0.00000000e+00  4.57920070e-06]","[[-0.00077293  0.06981402]
 [-0.00127011 -0.0084043 ]]",[],0.0,0.0
1787210420.0137184,1.7384846454571032,1.2316905411204533,2.047430973708199,"[ 8.27694265e-05  3.30839728e-06  0.00000000e+00  0.00000000e+00
  0.00000000e+00 -6.30964190e-06  3.30839728e-06  5.27581274e-05
  0.00000000e+00  0.00000000e+00  0.00000000e+00 -1.74123422e-06
  0.00000000e+00  0.00000000e+00  0.00000000e+00  0.00000000e+00
  0.00000000e+00  0.00000000e+00  0.00000000e+00  0.00000000e+00
  0.00000000e+00  0.00000000e+00  0.00000000e+00  0.00000000e+00
  0.00000000e+00  0.00000000e+00  0.00000000e+00  0.00000000e+00
  0.00000000e+00  0.00000000e+00 -6.30964190e-06 -1.74123422e-06
  0.00000000e+00  0.00000000e+00  0.00000000e+00  4.57920070e-06]","[[-0.00077293  0.06981402]
 [-0.00127011 -0.0084043 ]]",[],0.0,0.0
1787210420.0407698,1.7384846454571032,1.2316905411204533,2.047430973708199,"[ 8.27694265e-05  3.30839728e-06  0.00000000e+00  0.00000000e+00
  0.00000000e+00 -6.30964190e-06  3.30839728e-06  5.27581274e-05
  0.00000000e+00  0.00000000e+00  0.00000000e+00 -1.74123422e-06
  0.00000000e+00  0.00000000e+00  0.00000000e+00  0.00000000e+00
  0.00000000e+00  0.00000000e+00  0.00000000e+00  0.00000000e+00
  0.00000000e+00  0.00000000e+00  0.00000000e+00  0.00000000e+00
  0.00000000e+00  0.00000000e+00  0.00000000e+00  0.00000000e+00
  0.00000000e+00  0.00000000e+00 -6.30964190e-06 -1.74123422e-06
  0.00000000e+00  0.00000000e+00  0.00000000e+00  4.57920070e-06]","[[-0.00077293  0.06981402]
 [-0.00127011 -0.0084043 ]]",[],0.0,0.0
1787210420.101186,1.7384846454571032,1.2316905411204533,2.047430973708199,"[ 8.27694265e-05  3.30839728e-06  0.00000000e+00  0.00000000e+00
  0.00000000e+00 -6.30964190e-06  3.30839728e-06  5.27581274e-05
  0.00000000e+00  0.00000000e+00  0.00000000e+00 -1.74123422e-06
  0.00000000e+00  0.00000000e+00  0.00000000e+00  0.00000000e+00
  0.00000000e+00  0.00000000e+00  0.00000000e+00  0.00000000e+00
  0.00000000e+00  0.00000000e+00  0.00000000e+00  0.00000000e+00
  0.00000000e+00  0.00000000e+00  0.00000000e+00  0.00000000e+00
  0.00000000e+00  0.00000000e+00 -6.30964190e-06 -1.74123422e-06
  0.00000000e+00  0.00000000e+00  0.00000000e+00  4.57920070e-06]","[[-0.00077293  0.06981402]
 [-0.00127011 -0.0084043 ]]",[],0.0,0.0
1787210420.1337917,1.7384846454571032,1.2316905411204533,2.047430973708199,"[ 8.27694265e-05  3.30839728e-06  0.00000000e+00  0.00000000e+00
  0.00000000e+00 -6.30964190e-06  3.30839728e-06  5.27581274e-05
  0.00000000e+00  0.00000000e+00  0.00000000e+00 -1.74123422e-06
  0.00000000e+00  0.00000000e+00  0.00000000e+00  0.00000000e+00
  0.00000000e+00  0.00000000e+00  0.00000000e+00  0.00000000e+00
  0.00000000e+00  0.00000000e+00  0.00000000e+00  0.00000000e+00
  0.00000000e+00  0.00000000e+00  0.00000000e+00  0.00000000e+00
  0.00000000e+00  0.00000000e+00 -6.30964190e-06 -1.74123422e-06
  0.00000000e+00  0.00000000e+00  0.00000000e+00  4.57920070e-06]","[[-0.00077293  0.06981402]
 [-0.00127011 -0.0084043 ]]",[],0.0,0.0
1787210420.1839345,1.7384846454571032,1.2316905411204533,2.047430973708199,"[ 8.27694265e-05  3.30839728e-06  0.00000000e+00  0.00000000e+00
  0.00000000e+00 -6.30964190e-06  3.30839728e-06  5.27581274e-05
  0.00000000e+00  0.00000000e+00  0.00000000e+00 -1.74123422e-06
  0.00000000e+00  0.00000000e+00  0.00000000e+00  0.00000000e+00
  0.00000000e+00  0.00000000e+00  0.00000000e+00  0.00000000e+00
  0.00000000e+00  0.00000000e+00  0.00000000e+00  0.00000000e+00
  0.00000000e+00  0.00000000e+00  0.00000000e+00  0.00000000e+00
  0.00000000e+00  0.00000000e+00 -6.30964190e-06 -1.74123422e-06
  0.00000000e+00  0.00000000e+00  0.00000000e+00  4.57920070e-06]","[[-0.00077293  0.06981402]
 [-0.00127011 -0.0084043 ]]",[],0.0,0.0
1787210420.2341177,1.7384846454571032,1.2316905411204533,2.047430973708199,"[ 8.27694265e-05  3.30839728e-06  0.00000000e+00  0.00000000e+00
  0.00000000e+00 -6.30964190e-06  3.30839728e-06  5.27581274e-05
  0.00000000e+00  0.00000000e+00  0.00000000e+00 -1.74123422e-06
  0.00000000e+00  0.00000000e+00  0.00000000e+00  0.00000000e+00
  0.00000000e+00  0.00000000e+00  0.00000000e+00  0.00000000e+00
  0.00000000e+00  0.00000000e+00  0.00000000e+00  0.00000000e+00
  0.00000000e+00  0.00000000e+00  0.00000000e+00  0.00000000e+00
  0.00000000e+00  0.00000000e+00 -6.30964190e-06 -1.74123422e-06
  0.00000000e+00  0.00000000e+00  0.00000000e+00  4.57920070e-06]","[[-0.00077293  0.06981402]
 [-0.00127011 -0.0084043 ]]",[],0.0,0.0
1787210420.2848296,1.7384846454571032,1.2316905411204533,2.047430973708199,"[ 8.27694265e-05  3.30839728e-06  0.00000000e+00  0.00000000e+00
  0.00000000e+00 -6.30964190e-06  3.30839728e-06  5.27581274e-05
  0.00000000e+00  0.00000000e+00  0.00000000e+00 -1.74123422e-06
  0.00000000e+00  0.00000000e+00  0.00000000e+00  0.00000000e+00
  0.00000000e+00  0.00000000e+00  0.00000000e+00  0.00000000e+00
  0.00000000e+00  0.00000000e+00  0.00000000e+00  0.00000000e+00
  0.00000000e+00  0.00000000e+00  0.00000000e+00  0.00000000e+00
  0.00000000e+00  0.00000000e+00 -6.30964190e-06 -1.74123422e-06
  0.00000000e+00  0.00000000e+00  0.00000000e+00  4.57920070e-06]","[[-0.00077293  0.06981402]
 [-0.00127011 -0.0084043 ]]",[],0.0,0.0
1787210420.3635373,1.7384846454571032,1.2316905411204533,2.047430973708199,"[ 8.27694265e-05  3.30839728e-06  0.00000000e+00  0.00000000e+00
  0.00000000e+00 -6.30964190e-06  3.30839728e-06  5.27581274e-05
  0.00000000e+00  0.00000000e+00  0.00000000e+00 -1.74123422e-06
  0.00000000e+00  0.00000000e+00  0.00000000e+00  0.00000000e+00
  0.00000000e+00  0.00000000e+00  0.00000000e+00  0.00000000e+00
  0.00000000e+00  0.00000000e+00  0.00000000e+00  0.00000000e+00
  0.00000000e+00  0.00000000e+00  0.00000000e+00  0.00000000e+00
  0.00000000e+00  0.00000000e+00 -6.30964190e-06 -1.74123422e-06
  0.00000000e+00  0.00000000e+00  0.00000000e+00  4.57920070e-06]","[[-0.00077293  0.06981402]
 [-0.00127011 -0.0084043 ]]",[],0.0,0.0
1787210420.4004707,1.7384846454571032,1.2316905411204533,2.047430973708199,"[ 8.27694265e-05  3.30839728e-06  0.00000000e+00  0.00000000e+00
  0.00000000e+00 -6.30964190e-06  3.30839728e-06  5.27581274e-05
  0.00000000e+00  0.00000000e+00  0.00000000e+00 -1.74123422e-06
  0.00000000e+00  0.00000000e+00  0.00000000e+00  0.00000000e+00
  0.00000000e+00  0.00000000e+00  0.00000000e+00  0.00000000e+00
  0.00000000e+00  0.00000000e+00  0.00000000e+00  0.00000000e+00
  0.00000000e+00  0.00000000e+00  0.00000000e+00  0.00000000e+00
  0.00000000e+00  0.00000000e+00 -6.30964190e-06 -1.74123422e-06
  0.00000000e+00  0.00000000e+00  0.00000000e+00  4.57920070e-06]","[[-0.00077293  0.06981402]
 [-0.00127011 -0.0084043 ]]",[],0.0,0.0
1787210420.4349718,1.7384846454571032,1.2316905411204533,2.047430973708199,"[ 8.27694265e-05  3.30839728e-06  0.00000000e+00  0.00000000e+00
  0.00000000e+00 -6.30964190e-06  3.30839728e-06  5.27581274e-05
  0.00000000e+00  0.00000000e+00  0.00000000e+00 -1.74123422e-06
  0.00000000e+00  0.00000000e+00  0.00000000e+00  0.00000000e+00
  0.00000000e+00  0.00000000e+00  0.00000000e+00  0.00000000e+00
  0.00000000e+00  0.00000000e+00  0.00000000e+00  0.00000000e+00
  0.00000000e+00  0.00000000e+00  0.00000000e+00  0.00000000e+00
  0.00000000e+00  0.00000000e+00 -6.30964190e-06 -1.74123422e-06
  0.00000000e+00  0.00000000e+00  0.00000000e+00  4.57920070e-06]","[[-0.00077293  0.06981402]
 [-0.00127011 -0.0084043 ]]",[],0.0,0.0
1787210420.4947443,1.7384846454571032,1.2316905411204533,2.047430973708199,"[ 8.27694265e-05  3.30839728e-06  0.00000000e+00  0.00000000e+00
  0.00000000e+00 -6.30964190e-06  3.30839728e-06  5.27581274e-05
  0.00000000e+00  0.00000000e+00  0.00000000e+00 -1.74123422e-06
  0.00000000e+00  0.00000000e+00  0.00000000e+00  0.00000000e+00
  0.00000000e+00  0.00000000e+00  0.00000000e+00  0.00000000e+00
  0.00000000e+00  0.00000000e+00  0.00000000e+00  0.00000000e+00
  0.00000000e+00  0.00000000e+00  0.00000000e+00  0.00000000e+00
  0.00000000e+00  0.00000000e+00 -6.30964190e-06 -1.74123422e-06
  0.00000000e+00  0.00000000e+00  0.00000000e+00  4.57920070e-06]","[[-0.00077293  0.06981402]
 [-0.00127011 -0.0084043 ]]",[],0.0,0.0
1787210420.533834,1.7384846454571032,1.2316905411204533,2.047430973708199,"[ 8.27694265e-05  3.30839728e-06  0.00000000e+00  0.00000000e+00
  0.00000000e+00 -6.30964190e-06  3.30839728e-06  5.27581274e-05
  0.00000000e+00  0.00000000e+00  0.00000000e+00 -1.74123422e-06
  0.00000000e+00  0.00000000e+00  0.00000000e+00  0.00000000e+00
  0.00000000e+00  0.00000000e+00  0.00000000e+00  0.00000000e+00
  0.00000000e+00  0.00000000e+00  0.00000000e+00  0.00000000e+00
  0.00000000e+00  0.00000000e+00  0.00000000e+00  0.00000000e+00
  0.00000000e+00  0.00000000e+00 -6.30964190e-06 -1.74123422e-06
  0.00000000e+00  0.00000000e+00  0.00000000e+00  4.57920070e-06]","[[-0.00077293  0.06981402]
 [-0.00127011 -0.0084043 ]]",[],0.0,0.0
1787210420.602964,1.751377794049844,1.1806636934463555,2.113768492778717,"[ 4.05878273e-05  1.32739184e-06  0.00000000e+00  0.00000000e+00
  0.00000000e+00 -2.61368349e-06  1.32739184e-06  2.70172983e-05
  0.00000000e+00  0.00000000e+00  0.00000000e+00 -1.13876453e-06
  0.00000000e+00  0.00000000e+00  0.00000000e+00  0.00000000e+00
  0.00000000e+00  0.00000000e+00  0.00000000e+00  0.00000000e+00
  0.00000000e+00  0.00000000e+00  0.00000000e+00  0.00000000e+00
  0.00000000e+00  0.00000000e+00  0.00000000e+00  0.00000000e+00
  0.00000000e+00  0.00000000e+00 -2.61368349e-06 -1.13876453e-06
  0.00000000e+00  0.00000000e+00  0.00000000e+00  3.80118666e-06]","[[ 0.00043769  0.03875036]
 [-0.00058432  0.01467725]]",[],0.0,0.0
1787210420.6380448,1.751377794049844,1.1806636934463555,2.113768492778717,"[ 4.05878273e-05  1.32739184e-06  0.00000000e+00  0.00000000e+00
  0.00000000e+00 -2.61368349e-06  1.32739184e-06  2.70172983e-05
  0.00000000e+00  0.00000000e+00  0.00000000e+00 -1.13876453e-06
  0.00000000e+00  0.00000000e+00  0.00000000e+00  0.00000000e+00
  0.00000000e+00  0.00000000e+00  0.00000000e+00  0.00000000e+00
  0.00000000e+00  0.00000000e+00  0.00000000e+00  0.00000000e+00
  0.00000000e+00  0.00000000e+00  0.00000000e+00  0.00000000e+00
  0.00000000e+00  0.00000000e+00 -2.61368349e-06 -1.13876453e-06
  0.00000000e+00  0.00000000e+00  0.00000000e+00  3.80118666e-06]","[[ 0.00043769  0.03875036]
 [-0.00058432  0.01467725]]",[],0.0,0.0
1787210420.698095,1.751377794049844,1.1806636934463555,2.113768492778717,"[ 4.05878273e-05  1.32739184e-06  0.00000000e+00  0.00000000e+00
  0.00000000e+00 -2.61368349e-06  1.32739184e-06  2.70172983e-05
  0.00000000e+00  0.00000000e+00  0.00000000e+00 -1.13876453e-06
  0.00000000e+00  0.00000000e+00  0.00000000e+00  0.00000000e+00
  0.00000000e+00  0.00000000e+00  0.00000000e+00  0.00000000e+00
  0.00000000e+00  0.00000000e+00  0.00000000e+00  0.00000000e+00
  0.00000000e+00  0.00000000e+00  0.00000000e+00  0.00000000e+00
  0.00000000e+00  0.00000000e+00 -2.61368349e-06 -1.13876453e-06
  0.00000000e+00  0.00000000e+00  0.00000000e+00  3.80118666e-06]","[[ 0.00043769  0.03875036]
 [-0.00058432  0.01467725]]",[],0.0,0.0
1787210420.7337525,1.751377794049844,1.1806636934463555,2.113768492778717,"[ 4.05878273e-05  1.32739184e-06  0.00000000e+00  0.00000000e+00
  0.00000000e+00 -2.61368349e-06  1.32739184e-06  2.70172983e-05
  0.00000000e+00  0.00000000e+00  0.00000000e+00 -1.13876453e-06
  0.00000000e+00  0.00000000e+00  0.00000000e+00  0.00000000e+00
  0.00000000e+00  0.00000000e+00  0.00000000e+00  0.00000000e+00
  0.00000000e+00  0.00000000e+00  0.00000000e+00  0.00000000e+00
  0.00000000e+00  0.00000000e+00  0.00000000e+00  0.00000000e+00
  0.00000000e+00  0.00000000e+00 -2.61368349e-06 -1.13876453e-06
  0.00000000e+00  0.00000000e+00  0.00000000e+00  3.80118666e-06]","[[ 0.00043769  0.03875036]
 [-0.00058432  0.01467725]]",[],0.0,0.0
1787210420.783578,1.751377794049844,1.1806636934463555,2.113768492778717,"[ 4.05878273e-05  1.32739184e-06  0.00000000e+00  0.00000000e+00
  0.00000000e+00 -2.61368349e-06  1.32739184e-06  2.70172983e-05
  0.00000000e+00  0.00000000e+00  0.00000000e+00 -1.13876453e-06
  0.00000000e+00  0.00000000e+00  0.00000000e+00  0.00000000e+00
  0.00000000e+00  0.00000000e+00  0.00000000e+00  0.00000000e+00
  0.00000000e+00  0.00000000e+00  0.00000000e+00  0.00000000e+00
  0.00000000e+00  0.00000000e+00  0.00000000e+00  0.00000000e+00
  0.00000000e+00  0.00000000e+00 -2.61368349e-06 -1.13876453e-06
  0.00000000e+00  0.00000000e+00  0.00000000e+00  3.80118666e-06]","[[ 0.00043769  0.03875036]
 [-0.00058432  0.01467725]]",[],0.0,0.0
1787210420.835624,1.751377794049844,1.1806636934463555,2.113768492778717,"[ 4.05878273e-05  1.32739184e-06  0.00000000e+00  0.00000000e+00
  0.00000000e+00 -2.61368349e-06  1.32739184e-06  2.70172983e-05
  0.00000000e+00  0.00000000e+00  0.00000000e+00 -1.13876453e-06
  0.00000000e+00  0.00000000e+00  0.00000000e+00  0.00000000e+00
  0.00000000e+00  0.00000000e+00  0.00000000e+00  0.00000000e+00
  0.00000000e+00  0.00000000e+00  0.00000000e+00  0.00000000e+00
  0.00000000e+00  0.00000000e+00  0.00000000e+00  0.00000000e+00
  0.00000000e+00  0.00000000e+00 -2.61368349e-06 -1.13876453e-06
  0.00000000e+00  0.00000000e+00  0.00000000e+00  3.80118666e-06]","[[ 0.00043769  0.03875036]
 [-0.00058432  0.01467725]]",[],0.0,0.0
1787210420.8839319,1.751377794049844,1.1806636934463555,2.113768492778717,"[ 4.05878273e-05  1.32739184e-06  0.00000000e+00  0.00000000e+00
  0.00000000e+00 -2.61368349e-06  1.32739184e-06  2.70172983e-05
  0.00000000e+00  0.00000000e+00  0.00000000e+00 -1.13876453e-06
  0.00000000e+00  0.00000000e+00  0.00000000e+00  0.00000000e+00
  0.00000000e+00  0.00000000e+00  0.00000000e+00  0.00000000e+00
  0.00000000e+00  0.00000000e+00  0.00000000e+00  0.00000000e+00
  0.00000000e+00  0.00000000e+00  0.00000000e+00  0.00000000e+00
  0.00000000e+00  0.00000000e+00 -2.61368349e-06 -1.13876453e-06
  0.00000000e+00  0.00000000e+00  0.00000000e+00  3.80118666e-06]","[[ 0.00043769  0.03875036]
 [-0.00058432  0.01467725]]",[],0.0,0.0
1787210420.93598,1.751377794049844,1.1806636934463555,2.113768492778717,"[ 4.05878273e-05  1.32739184e-06  0.00000000e+00  0.00000000e+00
  0.00000000e+00 -2.61368349e-06  1.32739184e-06  2.70172983e-05
  0.00000000e+00  0.00000000e+00  0.00000000e+00 -1.13876453e-06
  0.00000000e+00  0.00000000e+00  0.00000000e+00  0.00000000e+00
  0.00000000e+00  0.00000000e+00  0.00000000e+00  0.00000000e+00
  0.00000000e+00  0.00000000e+00  0.00000000e+00  0.00000000e+00
  0.00000000e+00  0.00000000e+00  0.00000000e+00  0.00000000e+00
  0.00000000e+00  0.00000000e+00 -2.61368349e-06 -1.13876453e-06
  0.00000000e+00  0.00000000e+00  0.00000000e+00  3.80118666e-06]","[[ 0.00043769  0.03875036]
 [-0.00058432  0.01467725]]",[],0.0,0.0
1787210420.9846613,1.751377794049844,1.1806636934463555,2.113768492778717,"[ 4.05878273e-05  1.32739184e-06  0.00000000e+00  0.00000000e+00
  0.00000000e+00 -2.61368349e-06  1.32739184e-06  2.70172983e-05
  0.00000000e+00  0.00000000e+00  0.00000000e+00 -1.13876453e-06
  0.00000000e+00  0.00000000e+00  0.00000000e+00  0.00000000e+00
  0.00000000e+00  0.00000000e+00  0.00000000e+00  0.00000000e+00
  0.00000000e+00  0.00000000e+00  0.00000000e+00  0.00000000e+00
  0.00000000e+00  0.00000000e+00  0.00000000e+00  0.00000000e+00
  0.00000000e+00  0.00000000e+00 -2.61368349e-06 -1.13876453e-06
  0.00000000e+00  0.00000000e+00  0.00000000e+00  3.80118666e-06]","[[ 0.00043769  0.03875036]
 [-0.00058432  0.01467725]]",[],0.0,0.0
1787210421.0343335,1.751377794049844,1.1806636934463555,2.113768492778717,"[ 4.05878273e-05  1.32739184e-06  0.00000000e+00  0.00000000e+00
  0.00000000e+00 -2.61368349e-06  1.32739184e-06  2.70172983e-05
  0.00000000e+00  0.00000000e+00  0.00000000e+00 -1.13876453e-06
  0.00000000e+00  0.00000000e+00  0.00000000e+00  0.00000000e+00
  0.00000000e+00  0.00000000e+00  0.00000000e+00  0.00000000e+00
  0.00000000e+00  0.00000000e+00  0.00000000e+00  0.00000000e+00
  0.00000000e+00  0.00000000e+00  0.00000000e+00  0.00000000e+00
  0.00000000e+00  0.00000000e+00 -2.61368349e-06 -1.13876453e-06
  0.00000000e+00  0.00000000e+00  0.00000000e+00  3.80118666e-06]","[[ 0.00043769  0.03875036]
 [-0.00058432  0.01467725]]",[],0.0,0.0
1787210421.0840483,1.751377794049844,1.1806636934463555,2.113768492778717,"[ 4.05878273e-05  1.32739184e-06  0.00000000e+00  0.00000000e+00
  0.00000000e+00 -2.61368349e-06  1.32739184e-06  2.70172983e-05
  0.00000000e+00  0.00000000e+00  0.00000000e+00 -1.13876453e-06
  0.00000000e+00  0.00000000e+00  0.00000000e+00  0.00000000e+00
  0.00000000e+00  0.00000000e+00  0.00000000e+00  0.00000000e+00
  0.00000000e+00  0.00000000e+00  0.00000000e+00  0.00000000e+00
  0.00000000e+00  0.00000000e+00  0.00000000e+00  0.00000000e+00
  0.00000000e+00  0.00000000e+00 -2.61368349e-06 -1.13876453e-06
  0.00000000e+00  0.00000000e+00  0.00000000e+00  3.80118666e-06]","[[ 0.00043769  0.03875036]
 [-0.00058432  0.01467725]]",[],0.0,0.0
1787210421.141767,1.751377794049844,1.1806636934463555,2.113768492778717,"[ 4.05878273e-05  1.32739184e-06  0.00000000e+00  0.00000000e+00
  0.00000000e+00 -2.61368349e-06  1.32739184e-06  2.70172983e-05
  0.00000000e+00  0.00000000e+00  0.00000000e+00 -1.13876453e-06
  0.00000000e+00  0.00000000e+00  0.00000000e+00  0.00000000e+00
  0.00000000e+00  0.00000000e+00  0.00000000e+00  0.00000000e+00
  0.00000000e+00  0.00000000e+00  0.00000000e+00  0.00000000e+00
  0.00000000e+00  0.00000000e+00  0.00000000e+00  0.00000000e+00
  0.00000000e+00  0.00000000e+00 -2.61368349e-06 -1.13876453e-06
  0.00000000e+00  0.00000000e+00  0.00000000e+00  3.80118666e-06]","[[ 0.00043769  0.03875036]
 [-0.00058432  0.01467725]]",[],0.0,0.0
1787210421.2120996,1.751377794049844,1.1806636934463555,2.113768492778717,"[ 4.05878273e-05  1.32739184e-06  0.00000000e+00  0.00000000e+00
  0.00000000e+00 -2.61368349e-06  1.32739184e-06  2.70172983e-05
  0.00000000e+00  0.00000000e+00  0.00000000e+00 -1.13876453e-06
  0.00000000e+00  0.00000000e+00  0.00000000e+00  0.00000000e+00
  0.00000000e+00  0.00000000e+00  0.00000000e+00  0.00000000e+00
  0.00000000e+00  0.00000000e+00  0.00000000e+00  0.00000000e+00
  0.00000000e+00  0.00000000e+00  0.00000000e+00  0.00000000e+00
  0.00000000e+00  0.00000000e+00 -2.61368349e-06 -1.13876453e-06
  0.00000000e+00  0.00000000e+00  0.00000000e+00  3.80118666e-06]","[[ 0.00043769  0.03875036]
 [-0.00058432  0.01467725]]",[],0.0,0.0
1787210421.2344868,1.751377794049844,1.1806636934463555,2.113768492778717,"[ 4.05878273e-05  1.32739184e-06  0.00000000e+00  0.00000000e+00
  0.00000000e+00 -2.61368349e-06  1.32739184e-06  2.70172983e-05
  0.00000000e+00  0.00000000e+00  0.00000000e+00 -1.13876453e-06
  0.00000000e+00  0.00000000e+00  0.00000000e+00  0.00000000e+00
  0.00000000e+00  0.00000000e+00  0.00000000e+00  0.00000000e+00
  0.00000000e+00  0.00000000e+00  0.00000000e+00  0.00000000e+00
  0.00000000e+00  0.00000000e+00  0.00000000e+00  0.00000000e+00
  0.00000000e+00  0.00000000e+00 -2.61368349e-06 -1.13876453e-06
  0.00000000e+00  0.00000000e+00  0.00000000e+00  3.80118666e-06]","[[ 0.00043769  0.03875036]
 [-0.00058432  0.01467725]]",[],0.0,0.0
1787210421.283757,1.751377794049844,1.1806636934463555,2.113768492778717,"[ 4.05878273e-05  1.32739184e-06  0.00000000e+00  0.00000000e+00
  0.00000000e+00 -2.61368349e-06  1.32739184e-06  2.70172983e-05
  0.00000000e+00  0.00000000e+00  0.00000000e+00 -1.13876453e-06
  0.00000000e+00  0.00000000e+00  0.00000000e+00  0.00000000e+00
  0.00000000e+00  0.00000000e+00  0.00000000e+00  0.00000000e+00
  0.00000000e+00  0.00000000e+00  0.00000000e+00  0.00000000e+00
  0.00000000e+00  0.00000000e+00  0.00000000e+00  0.00000000e+00
  0.00000000e+00  0.00000000e+00 -2.61368349e-06 -1.13876453e-06
  0.00000000e+00  0.00000000e+00  0.00000000e+00  3.80118666e-06]","[[ 0.00043769  0.03875036]
 [-0.00058432  0.01467725]]",[],0.0,0.0
1787210421.338705,1.751532007082176,1.1593340430351127,2.1579548497504017,"[ 2.59920969e-05  1.07732164e-06  0.00000000e+00  0.00000000e+00
  0.00000000e+00 -2.11965460e-06  1.07732164e-06  1.81933339e-05
  0.00000000e+00  0.00000000e+00  0.00000000e+00 -6.80733708e-07
  0.00000000e+00  0.00000000e+00  0.00000000e+00  0.00000000e+00
  0.00000000e+00  0.00000000e+00  0.00000000e+00  0.00000000e+00
  0.00000000e+00  0.00000000e+00  0.00000000e+00  0.00000000e+00
  0.00000000e+00  0.00000000e+00  0.00000000e+00  0.00000000e+00
  0.00000000e+00  0.00000000e+00 -2.11965460e-06 -6.80733708e-07
  0.00000000e+00  0.00000000e+00  0.00000000e+00  3.76233393e-06]","[[ 0.00032035  0.02318366]
 [-0.00037198  0.01027343]]",[],0.0,0.0
1787210421.3862507,1.751532007082176,1.1593340430351127,2.1579548497504017,"[ 2.59920969e-05  1.07732164e-06  0.00000000e+00  0.00000000e+00
  0.00000000e+00 -2.11965460e-06  1.07732164e-06  1.81933339e-05
  0.00000000e+00  0.00000000e+00  0.00000000e+00 -6.80733708e-07
  0.00000000e+00  0.00000000e+00  0.00000000e+00  0.00000000e+00
  0.00000000e+00  0.00000000e+00  0.00000000e+00  0.00000000e+00
  0.00000000e+00  0.00000000e+00  0.00000000e+00  0.00000000e+00
  0.00000000e+00  0.00000000e+00  0.00000000e+00  0.00000000e+00
  0.00000000e+00  0.00000000e+00 -2.11965460e-06 -6.80733708e-07
  0.00000000e+00  0.00000000e+00  0.00000000e+00  3.76233393e-06]","[[ 0.00032035  0.02318366]
 [-0.00037198  0.01027343]]",[],0.0,0.0
1787210421.435188,1.751532007082176,1.1593340430351127,2.1579548497504017,"[ 2.59920969e-05  1.07732164e-06  0.00000000e+00  0.00000000e+00
  0.00000000e+00 -2.11965460e-06  1.07732164e-06  1.81933339e-05
  0.00000000e+00  0.00000000e+00  0.00000000e+00 -6.80733708e-07
  0.00000000e+00  0.00000000e+00  0.00000000e+00  0.00000000e+00
  0.00000000e+00  0.00000000e+00  0.00000000e+00  0.00000000e+00
  0.00000000e+00  0.00000000e+00  0.00000000e+00  0.00000000e+00
  0.00000000e+00  0.00000000e+00  0.00000000e+00  0.00000000e+00
  0.00000000e+00  0.00000000e+00 -2.11965460e-06 -6.80733708e-07
  0.00000000e+00  0.00000000e+00  0.00000000e+00  3.76233393e-06]","[[ 0.00032035  0.02318366]
 [-0.00037198  0.01027343]]",[],0.0,0.0
1787210421.4903812,1.751532007082176,1.1593340430351127,2.1579548497504017,"[ 2.59920969e-05  1.07732164e-06  0.00000000e+00  0.00000000e+00
  0.00000000e+00 -2.11965460e-06  1.07732164e-06  1.81933339e-05
  0.00000000e+00  0.00000000e+00  0.00000000e+00 -6.80733708e-07
  0.00000000e+00  0.00000000e+00  0.00000000e+00  0.00000000e+00
  0.00000000e+00  0.00000000e+00  0.00000000e+00  0.00000000e+00
  0.00000000e+00  0.00000000e+00  0.00000000e+00  0.00000000e+00
  0.00000000e+00  0.00000000e+00  0.00000000e+00  0.00000000e+00
  0.00000000e+00  0.00000000e+00 -2.11965460e-06 -6.80733708e-07
  0.00000000e+00  0.00000000e+00  0.00000000e+00  3.76233393e-06]","[[ 0.00032035  0.02318366]
 [-0.00037198  0.01027343]]",[],0.0,0.0
1787210421.543912,1.751532007082176,1.1593340430351127,2.1579548497504017,"[ 2.59920969e-05  1.07732164e-06  0.00000000e+00  0.00000000e+00
  0.00000000e+00 -2.11965460e-06  1.07732164e-06  1.81933339e-05
  0.00000000e+00  0.00000000e+00  0.00000000e+00 -6.80733708e-07
  0.00000000e+00  0.00000000e+00  0.00000000e+00  0.00000000e+00
  0.00000000e+00  0.00000000e+00  0.00000000e+00  0.00000000e+00
  0.00000000e+00  0.00000000e+00  0.00000000e+00  0.00000000e+00
  0.00000000e+00  0.00000000e+00  0.00000000e+00  0.00000000e+00
  0.00000000e+00  0.00000000e+00 -2.11965460e-06 -6.80733708e-07
  0.00000000e+00  0.00000000e+00  0.00000000e+00  3.76233393e-06]","[[ 0.00032035  0.02318366]
 [-0.00037198  0.01027343]]",[],0.0,0.0
1787210421.6239903,1.751532007082176,1.1593340430351127,2.1579548497504017,"[ 2.59920969e-05  1.07732164e-06  0.00000000e+00  0.00000000e+00
  0.00000000e+00 -2.11965460e-06  1.07732164e-06  1.81933339e-05
  0.00000000e+00  0.00000000e+00  0.00000000e+00 -6.80733708e-07
  0.00000000e+00  0.00000000e+00  0.00000000e+00  0.00000000e+00
  0.00000000e+00  0.00000000e+00  0.00000000e+00  0.00000000e+00
  0.00000000e+00  0.00000000e+00  0.00000000e+00  0.00000000e+00
  0.00000000e+00  0.00000000e+00  0.00000000e+00  0.00000000e+00
  0.00000000e+00  0.00000000e+00 -2.11965460e-06 -6.80733708e-07
  0.00000000e+00  0.00000000e+00  0.00000000e+00  3.76233393e-06]","[[ 0.00032035  0.02318366]
 [-0.00037198  0.01027343]]",[],0.0,0.0
1787210421.6347702,1.751532007082176,1.1593340430351127,2.1579548497504017,"[ 2.59920969e-05  1.07732164e-06  0.00000000e+00  0.00000000e+00
  0.00000000e+00 -2.11965460e-06  1.07732164e-06  1.81933339e-05
  0.00000000e+00  0.00000000e+00  0.00000000e+00 -6.80733708e-07
  0.00000000e+00  0.00000000e+00  0.00000000e+00  0.00000000e+00
  0.00000000e+00  0.00000000e+00  0.00000000e+00  0.00000000e+00
  0.00000000e+00  0.00000000e+00  0.00000000e+00  0.00000000e+00
  0.00000000e+00  0.00000000e+00  0.00000000e+00  0.00000000e+00
  0.00000000e+00  0.00000000e+00 -2.11965460e-06 -6.80733708e-07
  0.00000000e+00  0.00000000e+00  0.00000000e+00  3.76233393e-06]","[[ 0.00032035  0.02318366]
 [-0.00037198  0.01027343]]",[],0.0,0.0
1787210421.684448,1.751532007082176,1.1593340430351127,2.1579548497504017,"[ 2.59920969e-05  1.07732164e-06  0.00000000e+00  0.00000000e+00
  0.00000000e+00 -2.11965460e-06  1.07732164e-06  1.81933339e-05
  0.00000000e+00  0.00000000e+00  0.00000000e+00 -6.80733708e-07
  0.00000000e+00  0.00000000e+00  0.00000000e+00  0.00000000e+00
  0.00000000e+00  0.00000000e+00  0.00000000e+00  0.00000000e+00
  0.00000000e+00  0.00000000e+00  0.00000000e+00  0.00000000e+00
  0.00000000e+00  0.00000000e+00  0.00000000e+00  0.00000000e+00
  0.00000000e+00  0.00000000e+00 -2.11965460e-06 -6.80733708e-07
  0.00000000e+00  0.00000000e+00  0.00000000e+00  3.76233393e-06]","[[ 0.00032035  0.02318366]
 [-0.00037198  0.01027343]]",[],0.0,0.0
1787210421.7369153,1.751532007082176,1.1593340430351127,2.1579548497504017,"[ 2.59920969e-05  1.07732164e-06  0.00000000e+00  0.00000000e+00
  0.00000000e+00 -2.11965460e-06  1.07732164e-06  1.81933339e-05
  0.00000000e+00  0.00000000e+00  0.00000000e+00 -6.80733708e-07
  0.00000000e+00  0.00000000e+00  0.00000000e+00  0.00000000e+00
  0.00000000e+00  0.00000000e+00  0.00000000e+00  0.00000000e+00
  0.00000000e+00  0.00000000e+00  0.00000000e+00  0.00000000e+00
  0.00000000e+00  0.00000000e+00  0.00000000e+00  0.00000000e+00
  0.00000000e+00  0.00000000e+00 -2.11965460e-06 -6.80733708e-07
  0.00000000e+00  0.00000000e+00  0.00000000e+00  3.76233393e-06]","[[ 0.00032035  0.02318366]
 [-0.00037198  0.01027343]]",[],0.0,0.0
1787210421.784645,1.751532007082176,1.1593340430351127,2.1579548497504017,"[ 2.59920969e-05  1.07732164e-06  0.00000000e+00  0.00000000e+00
  0.00000000e+00 -2.11965460e-06  1.07732164e-06  1.81933339e-05
  0.00000000e+00  0.00000000e+00  0.00000000e+00 -6.80733708e-07
  0.00000000e+00  0.00000000e+00  0.00000000e+00  0.00000000e+00
  0.00000000e+00  0.00000000e+00  0.00000000e+00  0.00000000e+00
  0.00000000e+00  0.00000000e+00  0.00000000e+00  0.00000000e+00
  0.00000000e+00  0.00000000e+00  0.00000000e+00  0.00000000e+00
  0.00000000e+00  0.00000000e+00 -2.11965460e-06 -6.80733708e-07
  0.00000000e+00  0.00000000e+00  0.00000000e+00  3.76233393e-06]","[[ 0.00032035  0.02318366]
 [-0.00037198  0.01027343]]",[],0.0,0.0
1787210421.8422387,1.751532007082176,1.1593340430351127,2.1579548497504017,"[ 2.59920969e-05  1.07732164e-06  0.00000000e+00  0.00000000e+00
  0.00000000e+00 -2.11965460e-06  1.07732164e-06  1.81933339e-05
  0.00000000e+00  0.00000000e+00  0.00000000e+00 -6.80733708e-07
  0.00000000e+00  0.00000000e+00  0.00000000e+00  0.00000000e+00
  0.00000000e+00  0.00000000e+00  0.00000000e+00  0.00000000e+00
  0.00000000e+00  0.00000000e+00  0.00000000e+00  0.00000000e+00
  0.00000000e+00  0.00000000e+00  0.00000000e+00  0.00000000e+00
  0.00000000e+00  0.00000000e+00 -2.11965460e-06 -6.80733708e-07
  0.00000000e+00  0.00000000e+00  0.00000000e+00  3.76233393e-06]","[[ 0.00032035  0.02318366]
 [-0.00037198  0.01027343]]",[],0.0,0.0
1787210421.920521,1.751532007082176,1.1593340430351127,2.1579548497504017,"[ 2.59920969e-05  1.07732164e-06  0.00000000e+00  0.00000000e+00
  0.00000000e+00 -2.11965460e-06  1.07732164e-06  1.81933339e-05
  0.00000000e+00  0.00000000e+00  0.00000000e+00 -6.80733708e-07
  0.00000000e+00  0.00000000e+00  0.00000000e+00  0.00000000e+00
  0.00000000e+00  0.00000000e+00  0.00000000e+00  0.00000000e+00
  0.00000000e+00  0.00000000e+00  0.00000000e+00  0.00000000e+00
  0.00000000e+00  0.00000000e+00  0.00000000e+00  0.00000000e+00
  0.00000000e+00  0.00000000e+00 -2.11965460e-06 -6.80733708e-07
  0.00000000e+00  0.00000000e+00  0.00000000e+00  3.76233393e-06]","[[ 0.00032035  0.02318366]
 [-0.00037198  0.01027343]]",[],0.0,0.0
1787210421.9339383,1.751532007082176,1.1593340430351127,2.1579548497504017,"[ 2.59920969e-05  1.07732164e-06  0.00000000e+00  0.00000000e+00
  0.00000000e+00 -2.11965460e-06  1.07732164e-06  1.81933339e-05
  0.00000000e+00  0.00000000e+00  0.00000000e+00 -6.80733708e-07
  0.00000000e+00  0.00000000e+00  0.00000000e+00  0.00000000e+00
  0.00000000e+00  0.00000000e+00  0.00000000e+00  0.00000000e+00
  0.00000000e+00  0.00000000e+00  0.00000000e+00  0.00000000e+00
  0.00000000e+00  0.00000000e+00  0.00000000e+00  0.00000000e+00
  0.00000000e+00  0.00000000e+00 -2.11965460e-06 -6.80733708e-07
  0.00000000e+00  0.00000000e+00  0.00000000e+00  3.76233393e-06]","[[ 0.00032035  0.02318366]
 [-0.00037198  0.01027343]]",[],0.0,0.0
1787210421.9911366,1.751532007082176,1.1593340430351127,2.1579548497504017,"[ 2.59920969e-05  1.07732164e-06  0.00000000e+00  0.00000000e+00
  0.00000000e+00 -2.11965460e-06  1.07732164e-06  1.81933339e-05
  0.00000000e+00  0.00000000e+00  0.00000000e+00 -6.80733708e-07
  0.00000000e+00  0.00000000e+00  0.00000000e+00  0.00000000e+00
  0.00000000e+00  0.00000000e+00  0.00000000e+00  0.00000000e+00
  0.00000000e+00  0.00000000e+00  0.00000000e+00  0.00000000e+00
  0.00000000e+00  0.00000000e+00  0.00000000e+00  0.00000000e+00
  0.00000000e+00  0.00000000e+00 -2.11965460e-06 -6.80733708e-07
  0.00000000e+00  0.00000000e+00  0.00000000e+00  3.76233393e-06]","[[ 0.00032035  0.02318366]
 [-0.00037198  0.01027343]]",[],0.0,0.0
1787210422.036119,1.751532007082176,1.1593340430351127,2.1579548497504017,"[ 2.59920969e-05  1.07732164e-06  0.00000000e+00  0.00000000e+00
  0.00000000e+00 -2.11965460e-06  1.07732164e-06  1.81933339e-05
  0.00000000e+00  0.00000000e+00  0.00000000e+00 -6.80733708e-07
  0.00000000e+00  0.00000000e+00  0.00000000e+00  0.00000000e+00
  0.00000000e+00  0.00000000e+00  0.00000000e+00  0.00000000e+00
  0.00000000e+00  0.00000000e+00  0.00000000e+00  0.00000000e+00
  0.00000000e+00  0.00000000e+00  0.00000000e+00  0.00000000e+00
  0.00000000e+00  0.00000000e+00 -2.11965460e-06 -6.80733708e-07
  0.00000000e+00  0.00000000e+00  0.00000000e+00  3.76233393e-06]","[[ 0.00032035  0.02318366]
 [-0.00037198  0.01027343]]",[],0.0,0.0
1787210422.0842557,1.751532007082176,1.1593340430351127,2.1579548497504017,"[ 2.59920969e-05  1.07732164e-06  0.00000000e+00  0.00000000e+00
  0.00000000e+00 -2.11965460e-06  1.07732164e-06  1.81933339e-05
  0.00000000e+00  0.00000000e+00  0.00000000e+00 -6.80733708e-07
  0.00000000e+00  0.00000000e+00  0.00000000e+00  0.00000000e+00
  0.00000000e+00  0.00000000e+00  0.00000000e+00  0.00000000e+00
  0.00000000e+00  0.00000000e+00  0.00000000e+00  0.00000000e+00
  0.00000000e+00  0.00000000e+00  0.00000000e+00  0.00000000e+00
  0.00000000e+00  0.00000000e+00 -2.11965460e-06 -6.80733708e-07
  0.00000000e+00  0.00000000e+00  0.00000000e+00  3.76233393e-06]","[[ 0.00032035  0.02318366]
 [-0.00037198  0.01027343]]",[],0.0,0.0
1787210422.134248,1.7544144605523049,1.136340498619198,2.205831268607813,"[ 1.90038006e-05  8.48428505e-07  0.00000000e+00  0.00000000e+00
  0.00000000e+00 -1.23402281e-06  8.48428505e-07  1.37132868e-05
  0.00000000e+00  0.00000000e+00  0.00000000e+00 -4.43038134e-07
  0.00000000e+00  0.00000000e+00  0.00000000e+00  0.00000000e+00
  0.00000000e+00  0.00000000e+00  0.00000000e+00  0.00000000e+00
  0.00000000e+00  0.00000000e+00  0.00000000e+00  0.00000000e+00
  0.00000000e+00  0.00000000e+00  0.00000000e+00  0.00000000e+00
  0.00000000e+00  0.00000000e+00 -1.23402281e-06 -4.43038134e-07
  0.00000000e+00  0.00000000e+00  0.00000000e+00  3.60011619e-06]","[[ 0.00023052  0.01636562]
 [-0.00028105  0.00753295]]",[],0.0,0.0
1787210422.1852,1.7544144605523049,1.136340498619198,2.205831268607813,"[ 1.90038006e-05  8.48428505e-07  0.00000000e+00  0.00000000e+00
  0.00000000e+00 -1.23402281e-06  8.48428505e-07  1.37132868e-05
  0.00000000e+00  0.00000000e+00  0.00000000e+00 -4.43038134e-07
  0.00000000e+00  0.00000000e+00  0.00000000e+00  0.00000000e+00
  0.00000000e+00  0.00000000e+00  0.00000000e+00  0.00000000e+00
  0.00000000e+00  0.00000000e+00  0.00000000e+00  0.00000000e+00
  0.00000000e+00  0.00000000e+00  0.00000000e+00  0.00000000e+00
  0.00000000e+00  0.00000000e+00 -1.23402281e-06 -4.43038134e-07
  0.00000000e+00  0.00000000e+00  0.00000000e+00  3.60011619e-06]","[[ 0.00023052  0.01636562]
 [-0.00028105  0.00753295]]",[],0.0,0.0
1787210422.2349787,1.7544144605523049,1.136340498619198,2.205831268607813,"[ 1.90038006e-05  8.48428505e-07  0.00000000e+00  0.00000000e+00
  0.00000000e+00 -1.23402281e-06  8.48428505e-07  1.37132868e-05
  0.00000000e+00  0.00000000e+00  0.00000000e+00 -4.43038134e-07
  0.00000000e+00  0.00000000e+00  0.00000000e+00  0.00000000e+00
  0.00000000e+00  0.00000000e+00  0.00000000e+00  0.00000000e+00
  0.00000000e+00  0.00000000e+00  0.00000000e+00  0.00000000e+00
  0.00000000e+00  0.00000000e+00  0.00000000e+00  0.00000000e+00
  0.00000000e+00  0.00000000e+00 -1.23402281e-06 -4.43038134e-07
  0.00000000e+00  0.00000000e+00  0.00000000e+00  3.60011619e-06]","[[ 0.00023052  0.01636562]
 [-0.00028105  0.00753295]]",[],0.0,0.0
1787210422.2852342,1.7544144605523049,1.136340498619198,2.205831268607813,"[ 1.90038006e-05  8.48428505e-07  0.00000000e+00  0.00000000e+00
  0.00000000e+00 -1.23402281e-06  8.48428505e-07  1.37132868e-05
  0.00000000e+00  0.00000000e+00  0.00000000e+00 -4.43038134e-07
  0.00000000e+00  0.00000000e+00  0.00000000e+00  0.00000000e+00
  0.00000000e+00  0.00000000e+00  0.00000000e+00  0.00000000e+00
  0.00000000e+00  0.00000000e+00  0.00000000e+00  0.00000000e+00
  0.00000000e+00  0.00000000e+00  0.00000000e+00  0.00000000e+00
  0.00000000e+00  0.00000000e+00 -1.23402281e-06 -4.43038134e-07
  0.00000000e+00  0.00000000e+00  0.00000000e+00  3.60011619e-06]","[[ 0.00023052  0.01636562]
 [-0.00028105  0.00753295]]",[],0.0,0.0
1787210422.335007,1.7544144605523049,1.136340498619198,2.205831268607813,"[ 1.90038006e-05  8.48428505e-07  0.00000000e+00  0.00000000e+00
  0.00000000e+00 -1.23402281e-06  8.48428505e-07  1.37132868e-05
  0.00000000e+00  0.00000000e+00  0.00000000e+00 -4.43038134e-07
  0.00000000e+00  0.00000000e+00  0.00000000e+00  0.00000000e+00
  0.00000000e+00  0.00000000e+00  0.00000000e+00  0.00000000e+00
  0.00000000e+00  0.00000000e+00  0.00000000e+00  0.00000000e+00
  0.00000000e+00  0.00000000e+00  0.00000000e+00  0.00000000e+00
  0.00000000e+00  0.00000000e+00 -1.23402281e-06 -4.43038134e-07
  0.00000000e+00  0.00000000e+00  0.00000000e+00  3.60011619e-06]","[[ 0.00023052  0.01636562]
 [-0.00028105  0.00753295]]",[],0.0,0.0
1787210422.3837104,1.7544144605523049,1.136340498619198,2.205831268607813,"[ 1.90038006e-05  8.48428505e-07  0.00000000e+00  0.00000000e+00
  0.00000000e+00 -1.23402281e-06  8.48428505e-07  1.37132868e-05
  0.00000000e+00  0.00000000e+00  0.00000000e+00 -4.43038134e-07
  0.00000000e+00  0.00000000e+00  0.00000000e+00  0.00000000e+00
  0.00000000e+00  0.00000000e+00  0.00000000e+00  0.00000000e+00
  0.00000000e+00  0.00000000e+00  0.00000000e+00  0.00000000e+00
  0.00000000e+00  0.00000000e+00  0.00000000e+00  0.00000000e+00
  0.00000000e+00  0.00000000e+00 -1.23402281e-06 -4.43038134e-07
  0.00000000e+00  0.00000000e+00  0.00000000e+00  3.60011619e-06]","[[ 0.00023052  0.01636562]
 [-0.00028105  0.00753295]]",[],0.0,0.0
1787210422.4339366,1.7544144605523049,1.136340498619198,2.205831268607813,"[ 1.90038006e-05  8.48428505e-07  0.00000000e+00  0.00000000e+00
  0.00000000e+00 -1.23402281e-06  8.48428505e-07  1.37132868e-05
  0.00000000e+00  0.00000000e+00  0.00000000e+00 -4.43038134e-07
  0.00000000e+00  0.00000000e+00  0.00000000e+00  0.00000000e+00
  0.00000000e+00  0.00000000e+00  0.00000000e+00  0.00000000e+00
  0.00000000e+00  0.00000000e+00  0.00000000e+00  0.00000000e+00
  0.00000000e+00  0.00000000e+00  0.00000000e+00  0.00000000e+00
  0.00000000e+00  0.00000000e+00 -1.23402281e-06 -4.43038134e-07
  0.00000000e+00  0.00000000e+00  0.00000000e+00  3.60011619e-06]","[[ 0.00023052  0.01636562]
 [-0.00028105  0.00753295]]",[],0.0,0.0
1787210422.4851065,1.7544144605523049,1.136340498619198,2.205831268607813,"[ 1.90038006e-05  8.48428505e-07  0.00000000e+00  0.00000000e+00
  0.00000000e+00 -1.23402281e-06  8.48428505e-07  1.37132868e-05
  0.00000000e+00  0.00000000e+00  0.00000000e+00 -4.43038134e-07
  0.00000000e+00  0.00000000e+00  0.00000000e+00  0.00000000e+00
  0.00000000e+00  0.00000000e+00  0.00000000e+00  0.00000000e+00
  0.00000000e+00  0.00000000e+00  0.00000000e+00  0.00000000e+00
  0.00000000e+00  0.00000000e+00  0.00000000e+00  0.00000000e+00
  0.00000000e+00  0.00000000e+00 -1.23402281e-06 -4.43038134e-07
  0.00000000e+00  0.00000000e+00  0.00000000e+00  3.60011619e-06]","[[ 0.00023052  0.01636562]
 [-0.00028105  0.00753295]]",[],0.0,0.0
1787210422.5534601,1.7544144605523049,1.136340498619198,2.205831268607813,"[ 1.90038006e-05  8.48428505e-07  0.00000000e+00  0.00000000e+00
  0.00000000e+00 -1.23402281e-06  8.48428505e-07  1.37132868e-05
  0.00000000e+00  0.00000000e+00  0.00000000e+00 -4.43038134e-07
  0.00000000e+00  0.00000000e+00  0.00000000e+00  0.00000000e+00
  0.00000000e+00  0.00000000e+00  0.00000000e+00  0.00000000e+00
  0.00000000e+00  0.00000000e+00  0.00000000e+00  0.00000000e+00
  0.00000000e+00  0.00000000e+00  0.00000000e+00  0.00000000e+00
  0.00000000e+00  0.00000000e+00 -1.23402281e-06 -4.43038134e-07
  0.00000000e+00  0.00000000e+00  0.00000000e+00  3.60011619e-06]","[[ 0.00023052  0.01636562]
 [-0.00028105  0.00753295]]",[],0.0,0.0
1787210422.624362,1.7544144605523049,1.136340498619198,2.205831268607813,"[ 1.90038006e-05  8.48428505e-07  0.00000000e+00  0.00000000e+00
  0.00000000e+00 -1.23402281e-06  8.48428505e-07  1.37132868e-05
  0.00000000e+00  0.00000000e+00  0.00000000e+00 -4.43038134e-07
  0.00000000e+00  0.00000000e+00  0.00000000e+00  0.00000000e+00
  0.00000000e+00  0.00000000e+00  0.00000000e+00  0.00000000e+00
  0.00000000e+00  0.00000000e+00  0.00000000e+00  0.00000000e+00
  0.00000000e+00  0.00000000e+00  0.00000000e+00  0.00000000e+00
  0.00000000e+00  0.00000000e+00 -1.23402281e-06 -4.43038134e-07
  0.00000000e+00  0.00000000e+00  0.00000000e+00  3.60011619e-06]","[[ 0.00023052  0.01636562]
 [-0.00028105  0.00753295]]",[],0.0,0.0
1787210422.6409965,1.7544144605523049,1.136340498619198,2.205831268607813,"[ 1.90038006e-05  8.48428505e-07  0.00000000e+00  0.00000000e+00
  0.00000000e+00 -1.23402281e-06  8.48428505e-07  1.37132868e-05
  0.00000000e+00  0.00000000e+00  0.00000000e+00 -4.43038134e-07
  0.00000000e+00  0.00000000e+00  0.00000000e+00  0.00000000e+00
  0.00000000e+00  0.00000000e+00  0.00000000e+00  0.00000000e+00
  0.00000000e+00  0.00000000e+00  0.00000000e+00  0.00000000e+00
  0.00000000e+00  0.00000000e+00  0.00000000e+00  0.00000000e+00
  0.00000000e+00  0.00000000e+00 -1.23402281e-06 -4.43038134e-07
  0.00000000e+00  0.00000000e+00  0.00000000e+00  3.60011619e-06]","[[ 0.00023052  0.01636562]
 [-0.00028105  0.00753295]]",[],0.0,0.0
1787210422.7179234,1.7544144605523049,1.136340498619198,2.205831268607813,"[ 1.90038006e-05  8.48428505e-07  0.00000000e+00  0.00000000e+00
  0.00000000e+00 -1.23402281e-06  8.48428505e-07  1.37132868e-05
  0.00000000e+00  0.00000000e+00  0.00000000e+00 -4.43038134e-07
  0.00000000e+00  0.00000000e+00  0.00000000e+00  0.00000000e+00
  0.00000000e+00  0.00000000e+00  0.00000000e+00  0.00000000e+00
  0.00000000e+00  0.00000000e+00  0.00000000e+00  0.00000000e+00
  0.00000000e+00  0.00000000e+00  0.00000000e+00  0.00000000e+00
  0.00000000e+00  0.00000000e+00 -1.23402281e-06 -4.43038134e-07
  0.00000000e+00  0.00000000e+00  0.00000000e+00  3.60011619e-06]","[[ 0.00023052  0.01636562]
 [-0.00028105  0.00753295]]",[],0.0,0.0
1787210422.756941,1.7544144605523049,1.136340498619198,2.205831268607813,"[ 1.90038006e-05  8.48428505e-07  0.00000000e+00  0.00000000e+00
  0.00000000e+00 -1.23402281e-06  8.48428505e-07  1.37132868e-05
  0.00000000e+00  0.00000000e+00  0.00000000e+00 -4.43038134e-07
  0.00000000e+00  0.00000000e+00  0.00000000e+00  0.00000000e+00
  0.00000000e+00  0.00000000e+00  0.00000000e+00  0.00000000e+00
  0.00000000e+00  0.00000000e+00  0.00000000e+00  0.00000000e+00
  0.00000000e+00  0.00000000e+00  0.00000000e+00  0.00000000e+00
  0.00000000e+00  0.00000000e+00 -1.23402281e-06 -4.43038134e-07
  0.00000000e+00  0.00000000e+00  0.00000000e+00  3.60011619e-06]","[[ 0.00023052  0.01636562]
 [-0.00028105  0.00753295]]",[],0.0,0.0
1787210422.8522732,1.7544144605523049,1.136340498619198,2.205831268607813,"[ 1.90038006e-05  8.48428505e-07  0.00000000e+00  0.00000000e+00
  0.00000000e+00 -1.23402281e-06  8.48428505e-07  1.37132868e-05
  0.00000000e+00  0.00000000e+00  0.00000000e+00 -4.43038134e-07
  0.00000000e+00  0.00000000e+00  0.00000000e+00  0.00000000e+00
  0.00000000e+00  0.00000000e+00  0.00000000e+00  0.00000000e+00
  0.00000000e+00  0.00000000e+00  0.00000000e+00  0.00000000e+00
  0.00000000e+00  0.00000000e+00  0.00000000e+00  0.00000000e+00
  0.00000000e+00  0.00000000e+00 -1.23402281e-06 -4.43038134e-07
  0.00000000e+00  0.00000000e+00  0.00000000e+00  3.60011619e-06]","[[ 0.00023052  0.01636562]
 [-0.00028105  0.00753295]]",[],0.0,0.0
1787210422.8948379,1.7544144605523049,1.136340498619198,2.205831268607813,"[ 1.90038006e-05  8.48428505e-07  0.00000000e+00  0.00000000e+00
  0.00000000e+00 -1.23402281e-06  8.48428505e-07  1.37132868e-05
  0.00000000e+00  0.00000000e+00  0.00000000e+00 -4.43038134e-07
  0.00000000e+00  0.00000000e+00  0.00000000e+00  0.00000000e+00
  0.00000000e+00  0.00000000e+00  0.00000000e+00  0.00000000e+00
  0.00000000e+00  0.00000000e+00  0.00000000e+00  0.00000000e+00
  0.00000000e+00  0.00000000e+00  0.00000000e+00  0.00000000e+00
  0.00000000e+00  0.00000000e+00 -1.23402281e-06 -4.43038134e-07
  0.00000000e+00  0.00000000e+00  0.00000000e+00  3.60011619e-06]","[[ 0.00023052  0.01636562]
 [-0.00028105  0.00753295]]",[],0.0,0.0
1787210422.95604,1.756420120608906,1.1227066374214867,2.2361107346469655,"[ 1.48670726e-05  8.20077844e-07  0.00000000e+00  0.00000000e+00
  0.00000000e+00 -1.05860631e-06  8.20077844e-07  1.09773111e-05
  0.00000000e+00  0.00000000e+00  0.00000000e+00 -5.79286178e-07
  0.00000000e+00  0.00000000e+00  0.00000000e+00  0.00000000e+00
  0.00000000e+00  0.00000000e+00  0.00000000e+00  0.00000000e+00
  0.00000000e+00  0.00000000e+00  0.00000000e+00  0.00000000e+00
  0.00000000e+00  0.00000000e+00  0.00000000e+00  0.00000000e+00
  0.00000000e+00  0.00000000e+00 -1.05860631e-06 -5.79286178e-07
  0.00000000e+00  0.00000000e+00  0.00000000e+00  3.51254880e-06]","[[-0.00023157  0.0109211 ]
 [-0.00023579 -0.00350675]]",[],0.0,0.0
1787210423.0101676,1.756420120608906,1.1227066374214867,2.2361107346469655,"[ 1.48670726e-05  8.20077844e-07  0.00000000e+00  0.00000000e+00
  0.00000000e+00 -1.05860631e-06  8.20077844e-07  1.09773111e-05
  0.00000000e+00  0.00000000e+00  0.00000000e+00 -5.79286178e-07
  0.00000000e+00  0.00000000e+00  0.00000000e+00  0.00000000e+00
  0.00000000e+00  0.00000000e+00  0.00000000e+00  0.00000000e+00
  0.00000000e+00  0.00000000e+00  0.00000000e+00  0.00000000e+00
  0.00000000e+00  0.00000000e+00  0.00000000e+00  0.00000000e+00
  0.00000000e+00  0.00000000e+00 -1.05860631e-06 -5.79286178e-07
  0.00000000e+00  0.00000000e+00  0.00000000e+00  3.51254880e-06]","[[-0.00023157  0.0109211 ]
 [-0.00023579 -0.00350675]]",[],0.0,0.0
1787210423.0380182,1.756420120608906,1.1227066374214867,2.2361107346469655,"[ 1.48670726e-05  8.20077844e-07  0.00000000e+00  0.00000000e+00
  0.00000000e+00 -1.05860631e-06  8.20077844e-07  1.09773111e-05
  0.00000000e+00  0.00000000e+00  0.00000000e+00 -5.79286178e-07
  0.00000000e+00  0.00000000e+00  0.00000000e+00  0.00000000e+00
  0.00000000e+00  0.00000000e+00  0.00000000e+00  0.00000000e+00
  0.00000000e+00  0.00000000e+00  0.00000000e+00  0.00000000e+00
  0.00000000e+00  0.00000000e+00  0.00000000e+00  0.00000000e+00
  0.00000000e+00  0.00000000e+00 -1.05860631e-06 -5.79286178e-07
  0.00000000e+00  0.00000000e+00  0.00000000e+00  3.51254880e-06]","[[-0.00023157  0.0109211 ]
 [-0.00023579 -0.00350675]]",[],0.0,0.0
1787210423.1081233,1.756420120608906,1.1227066374214867,2.2361107346469655,"[ 1.48670726e-05  8.20077844e-07  0.00000000e+00  0.00000000e+00
  0.00000000e+00 -1.05860631e-06  8.20077844e-07  1.09773111e-05
  0.00000000e+00  0.00000000e+00  0.00000000e+00 -5.79286178e-07
  0.00000000e+00  0.00000000e+00  0.00000000e+00  0.00000000e+00
  0.00000000e+00  0.00000000e+00  0.00000000e+00  0.00000000e+00
  0.00000000e+00  0.00000000e+00  0.00000000e+00  0.00000000e+00
  0.00000000e+00  0.00000000e+00  0.00000000e+00  0.00000000e+00
  0.00000000e+00  0.00000000e+00 -1.05860631e-06 -5.79286178e-07
  0.00000000e+00  0.00000000e+00  0.00000000e+00  3.51254880e-06]","[[-0.00023157  0.0109211 ]
 [-0.00023579 -0.00350675]]",[],0.0,0.0
1787210423.16157,1.756420120608906,1.1227066374214867,2.2361107346469655,"[ 1.48670726e-05  8.20077844e-07  0.00000000e+00  0.00000000e+00
  0.00000000e+00 -1.05860631e-06  8.20077844e-07  1.09773111e-05
  0.00000000e+00  0.00000000e+00  0.00000000e+00 -5.79286178e-07
  0.00000000e+00  0.00000000e+00  0.00000000e+00  0.00000000e+00
  0.00000000e+00  0.00000000e+00  0.00000000e+00  0.00000000e+00
  0.00000000e+00  0.00000000e+00  0.00000000e+00  0.00000000e+00
  0.00000000e+00  0.00000000e+00  0.00000000e+00  0.00000000e+00
  0.00000000e+00  0.00000000e+00 -1.05860631e-06 -5.79286178e-07
  0.00000000e+00  0.00000000e+00  0.00000000e+00  3.51254880e-06]","[[-0.00023157  0.0109211 ]
 [-0.00023579 -0.00350675]]",[],0.0,0.0
1787210423.1913402,1.756420120608906,1.1227066374214867,2.2361107346469655,"[ 1.48670726e-05  8.20077844e-07  0.00000000e+00  0.00000000e+00
  0.00000000e+00 -1.05860631e-06  8.20077844e-07  1.09773111e-05
  0.00000000e+00  0.00000000e+00  0.00000000e+00 -5.79286178e-07
  0.00000000e+00  0.00000000e+00  0.00000000e+00  0.00000000e+00
  0.00000000e+00  0.00000000e+00  0.00000000e+00  0.00000000e+00
  0.00000000e+00  0.00000000e+00  0.00000000e+00  0.00000000e+00
  0.00000000e+00  0.00000000e+00  0.00000000e+00  0.00000000e+00
  0.00000000e+00  0.00000000e+00 -1.05860631e-06 -5.79286178e-07
  0.00000000e+00  0.00000000e+00  0.00000000e+00  3.51254880e-06]","[[-0.00023157  0.0109211 ]
 [-0.00023579 -0.00350675]]",[],0.0,0.0
1787210423.237726,1.756420120608906,1.1227066374214867,2.2361107346469655,"[ 1.48670726e-05  8.20077844e-07  0.00000000e+00  0.00000000e+00
  0.00000000e+00 -1.05860631e-06  8.20077844e-07  1.09773111e-05
  0.00000000e+00  0.00000000e+00  0.00000000e+00 -5.79286178e-07
  0.00000000e+00  0.00000000e+00  0.00000000e+00  0.00000000e+00
  0.00000000e+00  0.00000000e+00  0.00000000e+00  0.00000000e+00
  0.00000000e+00  0.00000000e+00  0.00000000e+00  0.00000000e+00
  0.00000000e+00  0.00000000e+00  0.00000000e+00  0.00000000e+00
  0.00000000e+00  0.00000000e+00 -1.05860631e-06 -5.79286178e-07
  0.00000000e+00  0.00000000e+00  0.00000000e+00  3.51254880e-06]","[[-0.00023157  0.0109211 ]
 [-0.00023579 -0.00350675]]",[],0.0,0.0
1787210423.3086019,1.756420120608906,1.1227066374214867,2.2361107346469655,"[ 1.48670726e-05  8.20077844e-07  0.00000000e+00  0.00000000e+00
  0.00000000e+00 -1.05860631e-06  8.20077844e-07  1.09773111e-05
  0.00000000e+00  0.00000000e+00  0.00000000e+00 -5.79286178e-07
  0.00000000e+00  0.00000000e+00  0.00000000e+00  0.00000000e+00
  0.00000000e+00  0.00000000e+00  0.00000000e+00  0.00000000e+00
  0.00000000e+00  0.00000000e+00  0.00000000e+00  0.00000000e+00
  0.00000000e+00  0.00000000e+00  0.00000000e+00  0.00000000e+00
  0.00000000e+00  0.00000000e+00 -1.05860631e-06 -5.79286178e-07
  0.00000000e+00  0.00000000e+00  0.00000000e+00  3.51254880e-06]","[[-0.00023157  0.0109211 ]
 [-0.00023579 -0.00350675]]",[],0.0,0.0
1787210423.3385847,1.756420120608906,1.1227066374214867,2.2361107346469655,"[ 1.48670726e-05  8.20077844e-07  0.00000000e+00  0.00000000e+00
  0.00000000e+00 -1.05860631e-06  8.20077844e-07  1.09773111e-05
  0.00000000e+00  0.00000000e+00  0.00000000e+00 -5.79286178e-07
  0.00000000e+00  0.00000000e+00  0.00000000e+00  0.00000000e+00
  0.00000000e+00  0.00000000e+00  0.00000000e+00  0.00000000e+00
  0.00000000e+00  0.00000000e+00  0.00000000e+00  0.00000000e+00
  0.00000000e+00  0.00000000e+00  0.00000000e+00  0.00000000e+00
  0.00000000e+00  0.00000000e+00 -1.05860631e-06 -5.79286178e-07
  0.00000000e+00  0.00000000e+00  0.00000000e+00  3.51254880e-06]","[[-0.00023157  0.0109211 ]
 [-0.00023579 -0.00350675]]",[],0.0,0.0
1787210423.3852882,1.756420120608906,1.1227066374214867,2.2361107346469655,"[ 1.48670726e-05  8.20077844e-07  0.00000000e+00  0.00000000e+00
  0.00000000e+00 -1.05860631e-06  8.20077844e-07  1.09773111e-05
  0.00000000e+00  0.00000000e+00  0.00000000e+00 -5.79286178e-07
  0.00000000e+00  0.00000000e+00  0.00000000e+00  0.00000000e+00
  0.00000000e+00  0.00000000e+00  0.00000000e+00  0.00000000e+00
  0.00000000e+00  0.00000000e+00  0.00000000e+00  0.00000000e+00
  0.00000000e+00  0.00000000e+00  0.00000000e+00  0.00000000e+00
  0.00000000e+00  0.00000000e+00 -1.05860631e-06 -5.79286178e-07
  0.00000000e+00  0.00000000e+00  0.00000000e+00  3.51254880e-06]","[[-0.00023157  0.0109211 ]
 [-0.00023579 -0.00350675]]",[],0.0,0.0
1787210423.4343913,1.756420120608906,1.1227066374214867,2.2361107346469655,"[ 1.48670726e-05  8.20077844e-07  0.00000000e+00  0.00000000e+00
  0.00000000e+00 -1.05860631e-06  8.20077844e-07  1.09773111e-05
  0.00000000e+00  0.00000000e+00  0.00000000e+00 -5.79286178e-07
  0.00000000e+00  0.00000000e+00  0.00000000e+00  0.00000000e+00
  0.00000000e+00  0.00000000e+00  0.00000000e+00  0.00000000e+00
  0.00000000e+00  0.00000000e+00  0.00000000e+00  0.00000000e+00
  0.00000000e+00  0.00000000e+00  0.00000000e+00  0.00000000e+00
  0.00000000e+00  0.00000000e+00 -1.05860631e-06 -5.79286178e-07
  0.00000000e+00  0.00000000e+00  0.00000000e+00  3.51254880e-06]","[[-0.00023157  0.0109211 ]
 [-0.00023579 -0.00350675]]",[],0.0,0.0
1787210423.4883032,1.756420120608906,1.1227066374214867,2.2361107346469655,"[ 1.48670726e-05  8.20077844e-07  0.00000000e+00  0.00000000e+00
  0.00000000e+00 -1.05860631e-06  8.20077844e-07  1.09773111e-05
  0.00000000e+00  0.00000000e+00  0.00000000e+00 -5.79286178e-07
  0.00000000e+00  0.00000000e+00  0.00000000e+00  0.00000000e+00
  0.00000000e+00  0.00000000e+00  0.00000000e+00  0.00000000e+00
  0.00000000e+00  0.00000000e+00  0.00000000e+00  0.00000000e+00
  0.00000000e+00  0.00000000e+00  0.00000000e+00  0.00000000e+00
  0.00000000e+00  0.00000000e+00 -1.05860631e-06 -5.79286178e-07
  0.00000000e+00  0.00000000e+00  0.00000000e+00  3.51254880e-06]","[[-0.00023157  0.0109211 ]
 [-0.00023579 -0.00350675]]",[],0.0,0.0
1787210423.548969,1.756420120608906,1.1227066374214867,2.2361107346469655,"[ 1.48670726e-05  8.20077844e-07  0.00000000e+00  0.00000000e+00
  0.00000000e+00 -1.05860631e-06  8.20077844e-07  1.09773111e-05
  0.00000000e+00  0.00000000e+00  0.00000000e+00 -5.79286178e-07
  0.00000000e+00  0.00000000e+00  0.00000000e+00  0.00000000e+00
  0.00000000e+00  0.00000000e+00  0.00000000e+00  0.00000000e+00
  0.00000000e+00  0.00000000e+00  0.00000000e+00  0.00000000e+00
  0.00000000e+00  0.00000000e+00  0.00000000e+00  0.00000000e+00
  0.00000000e+00  0.00000000e+00 -1.05860631e-06 -5.79286178e-07
  0.00000000e+00  0.00000000e+00  0.00000000e+00  3.51254880e-06]","[[-0.00023157  0.0109211 ]
 [-0.00023579 -0.00350675]]",[],0.0,0.0
1787210423.5866537,1.756420120608906,1.1227066374214867,2.2361107346469655,"[ 1.48670726e-05  8.20077844e-07  0.00000000e+00  0.00000000e+00
  0.00000000e+00 -1.05860631e-06  8.20077844e-07  1.09773111e-05
  0.00000000e+00  0.00000000e+00  0.00000000e+00 -5.79286178e-07
  0.00000000e+00  0.00000000e+00  0.00000000e+00  0.00000000e+00
  0.00000000e+00  0.00000000e+00  0.00000000e+00  0.00000000e+00
  0.00000000e+00  0.00000000e+00  0.00000000e+00  0.00000000e+00
  0.00000000e+00  0.00000000e+00  0.00000000e+00  0.00000000e+00
  0.00000000e+00  0.00000000e+00 -1.05860631e-06 -5.79286178e-07
  0.00000000e+00  0.00000000e+00  0.00000000e+00  3.51254880e-06]","[[-0.00023157  0.0109211 ]
 [-0.00023579 -0.00350675]]",[],0.0,0.0
1787210423.6343434,1.756420120608906,1.1227066374214867,2.2361107346469655,"[ 1.48670726e-05  8.20077844e-07  0.00000000e+00  0.00000000e+00
  0.00000000e+00 -1.05860631e-06  8.20077844e-07  1.09773111e-05
  0.00000000e+00  0.00000000e+00  0.00000000e+00 -5.79286178e-07
  0.00000000e+00  0.00000000e+00  0.00000000e+00  0.00000000e+00
  0.00000000e+00  0.00000000e+00  0.00000000e+00  0.00000000e+00
  0.00000000e+00  0.00000000e+00  0.00000000e+00  0.00000000e+00
  0.00000000e+00  0.00000000e+00  0.00000000e+00  0.00000000e+00
  0.00000000e+00  0.00000000e+00 -1.05860631e-06 -5.79286178e-07
  0.00000000e+00  0.00000000e+00  0.00000000e+00  3.51254880e-06]","[[-0.00023157  0.0109211 ]
 [-0.00023579 -0.00350675]]",[],0.0,0.0
1787210423.6869802,1.7570226318725597,1.1057630621186803,2.284657258308206,"[ 1.22615624e-05  6.65199886e-07  0.00000000e+00  0.00000000e+00
  0.00000000e+00 -7.14761865e-07  6.65199886e-07  9.20552850e-06
  0.00000000e+00  0.00000000e+00  0.00000000e+00 -2.10115704e-07
  0.00000000e+00  0.00000000e+00  0.00000000e+00  0.00000000e+00
  0.00000000e+00  0.00000000e+00  0.00000000e+00  0.00000000e+00
  0.00000000e+00  0.00000000e+00  0.00000000e+00  0.00000000e+00
  0.00000000e+00  0.00000000e+00  0.00000000e+00  0.00000000e+00
  0.00000000e+00  0.00000000e+00 -7.14761865e-07 -2.10115704e-07
  0.00000000e+00  0.00000000e+00  0.00000000e+00  3.55416421e-06]","[[ 0.00014415  0.01035456]
 [-0.00018844  0.00485357]]",[],0.0,0.0
1787210423.7362704,1.7570226318725597,1.1057630621186803,2.284657258308206,"[ 1.22615624e-05  6.65199886e-07  0.00000000e+00  0.00000000e+00
  0.00000000e+00 -7.14761865e-07  6.65199886e-07  9.20552850e-06
  0.00000000e+00  0.00000000e+00  0.00000000e+00 -2.10115704e-07
  0.00000000e+00  0.00000000e+00  0.00000000e+00  0.00000000e+00
  0.00000000e+00  0.00000000e+00  0.00000000e+00  0.00000000e+00
  0.00000000e+00  0.00000000e+00  0.00000000e+00  0.00000000e+00
  0.00000000e+00  0.00000000e+00  0.00000000e+00  0.00000000e+00
  0.00000000e+00  0.00000000e+00 -7.14761865e-07 -2.10115704e-07
  0.00000000e+00  0.00000000e+00  0.00000000e+00  3.55416421e-06]","[[ 0.00014415  0.01035456]
 [-0.00018844  0.00485357]]",[],0.0,0.0
1787210423.7864854,1.7570226318725597,1.1057630621186803,2.284657258308206,"[ 1.22615624e-05  6.65199886e-07  0.00000000e+00  0.00000000e+00
  0.00000000e+00 -7.14761865e-07  6.65199886e-07  9.20552850e-06
  0.00000000e+00  0.00000000e+00  0.00000000e+00 -2.10115704e-07
  0.00000000e+00  0.00000000e+00  0.00000000e+00  0.00000000e+00
  0.00000000e+00  0.00000000e+00  0.00000000e+00  0.00000000e+00
  0.00000000e+00  0.00000000e+00  0.00000000e+00  0.00000000e+00
  0.00000000e+00  0.00000000e+00  0.00000000e+00  0.00000000e+00
  0.00000000e+00  0.00000000e+00 -7.14761865e-07 -2.10115704e-07
  0.00000000e+00  0.00000000e+00  0.00000000e+00  3.55416421e-06]","[[ 0.00014415  0.01035456]
 [-0.00018844  0.00485357]]",[],0.0,0.0
1787210423.8342457,1.7570226318725597,1.1057630621186803,2.284657258308206,"[ 1.22615624e-05  6.65199886e-07  0.00000000e+00  0.00000000e+00
  0.00000000e+00 -7.14761865e-07  6.65199886e-07  9.20552850e-06
  0.00000000e+00  0.00000000e+00  0.00000000e+00 -2.10115704e-07
  0.00000000e+00  0.00000000e+00  0.00000000e+00  0.00000000e+00
  0.00000000e+00  0.00000000e+00  0.00000000e+00  0.00000000e+00
  0.00000000e+00  0.00000000e+00  0.00000000e+00  0.00000000e+00
  0.00000000e+00  0.00000000e+00  0.00000000e+00  0.00000000e+00
  0.00000000e+00  0.00000000e+00 -7.14761865e-07 -2.10115704e-07
  0.00000000e+00  0.00000000e+00  0.00000000e+00  3.55416421e-06]","[[ 0.00014415  0.01035456]
 [-0.00018844  0.00485357]]",[],0.0,0.0
1787210423.8853257,1.7570226318725597,1.1057630621186803,2.284657258308206,"[ 1.22615624e-05  6.65199886e-07  0.00000000e+00  0.00000000e+00
  0.00000000e+00 -7.14761865e-07  6.65199886e-07  9.20552850e-06
  0.00000000e+00  0.00000000e+00  0.00000000e+00 -2.10115704e-07
  0.00000000e+00  0.00000000e+00  0.00000000e+00  0.00000000e+00
  0.00000000e+00  0.00000000e+00  0.00000000e+00  0.00000000e+00
  0.00000000e+00  0.00000000e+00  0.00000000e+00  0.00000000e+00
  0.00000000e+00  0.00000000e+00  0.00000000e+00  0.00000000e+00
  0.00000000e+00  0.00000000e+00 -7.14761865e-07 -2.10115704e-07
  0.00000000e+00  0.00000000e+00  0.00000000e+00  3.55416421e-06]","[[ 0.00014415  0.01035456]
 [-0.00018844  0.00485357]]",[],0.0,0.0
1787210423.9399052,1.7570226318725597,1.1057630621186803,2.284657258308206,"[ 1.22615624e-05  6.65199886e-07  0.00000000e+00  0.00000000e+00
  0.00000000e+00 -7.14761865e-07  6.65199886e-07  9.20552850e-06
  0.00000000e+00  0.00000000e+00  0.00000000e+00 -2.10115704e-07
  0.00000000e+00  0.00000000e+00  0.00000000e+00  0.00000000e+00
  0.00000000e+00  0.00000000e+00  0.00000000e+00  0.00000000e+00
  0.00000000e+00  0.00000000e+00  0.00000000e+00  0.00000000e+00
  0.00000000e+00  0.00000000e+00  0.00000000e+00  0.00000000e+00
  0.00000000e+00  0.00000000e+00 -7.14761865e-07 -2.10115704e-07
  0.00000000e+00  0.00000000e+00  0.00000000e+00  3.55416421e-06]","[[ 0.00014415  0.01035456]
 [-0.00018844  0.00485357]]",[],0.0,0.0
1787210423.9839218,1.7570226318725597,1.1057630621186803,2.284657258308206,"[ 1.22615624e-05  6.65199886e-07  0.00000000e+00  0.00000000e+00
  0.00000000e+00 -7.14761865e-07  6.65199886e-07  9.20552850e-06
  0.00000000e+00  0.00000000e+00  0.00000000e+00 -2.10115704e-07
  0.00000000e+00  0.00000000e+00  0.00000000e+00  0.00000000e+00
  0.00000000e+00  0.00000000e+00  0.00000000e+00  0.00000000e+00
  0.00000000e+00  0.00000000e+00  0.00000000e+00  0.00000000e+00
  0.00000000e+00  0.00000000e+00  0.00000000e+00  0.00000000e+00
  0.00000000e+00  0.00000000e+00 -7.14761865e-07 -2.10115704e-07
  0.00000000e+00  0.00000000e+00  0.00000000e+00  3.55416421e-06]","[[ 0.00014415  0.01035456]
 [-0.00018844  0.00485357]]",[],0.0,0.0
1787210424.03575,1.7570226318725597,1.1057630621186803,2.284657258308206,"[ 1.22615624e-05  6.65199886e-07  0.00000000e+00  0.00000000e+00
  0.00000000e+00 -7.14761865e-07  6.65199886e-07  9.20552850e-06
  0.00000000e+00  0.00000000e+00  0.00000000e+00 -2.10115704e-07
  0.00000000e+00  0.00000000e+00  0.00000000e+00  0.00000000e+00
  0.00000000e+00  0.00000000e+00  0.00000000e+00  0.00000000e+00
  0.00000000e+00  0.00000000e+00  0.00000000e+00  0.00000000e+00
  0.00000000e+00  0.00000000e+00  0.00000000e+00  0.00000000e+00
  0.00000000e+00  0.00000000e+00 -7.14761865e-07 -2.10115704e-07
  0.00000000e+00  0.00000000e+00  0.00000000e+00  3.55416421e-06]","[[ 0.00014415  0.01035456]
 [-0.00018844  0.00485357]]",[],0.0,0.0
1787210424.08715,1.7570226318725597,1.1057630621186803,2.284657258308206,"[ 1.22615624e-05  6.65199886e-07  0.00000000e+00  0.00000000e+00
  0.00000000e+00 -7.14761865e-07  6.65199886e-07  9.20552850e-06
  0.00000000e+00  0.00000000e+00  0.00000000e+00 -2.10115704e-07
  0.00000000e+00  0.00000000e+00  0.00000000e+00  0.00000000e+00
  0.00000000e+00  0.00000000e+00  0.00000000e+00  0.00000000e+00
  0.00000000e+00  0.00000000e+00  0.00000000e+00  0.00000000e+00
  0.00000000e+00  0.00000000e+00  0.00000000e+00  0.00000000e+00
  0.00000000e+00  0.00000000e+00 -7.14761865e-07 -2.10115704e-07
  0.00000000e+00  0.00000000e+00  0.00000000e+00  3.55416421e-06]","[[ 0.00014415  0.01035456]
 [-0.00018844  0.00485357]]",[],0.0,0.0
1787210424.133871,1.7570226318725597,1.1057630621186803,2.284657258308206,"[ 1.22615624e-05  6.65199886e-07  0.00000000e+00  0.00000000e+00
  0.00000000e+00 -7.14761865e-07  6.65199886e-07  9.20552850e-06
  0.00000000e+00  0.00000000e+00  0.00000000e+00 -2.10115704e-07
  0.00000000e+00  0.00000000e+00  0.00000000e+00  0.00000000e+00
  0.00000000e+00  0.00000000e+00  0.00000000e+00  0.00000000e+00
  0.00000000e+00  0.00000000e+00  0.00000000e+00  0.00000000e+00
  0.00000000e+00  0.00000000e+00  0.00000000e+00  0.00000000e+00
  0.00000000e+00  0.00000000e+00 -7.14761865e-07 -2.10115704e-07
  0.00000000e+00  0.00000000e+00  0.00000000e+00  3.55416421e-06]","[[ 0.00014415  0.01035456]
 [-0.00018844  0.00485357]]",[],0.0,0.0
1787210424.190116,1.7570226318725597,1.1057630621186803,2.284657258308206,"[ 1.22615624e-05  6.65199886e-07  0.00000000e+00  0.00000000e+00
  0.00000000e+00 -7.14761865e-07  6.65199886e-07  9.20552850e-06
  0.00000000e+00  0.00000000e+00  0.00000000e+00 -2.10115704e-07
  0.00000000e+00  0.00000000e+00  0.00000000e+00  0.00000000e+00
  0.00000000e+00  0.00000000e+00  0.00000000e+00  0.00000000e+00
  0.00000000e+00  0.00000000e+00  0.00000000e+00  0.00000000e+00
  0.00000000e+00  0.00000000e+00  0.00000000e+00  0.00000000e+00
  0.00000000e+00  0.00000000e+00 -7.14761865e-07 -2.10115704e-07
  0.00000000e+00  0.00000000e+00  0.00000000e+00  3.55416421e-06]","[[ 0.00014415  0.01035456]
 [-0.00018844  0.00485357]]",[],0.0,0.0
1787210424.253606,1.7570226318725597,1.1057630621186803,2.284657258308206,"[ 1.22615624e-05  6.65199886e-07  0.00000000e+00  0.00000000e+00
  0.00000000e+00 -7.14761865e-07  6.65199886e-07  9.20552850e-06
  0.00000000e+00  0.00000000e+00  0.00000000e+00 -2.10115704e-07
  0.00000000e+00  0.00000000e+00  0.00000000e+00  0.00000000e+00
  0.00000000e+00  0.00000000e+00  0.00000000e+00  0.00000000e+00
  0.00000000e+00  0.00000000e+00  0.00000000e+00  0.00000000e+00
  0.00000000e+00  0.00000000e+00  0.00000000e+00  0.00000000e+00
  0.00000000e+00  0.00000000e+00 -7.14761865e-07 -2.10115704e-07
  0.00000000e+00  0.00000000e+00  0.00000000e+00  3.55416421e-06]","[[ 0.00014415  0.01035456]
 [-0.00018844  0.00485357]]",[],0.0,0.0
1787210424.2909708,1.7570226318725597,1.1057630621186803,2.284657258308206,"[ 1.22615624e-05  6.65199886e-07  0.00000000e+00  0.00000000e+00
  0.00000000e+00 -7.14761865e-07  6.65199886e-07  9.20552850e-06
  0.00000000e+00  0.00000000e+00  0.00000000e+00 -2.10115704e-07
  0.00000000e+00  0.00000000e+00  0.00000000e+00  0.00000000e+00
  0.00000000e+00  0.00000000e+00  0.00000000e+00  0.00000000e+00
  0.00000000e+00  0.00000000e+00  0.00000000e+00  0.00000000e+00
  0.00000000e+00  0.00000000e+00  0.00000000e+00  0.00000000e+00
  0.00000000e+00  0.00000000e+00 -7.14761865e-07 -2.10115704e-07
  0.00000000e+00  0.00000000e+00  0.00000000e+00  3.55416421e-06]","[[ 0.00014415  0.01035456]
 [-0.00018844  0.00485357]]",[],0.0,0.0
1787210424.3467205,1.7570226318725597,1.1057630621186803,2.284657258308206,"[ 1.22615624e-05  6.65199886e-07  0.00000000e+00  0.00000000e+00
  0.00000000e+00 -7.14761865e-07  6.65199886e-07  9.20552850e-06
  0.00000000e+00  0.00000000e+00  0.00000000e+00 -2.10115704e-07
  0.00000000e+00  0.00000000e+00  0.00000000e+00  0.00000000e+00
  0.00000000e+00  0.00000000e+00  0.00000000e+00  0.00000000e+00
  0.00000000e+00  0.00000000e+00  0.00000000e+00  0.00000000e+00
  0.00000000e+00  0.00000000e+00  0.00000000e+00  0.00000000e+00
  0.00000000e+00  0.00000000e+00 -7.14761865e-07 -2.10115704e-07
  0.00000000e+00  0.00000000e+00  0.00000000e+00  3.55416421e-06]","[[ 0.00014415  0.01035456]
 [-0.00018844  0.00485357]]",[],0.0,0.0
1787210424.384755,1.7570226318725597,1.1057630621186803,2.284657258308206,"[ 1.22615624e-05  6.65199886e-07  0.00000000e+00  0.00000000e+00
  0.00000000e+00 -7.14761865e-07  6.65199886e-07  9.20552850e-06
  0.00000000e+00  0.00000000e+00  0.00000000e+00 -2.10115704e-07
  0.00000000e+00  0.00000000e+00  0.00000000e+00  0.00000000e+00
  0.00000000e+00  0.00000000e+00  0.00000000e+00  0.00000000e+00
  0.00000000e+00  0.00000000e+00  0.00000000e+00  0.00000000e+00
  0.00000000e+00  0.00000000e+00  0.00000000e+00  0.00000000e+00
  0.00000000e+00  0.00000000e+00 -7.14761865e-07 -2.10115704e-07
  0.00000000e+00  0.00000000e+00  0.00000000e+00  3.55416421e-06]","[[ 0.00014415  0.01035456]
 [-0.00018844  0.00485357]]",[],0.0,0.0
1787210424.4339287,1.7570226318725597,1.1057630621186803,2.284657258308206,"[ 1.22615624e-05  6.65199886e-07  0.00000000e+00  0.00000000e+00
  0.00000000e+00 -7.14761865e-07  6.65199886e-07  9.20552850e-06
  0.00000000e+00  0.00000000e+00  0.00000000e+00 -2.10115704e-07
  0.00000000e+00  0.00000000e+00  0.00000000e+00  0.00000000e+00
  0.00000000e+00  0.00000000e+00  0.00000000e+00  0.00000000e+00
  0.00000000e+00  0.00000000e+00  0.00000000e+00  0.00000000e+00
  0.00000000e+00  0.00000000e+00  0.00000000e+00  0.00000000e+00
  0.00000000e+00  0.00000000e+00 -7.14761865e-07 -2.10115704e-07
  0.00000000e+00  0.00000000e+00  0.00000000e+00  3.55416421e-06]","[[ 0.00014415  0.01035456]
 [-0.00018844  0.00485357]]",[],0.0,0.0
1787210424.4899127,1.756825352938543,1.0906839889991455,2.3241436085136353,"[ 1.03571342e-05  5.17692845e-07  0.00000000e+00  0.00000000e+00
  0.00000000e+00 -6.16742339e-07  5.17692845e-07  7.87619580e-06
  0.00000000e+00  0.00000000e+00  0.00000000e+00 -1.88217458e-07
  0.00000000e+00  0.00000000e+00  0.00000000e+00  0.00000000e+00
  0.00000000e+00  0.00000000e+00  0.00000000e+00  0.00000000e+00
  0.00000000e+00  0.00000000e+00  0.00000000e+00  0.00000000e+00
  0.00000000e+00  0.00000000e+00  0.00000000e+00  0.00000000e+00
  0.00000000e+00  0.00000000e+00 -6.16742339e-07 -1.88217458e-07
  0.00000000e+00  0.00000000e+00  0.00000000e+00  3.40481078e-06]","[[ 0.00012175  0.00870747]
 [-0.00016237  0.00407785]]",[],0.0,0.0
1787210424.5351148,1.756825352938543,1.0906839889991455,2.3241436085136353,"[ 1.03571342e-05  5.17692845e-07  0.00000000e+00  0.00000000e+00
  0.00000000e+00 -6.16742339e-07  5.17692845e-07  7.87619580e-06
  0.00000000e+00  0.00000000e+00  0.00000000e+00 -1.88217458e-07
  0.00000000e+00  0.00000000e+00  0.00000000e+00  0.00000000e+00
  0.00000000e+00  0.00000000e+00  0.00000000e+00  0.00000000e+00
  0.00000000e+00  0.00000000e+00  0.00000000e+00  0.00000000e+00
  0.00000000e+00  0.00000000e+00  0.00000000e+00  0.00000000e+00
  0.00000000e+00  0.00000000e+00 -6.16742339e-07 -1.88217458e-07
  0.00000000e+00  0.00000000e+00  0.00000000e+00  3.40481078e-06]","[[ 0.00012175  0.00870747]
 [-0.00016237  0.00407785]]",[],0.0,0.0
1787210424.584005,1.756825352938543,1.0906839889991455,2.3241436085136353,"[ 1.03571342e-05  5.17692845e-07  0.00000000e+00  0.00000000e+00
  0.00000000e+00 -6.16742339e-07  5.17692845e-07  7.87619580e-06
  0.00000000e+00  0.00000000e+00  0.00000000e+00 -1.88217458e-07
  0.00000000e+00  0.00000000e+00  0.00000000e+00  0.00000000e+00
  0.00000000e+00  0.00000000e+00  0.00000000e+00  0.00000000e+00
  0.00000000e+00  0.00000000e+00  0.00000000e+00  0.00000000e+00
  0.00000000e+00  0.00000000e+00  0.00000000e+00  0.00000000e+00
  0.00000000e+00  0.00000000e+00 -6.16742339e-07 -1.88217458e-07
  0.00000000e+00  0.00000000e+00  0.00000000e+00  3.40481078e-06]","[[ 0.00012175  0.00870747]
 [-0.00016237  0.00407785]]",[],0.0,0.0
1787210424.637211,1.756825352938543,1.0906839889991455,2.3241436085136353,"[ 1.03571342e-05  5.17692845e-07  0.00000000e+00  0.00000000e+00
  0.00000000e+00 -6.16742339e-07  5.17692845e-07  7.87619580e-06
  0.00000000e+00  0.00000000e+00  0.00000000e+00 -1.88217458e-07
  0.00000000e+00  0.00000000e+00  0.00000000e+00  0.00000000e+00
  0.00000000e+00  0.00000000e+00  0.00000000e+00  0.00000000e+00
  0.00000000e+00  0.00000000e+00  0.00000000e+00  0.00000000e+00
  0.00000000e+00  0.00000000e+00  0.00000000e+00  0.00000000e+00
  0.00000000e+00  0.00000000e+00 -6.16742339e-07 -1.88217458e-07
  0.00000000e+00  0.00000000e+00  0.00000000e+00  3.40481078e-06]","[[ 0.00012175  0.00870747]
 [-0.00016237  0.00407785]]",[],0.0,0.0
1787210424.6837845,1.756825352938543,1.0906839889991455,2.3241436085136353,"[ 1.03571342e-05  5.17692845e-07  0.00000000e+00  0.00000000e+00
  0.00000000e+00 -6.16742339e-07  5.17692845e-07  7.87619580e-06
  0.00000000e+00  0.00000000e+00  0.00000000e+00 -1.88217458e-07
  0.00000000e+00  0.00000000e+00  0.00000000e+00  0.00000000e+00
  0.00000000e+00  0.00000000e+00  0.00000000e+00  0.00000000e+00
  0.00000000e+00  0.00000000e+00  0.00000000e+00  0.00000000e+00
  0.00000000e+00  0.00000000e+00  0.00000000e+00  0.00000000e+00
  0.00000000e+00  0.00000000e+00 -6.16742339e-07 -1.88217458e-07
  0.00000000e+00  0.00000000e+00  0.00000000e+00  3.40481078e-06]","[[ 0.00012175  0.00870747]
 [-0.00016237  0.00407785]]",[],0.0,0.0
1787210424.7336807,1.756825352938543,1.0906839889991455,2.3241436085136353,"[ 1.03571342e-05  5.17692845e-07  0.00000000e+00  0.00000000e+00
  0.00000000e+00 -6.16742339e-07  5.17692845e-07  7.87619580e-06
  0.00000000e+00  0.00000000e+00  0.00000000e+00 -1.88217458e-07
  0.00000000e+00  0.00000000e+00  0.00000000e+00  0.00000000e+00
  0.00000000e+00  0.00000000e+00  0.00000000e+00  0.00000000e+00
  0.00000000e+00  0.00000000e+00  0.00000000e+00  0.00000000e+00
  0.00000000e+00  0.00000000e+00  0.00000000e+00  0.00000000e+00
  0.00000000e+00  0.00000000e+00 -6.16742339e-07 -1.88217458e-07
  0.00000000e+00  0.00000000e+00  0.00000000e+00  3.40481078e-06]","[[ 0.00012175  0.00870747]
 [-0.00016237  0.00407785]]",[],0.0,0.0
1787210424.7833984,1.756825352938543,1.0906839889991455,2.3241436085136353,"[ 1.03571342e-05  5.17692845e-07  0.00000000e+00  0.00000000e+00
  0.00000000e+00 -6.16742339e-07  5.17692845e-07  7.87619580e-06
  0.00000000e+00  0.00000000e+00  0.00000000e+00 -1.88217458e-07
  0.00000000e+00  0.00000000e+00  0.00000000e+00  0.00000000e+00
  0.00000000e+00  0.00000000e+00  0.00000000e+00  0.00000000e+00
  0.00000000e+00  0.00000000e+00  0.00000000e+00  0.00000000e+00
  0.00000000e+00  0.00000000e+00  0.00000000e+00  0.00000000e+00
  0.00000000e+00  0.00000000e+00 -6.16742339e-07 -1.88217458e-07
  0.00000000e+00  0.00000000e+00  0.00000000e+00  3.40481078e-06]","[[ 0.00012175  0.00870747]
 [-0.00016237  0.00407785]]",[],0.0,0.0
1787210424.8368073,1.756825352938543,1.0906839889991455,2.3241436085136353,"[ 1.03571342e-05  5.17692845e-07  0.00000000e+00  0.00000000e+00
  0.00000000e+00 -6.16742339e-07  5.17692845e-07  7.87619580e-06
  0.00000000e+00  0.00000000e+00  0.00000000e+00 -1.88217458e-07
  0.00000000e+00  0.00000000e+00  0.00000000e+00  0.00000000e+00
  0.00000000e+00  0.00000000e+00  0.00000000e+00  0.00000000e+00
  0.00000000e+00  0.00000000e+00  0.00000000e+00  0.00000000e+00
  0.00000000e+00  0.00000000e+00  0.00000000e+00  0.00000000e+00
  0.00000000e+00  0.00000000e+00 -6.16742339e-07 -1.88217458e-07
  0.00000000e+00  0.00000000e+00  0.00000000e+00  3.40481078e-06]","[[ 0.00012175  0.00870747]
 [-0.00016237  0.00407785]]",[],0.0,0.0
1787210424.8841329,1.756825352938543,1.0906839889991455,2.3241436085136353,"[ 1.03571342e-05  5.17692845e-07  0.00000000e+00  0.00000000e+00
  0.00000000e+00 -6.16742339e-07  5.17692845e-07  7.87619580e-06
  0.00000000e+00  0.00000000e+00  0.00000000e+00 -1.88217458e-07
  0.00000000e+00  0.00000000e+00  0.00000000e+00  0.00000000e+00
  0.00000000e+00  0.00000000e+00  0.00000000e+00  0.00000000e+00
  0.00000000e+00  0.00000000e+00  0.00000000e+00  0.00000000e+00
  0.00000000e+00  0.00000000e+00  0.00000000e+00  0.00000000e+00
  0.00000000e+00  0.00000000e+00 -6.16742339e-07 -1.88217458e-07
  0.00000000e+00  0.00000000e+00  0.00000000e+00  3.40481078e-06]","[[ 0.00012175  0.00870747]
 [-0.00016237  0.00407785]]",[],0.0,0.0
1787210424.9336753,1.756825352938543,1.0906839889991455,2.3241436085136353,"[ 1.03571342e-05  5.17692845e-07  0.00000000e+00  0.00000000e+00
  0.00000000e+00 -6.16742339e-07  5.17692845e-07  7.87619580e-06
  0.00000000e+00  0.00000000e+00  0.00000000e+00 -1.88217458e-07
  0.00000000e+00  0.00000000e+00  0.00000000e+00  0.00000000e+00
  0.00000000e+00  0.00000000e+00  0.00000000e+00  0.00000000e+00
  0.00000000e+00  0.00000000e+00  0.00000000e+00  0.00000000e+00
  0.00000000e+00  0.00000000e+00  0.00000000e+00  0.00000000e+00
  0.00000000e+00  0.00000000e+00 -6.16742339e-07 -1.88217458e-07
  0.00000000e+00  0.00000000e+00  0.00000000e+00  3.40481078e-06]","[[ 0.00012175  0.00870747]
 [-0.00016237  0.00407785]]",[],0.0,0.0
1787210424.9873893,1.756825352938543,1.0906839889991455,2.3241436085136353,"[ 1.03571342e-05  5.17692845e-07  0.00000000e+00  0.00000000e+00
  0.00000000e+00 -6.16742339e-07  5.17692845e-07  7.87619580e-06
  0.00000000e+00  0.00000000e+00  0.00000000e+00 -1.88217458e-07
  0.00000000e+00  0.00000000e+00  0.00000000e+00  0.00000000e+00
  0.00000000e+00  0.00000000e+00  0.00000000e+00  0.00000000e+00
  0.00000000e+00  0.00000000e+00  0.00000000e+00  0.00000000e+00
  0.00000000e+00  0.00000000e+00  0.00000000e+00  0.00000000e+00
  0.00000000e+00  0.00000000e+00 -6.16742339e-07 -1.88217458e-07
  0.00000000e+00  0.00000000e+00  0.00000000e+00  3.40481078e-06]","[[ 0.00012175  0.00870747]
 [-0.00016237  0.00407785]]",[],0.0,0.0
1787210425.0563424,1.756825352938543,1.0906839889991455,2.3241436085136353,"[ 1.03571342e-05  5.17692845e-07  0.00000000e+00  0.00000000e+00
  0.00000000e+00 -6.16742339e-07  5.17692845e-07  7.87619580e-06
  0.00000000e+00  0.00000000e+00  0.00000000e+00 -1.88217458e-07
  0.00000000e+00  0.00000000e+00  0.00000000e+00  0.00000000e+00
  0.00000000e+00  0.00000000e+00  0.00000000e+00  0.00000000e+00
  0.00000000e+00  0.00000000e+00  0.00000000e+00  0.00000000e+00
  0.00000000e+00  0.00000000e+00  0.00000000e+00  0.00000000e+00
  0.00000000e+00  0.00000000e+00 -6.16742339e-07 -1.88217458e-07
  0.00000000e+00  0.00000000e+00  0.00000000e+00  3.40481078e-06]","[[ 0.00012175  0.00870747]
 [-0.00016237  0.00407785]]",[],0.0,0.0
1787210425.084117,1.756825352938543,1.0906839889991455,2.3241436085136353,"[ 1.03571342e-05  5.17692845e-07  0.00000000e+00  0.00000000e+00
  0.00000000e+00 -6.16742339e-07  5.17692845e-07  7.87619580e-06
  0.00000000e+00  0.00000000e+00  0.00000000e+00 -1.88217458e-07
  0.00000000e+00  0.00000000e+00  0.00000000e+00  0.00000000e+00
  0.00000000e+00  0.00000000e+00  0.00000000e+00  0.00000000e+00
  0.00000000e+00  0.00000000e+00  0.00000000e+00  0.00000000e+00
  0.00000000e+00  0.00000000e+00  0.00000000e+00  0.00000000e+00
  0.00000000e+00  0.00000000e+00 -6.16742339e-07 -1.88217458e-07
  0.00000000e+00  0.00000000e+00  0.00000000e+00  3.40481078e-06]","[[ 0.00012175  0.00870747]
 [-0.00016237  0.00407785]]",[],0.0,0.0
1787210425.1349235,1.756825352938543,1.0906839889991455,2.3241436085136353,"[ 1.03571342e-05  5.17692845e-07  0.00000000e+00  0.00000000e+00
  0.00000000e+00 -6.16742339e-07  5.17692845e-07  7.87619580e-06
  0.00000000e+00  0.00000000e+00  0.00000000e+00 -1.88217458e-07
  0.00000000e+00  0.00000000e+00  0.00000000e+00  0.00000000e+00
  0.00000000e+00  0.00000000e+00  0.00000000e+00  0.00000000e+00
  0.00000000e+00  0.00000000e+00  0.00000000e+00  0.00000000e+00
  0.00000000e+00  0.00000000e+00  0.00000000e+00  0.00000000e+00
  0.00000000e+00  0.00000000e+00 -6.16742339e-07 -1.88217458e-07
  0.00000000e+00  0.00000000e+00  0.00000000e+00  3.40481078e-06]","[[ 0.00012175  0.00870747]
 [-0.00016237  0.00407785]]",[],0.0,0.0
1787210425.185254,1.756825352938543,1.0906839889991455,2.3241436085136353,"[ 1.03571342e-05  5.17692845e-07  0.00000000e+00  0.00000000e+00
  0.00000000e+00 -6.16742339e-07  5.17692845e-07  7.87619580e-06
  0.00000000e+00  0.00000000e+00  0.00000000e+00 -1.88217458e-07
  0.00000000e+00  0.00000000e+00  0.00000000e+00  0.00000000e+00
  0.00000000e+00  0.00000000e+00  0.00000000e+00  0.00000000e+00
  0.00000000e+00  0.00000000e+00  0.00000000e+00  0.00000000e+00
  0.00000000e+00  0.00000000e+00  0.00000000e+00  0.00000000e+00
  0.00000000e+00  0.00000000e+00 -6.16742339e-07 -1.88217458e-07
  0.00000000e+00  0.00000000e+00  0.00000000e+00  3.40481078e-06]","[[ 0.00012175  0.00870747]
 [-0.00016237  0.00407785]]",[],0.0,0.0
1787210425.2498214,1.7563993489608571,1.0782070780496165,2.3518177076371583,"[ 8.90123443e-06  3.68846099e-07  0.00000000e+00  0.00000000e+00
  0.00000000e+00 -4.19825504e-07  3.68846099e-07  6.87487664e-06
  0.00000000e+00  0.00000000e+00  0.00000000e+00 -1.26260800e-07
  0.00000000e+00  0.00000000e+00  0.00000000e+00  0.00000000e+00
  0.00000000e+00  0.00000000e+00  0.00000000e+00  0.00000000e+00
  0.00000000e+00  0.00000000e+00  0.00000000e+00  0.00000000e+00
  0.00000000e+00  0.00000000e+00  0.00000000e+00  0.00000000e+00
  0.00000000e+00  0.00000000e+00 -4.19825504e-07 -1.26260800e-07
  0.00000000e+00  0.00000000e+00  0.00000000e+00  3.37445032e-06]","[[ 0.00012175  0.00870747]
 [-0.00016237  0.00407785]]",[],0.0,0.0
1787210425.2840815,1.7563993489608571,1.0782070780496165,2.3518177076371583,"[ 8.90123443e-06  3.68846099e-07  0.00000000e+00  0.00000000e+00
  0.00000000e+00 -4.19825504e-07  3.68846099e-07  6.87487664e-06
  0.00000000e+00  0.00000000e+00  0.00000000e+00 -1.26260800e-07
  0.00000000e+00  0.00000000e+00  0.00000000e+00  0.00000000e+00
  0.00000000e+00  0.00000000e+00  0.00000000e+00  0.00000000e+00
  0.00000000e+00  0.00000000e+00  0.00000000e+00  0.00000000e+00
  0.00000000e+00  0.00000000e+00  0.00000000e+00  0.00000000e+00
  0.00000000e+00  0.00000000e+00 -4.19825504e-07 -1.26260800e-07
  0.00000000e+00  0.00000000e+00  0.00000000e+00  3.37445032e-06]","[[ 1.82977554e-04  3.32692704e-03]
 [-8.42730743e-05  3.32018599e-03]]",[],0.0,0.0
1787210425.339618,1.7563993489608571,1.0782070780496165,2.3518177076371583,"[ 8.90123443e-06  3.68846099e-07  0.00000000e+00  0.00000000e+00
  0.00000000e+00 -4.19825504e-07  3.68846099e-07  6.87487664e-06
  0.00000000e+00  0.00000000e+00  0.00000000e+00 -1.26260800e-07
  0.00000000e+00  0.00000000e+00  0.00000000e+00  0.00000000e+00
  0.00000000e+00  0.00000000e+00  0.00000000e+00  0.00000000e+00
  0.00000000e+00  0.00000000e+00  0.00000000e+00  0.00000000e+00
  0.00000000e+00  0.00000000e+00  0.00000000e+00  0.00000000e+00
  0.00000000e+00  0.00000000e+00 -4.19825504e-07 -1.26260800e-07
  0.00000000e+00  0.00000000e+00  0.00000000e+00  3.37445032e-06]","[[ 1.82977554e-04  3.32692704e-03]
 [-8.42730743e-05  3.32018599e-03]]",[],0.0,0.0
1787210425.383521,1.7563993489608571,1.0782070780496165,2.3518177076371583,"[ 8.90123443e-06  3.68846099e-07  0.00000000e+00  0.00000000e+00
  0.00000000e+00 -4.19825504e-07  3.68846099e-07  6.87487664e-06
  0.00000000e+00  0.00000000e+00  0.00000000e+00 -1.26260800e-07
  0.00000000e+00  0.00000000e+00  0.00000000e+00  0.00000000e+00
  0.00000000e+00  0.00000000e+00  0.00000000e+00  0.00000000e+00
  0.00000000e+00  0.00000000e+00  0.00000000e+00  0.00000000e+00
  0.00000000e+00  0.00000000e+00  0.00000000e+00  0.00000000e+00
  0.00000000e+00  0.00000000e+00 -4.19825504e-07 -1.26260800e-07
  0.00000000e+00  0.00000000e+00  0.00000000e+00  3.37445032e-06]","[[ 1.82977554e-04  3.32692704e-03]
 [-8.42730743e-05  3.32018599e-03]]",[],0.0,0.0
1787210425.444888,1.7563993489608571,1.0782070780496165,2.3518177076371583,"[ 8.90123443e-06  3.68846099e-07  0.00000000e+00  0.00000000e+00
  0.00000000e+00 -4.19825504e-07  3.68846099e-07  6.87487664e-06
  0.00000000e+00  0.00000000e+00  0.00000000e+00 -1.26260800e-07
  0.00000000e+00  0.00000000e+00  0.00000000e+00  0.00000000e+00
  0.00000000e+00  0.00000000e+00  0.00000000e+00  0.00000000e+00
  0.00000000e+00  0.00000000e+00  0.00000000e+00  0.00000000e+00
  0.00000000e+00  0.00000000e+00  0.00000000e+00  0.00000000e+00
  0.00000000e+00  0.00000000e+00 -4.19825504e-07 -1.26260800e-07
  0.00000000e+00  0.00000000e+00  0.00000000e+00  3.37445032e-06]","[[ 1.82977554e-04  3.32692704e-03]
 [-8.42730743e-05  3.32018599e-03]]",[],0.0,0.0
1787210425.4838715,1.7563993489608571,1.0782070780496165,2.3518177076371583,"[ 8.90123443e-06  3.68846099e-07  0.00000000e+00  0.00000000e+00
  0.00000000e+00 -4.19825504e-07  3.68846099e-07  6.87487664e-06
  0.00000000e+00  0.00000000e+00  0.00000000e+00 -1.26260800e-07
  0.00000000e+00  0.00000000e+00  0.00000000e+00  0.00000000e+00
  0.00000000e+00  0.00000000e+00  0.00000000e+00  0.00000000e+00
  0.00000000e+00  0.00000000e+00  0.00000000e+00  0.00000000e+00
  0.00000000e+00  0.00000000e+00  0.00000000e+00  0.00000000e+00
  0.00000000e+00  0.00000000e+00 -4.19825504e-07 -1.26260800e-07
  0.00000000e+00  0.00000000e+00  0.00000000e+00  3.37445032e-06]","[[ 1.82977554e-04  3.32692704e-03]
 [-8.42730743e-05  3.32018599e-03]]",[],0.0,0.0
1787210425.5375488,1.7563993489608571,1.0782070780496165,2.3518177076371583,"[ 8.90123443e-06  3.68846099e-07  0.00000000e+00  0.00000000e+00
  0.00000000e+00 -4.19825504e-07  3.68846099e-07  6.87487664e-06
  0.00000000e+00  0.00000000e+00  0.00000000e+00 -1.26260800e-07
  0.00000000e+00  0.00000000e+00  0.00000000e+00  0.00000000e+00
  0.00000000e+00  0.00000000e+00  0.00000000e+00  0.00000000e+00
  0.00000000e+00  0.00000000e+00  0.00000000e+00  0.00000000e+00
  0.00000000e+00  0.00000000e+00  0.00000000e+00  0.00000000e+00
  0.00000000e+00  0.00000000e+00 -4.19825504e-07 -1.26260800e-07
  0.00000000e+00  0.00000000e+00  0.00000000e+00  3.37445032e-06]","[[ 1.82977554e-04  3.32692704e-03]
 [-8.42730743e-05  3.32018599e-03]]",[],0.0,0.0
1787210425.5865088,1.7563993489608571,1.0782070780496165,2.3518177076371583,"[ 8.90123443e-06  3.68846099e-07  0.00000000e+00  0.00000000e+00
  0.00000000e+00 -4.19825504e-07  3.68846099e-07  6.87487664e-06
  0.00000000e+00  0.00000000e+00  0.00000000e+00 -1.26260800e-07
  0.00000000e+00  0.00000000e+00  0.00000000e+00  0.00000000e+00
  0.00000000e+00  0.00000000e+00  0.00000000e+00  0.00000000e+00
  0.00000000e+00  0.00000000e+00  0.00000000e+00  0.00000000e+00
  0.00000000e+00  0.00000000e+00  0.00000000e+00  0.00000000e+00
  0.00000000e+00  0.00000000e+00 -4.19825504e-07 -1.26260800e-07
  0.00000000e+00  0.00000000e+00  0.00000000e+00  3.37445032e-06]","[[ 1.82977554e-04  3.32692704e-03]
 [-8.42730743e-05  3.32018599e-03]]",[],0.0,0.0
1787210425.6338542,1.7563993489608571,1.0782070780496165,2.3518177076371583,"[ 8.90123443e-06  3.68846099e-07  0.00000000e+00  0.00000000e+00
  0.00000000e+00 -4.19825504e-07  3.68846099e-07  6.87487664e-06
  0.00000000e+00  0.00000000e+00  0.00000000e+00 -1.26260800e-07
  0.00000000e+00  0.00000000e+00  0.00000000e+00  0.00000000e+00
  0.00000000e+00  0.00000000e+00  0.00000000e+00  0.00000000e+00
  0.00000000e+00  0.00000000e+00  0.00000000e+00  0.00000000e+00
  0.00000000e+00  0.00000000e+00  0.00000000e+00  0.00000000e+00
  0.00000000e+00  0.00000000e+00 -4.19825504e-07 -1.26260800e-07
  0.00000000e+00  0.00000000e+00  0.00000000e+00  3.37445032e-06]","[[ 1.82977554e-04  3.32692704e-03]
 [-8.42730743e-05  3.32018599e-03]]",[],0.0,0.0
1787210425.686082,1.7563993489608571,1.0782070780496165,2.3518177076371583,"[ 8.90123443e-06  3.68846099e-07  0.00000000e+00  0.00000000e+00
  0.00000000e+00 -4.19825504e-07  3.68846099e-07  6.87487664e-06
  0.00000000e+00  0.00000000e+00  0.00000000e+00 -1.26260800e-07
  0.00000000e+00  0.00000000e+00  0.00000000e+00  0.00000000e+00
  0.00000000e+00  0.00000000e+00  0.00000000e+00  0.00000000e+00
  0.00000000e+00  0.00000000e+00  0.00000000e+00  0.00000000e+00
  0.00000000e+00  0.00000000e+00  0.00000000e+00  0.00000000e+00
  0.00000000e+00  0.00000000e+00 -4.19825504e-07 -1.26260800e-07
  0.00000000e+00  0.00000000e+00  0.00000000e+00  3.37445032e-06]","[[ 1.82977554e-04  3.32692704e-03]
 [-8.42730743e-05  3.32018599e-03]]",[],0.0,0.0
1787210425.7336516,1.7563993489608571,1.0782070780496165,2.3518177076371583,"[ 8.90123443e-06  3.68846099e-07  0.00000000e+00  0.00000000e+00
  0.00000000e+00 -4.19825504e-07  3.68846099e-07  6.87487664e-06
  0.00000000e+00  0.00000000e+00  0.00000000e+00 -1.26260800e-07
  0.00000000e+00  0.00000000e+00  0.00000000e+00  0.00000000e+00
  0.00000000e+00  0.00000000e+00  0.00000000e+00  0.00000000e+00
  0.00000000e+00  0.00000000e+00  0.00000000e+00  0.00000000e+00
  0.00000000e+00  0.00000000e+00  0.00000000e+00  0.00000000e+00
  0.00000000e+00  0.00000000e+00 -4.19825504e-07 -1.26260800e-07
  0.00000000e+00  0.00000000e+00  0.00000000e+00  3.37445032e-06]","[[ 1.82977554e-04  3.32692704e-03]
 [-8.42730743e-05  3.32018599e-03]]",[],0.0,0.0
1787210425.787843,1.7563993489608571,1.0782070780496165,2.3518177076371583,"[ 8.90123443e-06  3.68846099e-07  0.00000000e+00  0.00000000e+00
  0.00000000e+00 -4.19825504e-07  3.68846099e-07  6.87487664e-06
  0.00000000e+00  0.00000000e+00  0.00000000e+00 -1.26260800e-07
  0.00000000e+00  0.00000000e+00  0.00000000e+00  0.00000000e+00
  0.00000000e+00  0.00000000e+00  0.00000000e+00  0.00000000e+00
  0.00000000e+00  0.00000000e+00  0.00000000e+00  0.00000000e+00
  0.00000000e+00  0.00000000e+00  0.00000000e+00  0.00000000e+00
  0.00000000e+00  0.00000000e+00 -4.19825504e-07 -1.26260800e-07
  0.00000000e+00  0.00000000e+00  0.00000000e+00  3.37445032e-06]","[[ 1.82977554e-04  3.32692704e-03]
 [-8.42730743e-05  3.32018599e-03]]",[],0.0,0.0
1787210425.8414989,1.7563993489608571,1.0782070780496165,2.3518177076371583,"[ 8.90123443e-06  3.68846099e-07  0.00000000e+00  0.00000000e+00
  0.00000000e+00 -4.19825504e-07  3.68846099e-07  6.87487664e-06
  0.00000000e+00  0.00000000e+00  0.00000000e+00 -1.26260800e-07
  0.00000000e+00  0.00000000e+00  0.00000000e+00  0.00000000e+00
  0.00000000e+00  0.00000000e+00  0.00000000e+00  0.00000000e+00
  0.00000000e+00  0.00000000e+00  0.00000000e+00  0.00000000e+00
  0.00000000e+00  0.00000000e+00  0.00000000e+00  0.00000000e+00
  0.00000000e+00  0.00000000e+00 -4.19825504e-07 -1.26260800e-07
  0.00000000e+00  0.00000000e+00  0.00000000e+00  3.37445032e-06]","[[ 1.82977554e-04  3.32692704e-03]
 [-8.42730743e-05  3.32018599e-03]]",[],0.0,0.0
1787210425.884818,1.7563993489608571,1.0782070780496165,2.3518177076371583,"[ 8.90123443e-06  3.68846099e-07  0.00000000e+00  0.00000000e+00
  0.00000000e+00 -4.19825504e-07  3.68846099e-07  6.87487664e-06
  0.00000000e+00  0.00000000e+00  0.00000000e+00 -1.26260800e-07
  0.00000000e+00  0.00000000e+00  0.00000000e+00  0.00000000e+00
  0.00000000e+00  0.00000000e+00  0.00000000e+00  0.00000000e+00
  0.00000000e+00  0.00000000e+00  0.00000000e+00  0.00000000e+00
  0.00000000e+00  0.00000000e+00  0.00000000e+00  0.00000000e+00
  0.00000000e+00  0.00000000e+00 -4.19825504e-07 -1.26260800e-07
  0.00000000e+00  0.00000000e+00  0.00000000e+00  3.37445032e-06]","[[ 1.82977554e-04  3.32692704e-03]
 [-8.42730743e-05  3.32018599e-03]]",[],0.0,0.0
1787210425.9465203,1.7563993489608571,1.0782070780496165,2.3518177076371583,"[ 8.90123443e-06  3.68846099e-07  0.00000000e+00  0.00000000e+00
  0.00000000e+00 -4.19825504e-07  3.68846099e-07  6.87487664e-06
  0.00000000e+00  0.00000000e+00  0.00000000e+00 -1.26260800e-07
  0.00000000e+00  0.00000000e+00  0.00000000e+00  0.00000000e+00
  0.00000000e+00  0.00000000e+00  0.00000000e+00  0.00000000e+00
  0.00000000e+00  0.00000000e+00  0.00000000e+00  0.00000000e+00
  0.00000000e+00  0.00000000e+00  0.00000000e+00  0.00000000e+00
  0.00000000e+00  0.00000000e+00 -4.19825504e-07 -1.26260800e-07
  0.00000000e+00  0.00000000e+00  0.00000000e+00  3.37445032e-06]","[[ 1.82977554e-04  3.32692704e-03]
 [-8.42730743e-05  3.32018599e-03]]",[],0.0,0.0
1787210425.9837763,1.7563993489608571,1.0782070780496165,2.3518177076371583,"[ 8.90123443e-06  3.68846099e-07  0.00000000e+00  0.00000000e+00
  0.00000000e+00 -4.19825504e-07  3.68846099e-07  6.87487664e-06
  0.00000000e+00  0.00000000e+00  0.00000000e+00 -1.26260800e-07
  0.00000000e+00  0.00000000e+00  0.00000000e+00  0.00000000e+00
  0.00000000e+00  0.00000000e+00  0.00000000e+00  0.00000000e+00
  0.00000000e+00  0.00000000e+00  0.00000000e+00  0.00000000e+00
  0.00000000e+00  0.00000000e+00  0.00000000e+00  0.00000000e+00
  0.00000000e+00  0.00000000e+00 -4.19825504e-07 -1.26260800e-07
  0.00000000e+00  0.00000000e+00  0.00000000e+00  3.37445032e-06]","[[ 1.82977554e-04  3.32692704e-03]
 [-8.42730743e-05  3.32018599e-03]]",[],0.0,0.0
1787210426.0336187,1.7565997786348633,1.0662796842353,2.3560514866869084,"[ 7.77707613e-06  2.59720152e-07  0.00000000e+00  0.00000000e+00
  0.00000000e+00 -3.89787760e-07  2.59720152e-07  6.12690802e-06
  0.00000000e+00  0.00000000e+00  0.00000000e+00 -1.41707934e-07
  0.00000000e+00  0.00000000e+00  0.00000000e+00  0.00000000e+00
  0.00000000e+00  0.00000000e+00  0.00000000e+00  0.00000000e+00
  0.00000000e+00  0.00000000e+00  0.00000000e+00  0.00000000e+00
  0.00000000e+00  0.00000000e+00  0.00000000e+00  0.00000000e+00
  0.00000000e+00  0.00000000e+00 -3.89787760e-07 -1.41707934e-07
  0.00000000e+00  0.00000000e+00  0.00000000e+00  3.32916685e-06]","[[ 1.60336432e-04  2.92407506e-03]
 [-7.70077005e-05  2.97726451e-03]]",[],0.0,0.0
1787210426.0844119,1.7565997786348633,1.0662796842353,2.3560514866869084,"[ 7.77707613e-06  2.59720152e-07  0.00000000e+00  0.00000000e+00
  0.00000000e+00 -3.89787760e-07  2.59720152e-07  6.12690802e-06
  0.00000000e+00  0.00000000e+00  0.00000000e+00 -1.41707934e-07
  0.00000000e+00  0.00000000e+00  0.00000000e+00  0.00000000e+00
  0.00000000e+00  0.00000000e+00  0.00000000e+00  0.00000000e+00
  0.00000000e+00  0.00000000e+00  0.00000000e+00  0.00000000e+00
  0.00000000e+00  0.00000000e+00  0.00000000e+00  0.00000000e+00
  0.00000000e+00  0.00000000e+00 -3.89787760e-07 -1.41707934e-07
  0.00000000e+00  0.00000000e+00  0.00000000e+00  3.32916685e-06]","[[ 1.60336432e-04  2.92407506e-03]
 [-7.70077005e-05  2.97726451e-03]]",[],0.0,0.0
1787210426.1380436,1.7565997786348633,1.0662796842353,2.3560514866869084,"[ 7.77707613e-06  2.59720152e-07  0.00000000e+00  0.00000000e+00
  0.00000000e+00 -3.89787760e-07  2.59720152e-07  6.12690802e-06
  0.00000000e+00  0.00000000e+00  0.00000000e+00 -1.41707934e-07
  0.00000000e+00  0.00000000e+00  0.00000000e+00  0.00000000e+00
  0.00000000e+00  0.00000000e+00  0.00000000e+00  0.00000000e+00
  0.00000000e+00  0.00000000e+00  0.00000000e+00  0.00000000e+00
  0.00000000e+00  0.00000000e+00  0.00000000e+00  0.00000000e+00
  0.00000000e+00  0.00000000e+00 -3.89787760e-07 -1.41707934e-07
  0.00000000e+00  0.00000000e+00  0.00000000e+00  3.32916685e-06]","[[ 1.60336432e-04  2.92407506e-03]
 [-7.70077005e-05  2.97726451e-03]]",[],0.0,0.0
1787210426.1845458,1.7565997786348633,1.0662796842353,2.3560514866869084,"[ 7.77707613e-06  2.59720152e-07  0.00000000e+00  0.00000000e+00
  0.00000000e+00 -3.89787760e-07  2.59720152e-07  6.12690802e-06
  0.00000000e+00  0.00000000e+00  0.00000000e+00 -1.41707934e-07
  0.00000000e+00  0.00000000e+00  0.00000000e+00  0.00000000e+00
  0.00000000e+00  0.00000000e+00  0.00000000e+00  0.00000000e+00
  0.00000000e+00  0.00000000e+00  0.00000000e+00  0.00000000e+00
  0.00000000e+00  0.00000000e+00  0.00000000e+00  0.00000000e+00
  0.00000000e+00  0.00000000e+00 -3.89787760e-07 -1.41707934e-07
  0.00000000e+00  0.00000000e+00  0.00000000e+00  3.32916685e-06]","[[ 1.60336432e-04  2.92407506e-03]
 [-7.70077005e-05  2.97726451e-03]]",[],0.0,0.0
1787210426.2411952,1.7565997786348633,1.0662796842353,2.3560514866869084,"[ 7.77707613e-06  2.59720152e-07  0.00000000e+00  0.00000000e+00
  0.00000000e+00 -3.89787760e-07  2.59720152e-07  6.12690802e-06
  0.00000000e+00  0.00000000e+00  0.00000000e+00 -1.41707934e-07
  0.00000000e+00  0.00000000e+00  0.00000000e+00  0.00000000e+00
  0.00000000e+00  0.00000000e+00  0.00000000e+00  0.00000000e+00
  0.00000000e+00  0.00000000e+00  0.00000000e+00  0.00000000e+00
  0.00000000e+00  0.00000000e+00  0.00000000e+00  0.00000000e+00
  0.00000000e+00  0.00000000e+00 -3.89787760e-07 -1.41707934e-07
  0.00000000e+00  0.00000000e+00  0.00000000e+00  3.32916685e-06]","[[ 1.60336432e-04  2.92407506e-03]
 [-7.70077005e-05  2.97726451e-03]]",[],0.0,0.0
1787210426.2852316,1.7565997786348633,1.0662796842353,2.3560514866869084,"[ 7.77707613e-06  2.59720152e-07  0.00000000e+00  0.00000000e+00
  0.00000000e+00 -3.89787760e-07  2.59720152e-07  6.12690802e-06
  0.00000000e+00  0.00000000e+00  0.00000000e+00 -1.41707934e-07
  0.00000000e+00  0.00000000e+00  0.00000000e+00  0.00000000e+00
  0.00000000e+00  0.00000000e+00  0.00000000e+00  0.00000000e+00
  0.00000000e+00  0.00000000e+00  0.00000000e+00  0.00000000e+00
  0.00000000e+00  0.00000000e+00  0.00000000e+00  0.00000000e+00
  0.00000000e+00  0.00000000e+00 -3.89787760e-07 -1.41707934e-07
  0.00000000e+00  0.00000000e+00  0.00000000e+00  3.32916685e-06]","[[ 1.60336432e-04  2.92407506e-03]
 [-7.70077005e-05  2.97726451e-03]]",[],0.0,0.0
1787210426.3669937,1.7565997786348633,1.0662796842353,2.3560514866869084,"[ 7.77707613e-06  2.59720152e-07  0.00000000e+00  0.00000000e+00
  0.00000000e+00 -3.89787760e-07  2.59720152e-07  6.12690802e-06
  0.00000000e+00  0.00000000e+00  0.00000000e+00 -1.41707934e-07
  0.00000000e+00  0.00000000e+00  0.00000000e+00  0.00000000e+00
  0.00000000e+00  0.00000000e+00  0.00000000e+00  0.00000000e+00
  0.00000000e+00  0.00000000e+00  0.00000000e+00  0.00000000e+00
  0.00000000e+00  0.00000000e+00  0.00000000e+00  0.00000000e+00
  0.00000000e+00  0.00000000e+00 -3.89787760e-07 -1.41707934e-07
  0.00000000e+00  0.00000000e+00  0.00000000e+00  3.32916685e-06]","[[ 1.60336432e-04  2.92407506e-03]
 [-7.70077005e-05  2.97726451e-03]]",[],0.0,0.0
1787210426.41422,1.7565997786348633,1.0662796842353,2.3560514866869084,"[ 7.77707613e-06  2.59720152e-07  0.00000000e+00  0.00000000e+00
  0.00000000e+00 -3.89787760e-07  2.59720152e-07  6.12690802e-06
  0.00000000e+00  0.00000000e+00  0.00000000e+00 -1.41707934e-07
  0.00000000e+00  0.00000000e+00  0.00000000e+00  0.00000000e+00
  0.00000000e+00  0.00000000e+00  0.00000000e+00  0.00000000e+00
  0.00000000e+00  0.00000000e+00  0.00000000e+00  0.00000000e+00
  0.00000000e+00  0.00000000e+00  0.00000000e+00  0.00000000e+00
  0.00000000e+00  0.00000000e+00 -3.89787760e-07 -1.41707934e-07
  0.00000000e+00  0.00000000e+00  0.00000000e+00  3.32916685e-06]","[[ 1.60336432e-04  2.92407506e-03]
 [-7.70077005e-05  2.97726451e-03]]",[],0.0,0.0
1787210426.4596405,1.7565997786348633,1.0662796842353,2.3560514866869084,"[ 7.77707613e-06  2.59720152e-07  0.00000000e+00  0.00000000e+00
  0.00000000e+00 -3.89787760e-07  2.59720152e-07  6.12690802e-06
  0.00000000e+00  0.00000000e+00  0.00000000e+00 -1.41707934e-07
  0.00000000e+00  0.00000000e+00  0.00000000e+00  0.00000000e+00
  0.00000000e+00  0.00000000e+00  0.00000000e+00  0.00000000e+00
  0.00000000e+00  0.00000000e+00  0.00000000e+00  0.00000000e+00
  0.00000000e+00  0.00000000e+00  0.00000000e+00  0.00000000e+00
  0.00000000e+00  0.00000000e+00 -3.89787760e-07 -1.41707934e-07
  0.00000000e+00  0.00000000e+00  0.00000000e+00  3.32916685e-06]","[[ 1.60336432e-04  2.92407506e-03]
 [-7.70077005e-05  2.97726451e-03]]",[],0.0,0.0
1787210426.4877934,1.7565997786348633,1.0662796842353,2.3560514866869084,"[ 7.77707613e-06  2.59720152e-07  0.00000000e+00  0.00000000e+00
  0.00000000e+00 -3.89787760e-07  2.59720152e-07  6.12690802e-06
  0.00000000e+00  0.00000000e+00  0.00000000e+00 -1.41707934e-07
  0.00000000e+00  0.00000000e+00  0.00000000e+00  0.00000000e+00
  0.00000000e+00  0.00000000e+00  0.00000000e+00  0.00000000e+00
  0.00000000e+00  0.00000000e+00  0.00000000e+00  0.00000000e+00
  0.00000000e+00  0.00000000e+00  0.00000000e+00  0.00000000e+00
  0.00000000e+00  0.00000000e+00 -3.89787760e-07 -1.41707934e-07
  0.00000000e+00  0.00000000e+00  0.00000000e+00  3.32916685e-06]","[[ 1.60336432e-04  2.92407506e-03]
 [-7.70077005e-05  2.97726451e-03]]",[],0.0,0.0
1787210426.5710304,1.7565997786348633,1.0662796842353,2.3560514866869084,"[ 7.77707613e-06  2.59720152e-07  0.00000000e+00  0.00000000e+00
  0.00000000e+00 -3.89787760e-07  2.59720152e-07  6.12690802e-06
  0.00000000e+00  0.00000000e+00  0.00000000e+00 -1.41707934e-07
  0.00000000e+00  0.00000000e+00  0.00000000e+00  0.00000000e+00
  0.00000000e+00  0.00000000e+00  0.00000000e+00  0.00000000e+00
  0.00000000e+00  0.00000000e+00  0.00000000e+00  0.00000000e+00
  0.00000000e+00  0.00000000e+00  0.00000000e+00  0.00000000e+00
  0.00000000e+00  0.00000000e+00 -3.89787760e-07 -1.41707934e-07
  0.00000000e+00  0.00000000e+00  0.00000000e+00  3.32916685e-06]","[[ 1.60336432e-04  2.92407506e-03]
 [-7.70077005e-05  2.97726451e-03]]",[],0.0,0.0
1787210426.5878918,1.7565997786348633,1.0662796842353,2.3560514866869084,"[ 7.77707613e-06  2.59720152e-07  0.00000000e+00  0.00000000e+00
  0.00000000e+00 -3.89787760e-07  2.59720152e-07  6.12690802e-06
  0.00000000e+00  0.00000000e+00  0.00000000e+00 -1.41707934e-07
  0.00000000e+00  0.00000000e+00  0.00000000e+00  0.00000000e+00
  0.00000000e+00  0.00000000e+00  0.00000000e+00  0.00000000e+00
  0.00000000e+00  0.00000000e+00  0.00000000e+00  0.00000000e+00
  0.00000000e+00  0.00000000e+00  0.00000000e+00  0.00000000e+00
  0.00000000e+00  0.00000000e+00 -3.89787760e-07 -1.41707934e-07
  0.00000000e+00  0.00000000e+00  0.00000000e+00  3.32916685e-06]","[[ 1.60336432e-04  2.92407506e-03]
 [-7.70077005e-05  2.97726451e-03]]",[],0.0,0.0
1787210426.6587303,1.7565997786348633,1.0662796842353,2.3560514866869084,"[ 7.77707613e-06  2.59720152e-07  0.00000000e+00  0.00000000e+00
  0.00000000e+00 -3.89787760e-07  2.59720152e-07  6.12690802e-06
  0.00000000e+00  0.00000000e+00  0.00000000e+00 -1.41707934e-07
  0.00000000e+00  0.00000000e+00  0.00000000e+00  0.00000000e+00
  0.00000000e+00  0.00000000e+00  0.00000000e+00  0.00000000e+00
  0.00000000e+00  0.00000000e+00  0.00000000e+00  0.00000000e+00
  0.00000000e+00  0.00000000e+00  0.00000000e+00  0.00000000e+00
  0.00000000e+00  0.00000000e+00 -3.89787760e-07 -1.41707934e-07
  0.00000000e+00  0.00000000e+00  0.00000000e+00  3.32916685e-06]","[[ 1.60336432e-04  2.92407506e-03]
 [-7.70077005e-05  2.97726451e-03]]",[],0.0,0.0
1787210426.7191792,1.7565997786348633,1.0662796842353,2.3560514866869084,"[ 7.77707613e-06  2.59720152e-07  0.00000000e+00  0.00000000e+00
  0.00000000e+00 -3.89787760e-07  2.59720152e-07  6.12690802e-06
  0.00000000e+00  0.00000000e+00  0.00000000e+00 -1.41707934e-07
  0.00000000e+00  0.00000000e+00  0.00000000e+00  0.00000000e+00
  0.00000000e+00  0.00000000e+00  0.00000000e+00  0.00000000e+00
  0.00000000e+00  0.00000000e+00  0.00000000e+00  0.00000000e+00
  0.00000000e+00  0.00000000e+00  0.00000000e+00  0.00000000e+00
  0.00000000e+00  0.00000000e+00 -3.89787760e-07 -1.41707934e-07
  0.00000000e+00  0.00000000e+00  0.00000000e+00  3.32916685e-06]","[[ 1.60336432e-04  2.92407506e-03]
 [-7.70077005e-05  2.97726451e-03]]",[],0.0,0.0
1787210426.7580643,1.7565997786348633,1.0662796842353,2.3560514866869084,"[ 7.77707613e-06  2.59720152e-07  0.00000000e+00  0.00000000e+00
  0.00000000e+00 -3.89787760e-07  2.59720152e-07  6.12690802e-06
  0.00000000e+00  0.00000000e+00  0.00000000e+00 -1.41707934e-07
  0.00000000e+00  0.00000000e+00  0.00000000e+00  0.00000000e+00
  0.00000000e+00  0.00000000e+00  0.00000000e+00  0.00000000e+00
  0.00000000e+00  0.00000000e+00  0.00000000e+00  0.00000000e+00
  0.00000000e+00  0.00000000e+00  0.00000000e+00  0.00000000e+00
  0.00000000e+00  0.00000000e+00 -3.89787760e-07 -1.41707934e-07
  0.00000000e+00  0.00000000e+00  0.00000000e+00  3.32916685e-06]","[[ 1.60336432e-04  2.92407506e-03]
 [-7.70077005e-05  2.97726451e-03]]",[],0.0,0.0
1787210426.8217335,1.7589372095103646,1.0566669040750318,2.3528254610034303,"[ 6.95042872e-06  2.22310883e-07  0.00000000e+00  0.00000000e+00
  0.00000000e+00 -3.71371629e-07  2.22310883e-07  5.51245287e-06
  0.00000000e+00  0.00000000e+00  0.00000000e+00 -1.90917321e-07
  0.00000000e+00  0.00000000e+00  0.00000000e+00  0.00000000e+00
  0.00000000e+00  0.00000000e+00  0.00000000e+00  0.00000000e+00
  0.00000000e+00  0.00000000e+00  0.00000000e+00  0.00000000e+00
  0.00000000e+00  0.00000000e+00  0.00000000e+00  0.00000000e+00
  0.00000000e+00  0.00000000e+00 -3.71371629e-07 -1.90917321e-07
  0.00000000e+00  0.00000000e+00  0.00000000e+00  3.24290386e-06]","[[ 1.43120225e-04  2.65204951e-03]
 [-6.98934120e-05  2.77086499e-03]]",[],0.0,0.0
1787210426.8619666,1.7589372095103646,1.0566669040750318,2.3528254610034303,"[ 6.95042872e-06  2.22310883e-07  0.00000000e+00  0.00000000e+00
  0.00000000e+00 -3.71371629e-07  2.22310883e-07  5.51245287e-06
  0.00000000e+00  0.00000000e+00  0.00000000e+00 -1.90917321e-07
  0.00000000e+00  0.00000000e+00  0.00000000e+00  0.00000000e+00
  0.00000000e+00  0.00000000e+00  0.00000000e+00  0.00000000e+00
  0.00000000e+00  0.00000000e+00  0.00000000e+00  0.00000000e+00
  0.00000000e+00  0.00000000e+00  0.00000000e+00  0.00000000e+00
  0.00000000e+00  0.00000000e+00 -3.71371629e-07 -1.90917321e-07
  0.00000000e+00  0.00000000e+00  0.00000000e+00  3.24290386e-06]","[[ 1.43120225e-04  2.65204951e-03]
 [-6.98934120e-05  2.77086499e-03]]",[],0.0,0.0
1787210426.9130135,1.7589372095103646,1.0566669040750318,2.3528254610034303,"[ 6.95042872e-06  2.22310883e-07  0.00000000e+00  0.00000000e+00
  0.00000000e+00 -3.71371629e-07  2.22310883e-07  5.51245287e-06
  0.00000000e+00  0.00000000e+00  0.00000000e+00 -1.90917321e-07
  0.00000000e+00  0.00000000e+00  0.00000000e+00  0.00000000e+00
  0.00000000e+00  0.00000000e+00  0.00000000e+00  0.00000000e+00
  0.00000000e+00  0.00000000e+00  0.00000000e+00  0.00000000e+00
  0.00000000e+00  0.00000000e+00  0.00000000e+00  0.00000000e+00
  0.00000000e+00  0.00000000e+00 -3.71371629e-07 -1.90917321e-07
  0.00000000e+00  0.00000000e+00  0.00000000e+00  3.24290386e-06]","[[ 1.43120225e-04  2.65204951e-03]
 [-6.98934120e-05  2.77086499e-03]]",[],0.0,0.0
1787210426.961358,1.7589372095103646,1.0566669040750318,2.3528254610034303,"[ 6.95042872e-06  2.22310883e-07  0.00000000e+00  0.00000000e+00
  0.00000000e+00 -3.71371629e-07  2.22310883e-07  5.51245287e-06
  0.00000000e+00  0.00000000e+00  0.00000000e+00 -1.90917321e-07
  0.00000000e+00  0.00000000e+00  0.00000000e+00  0.00000000e+00
  0.00000000e+00  0.00000000e+00  0.00000000e+00  0.00000000e+00
  0.00000000e+00  0.00000000e+00  0.00000000e+00  0.00000000e+00
  0.00000000e+00  0.00000000e+00  0.00000000e+00  0.00000000e+00
  0.00000000e+00  0.00000000e+00 -3.71371629e-07 -1.90917321e-07
  0.00000000e+00  0.00000000e+00  0.00000000e+00  3.24290386e-06]","[[ 1.43120225e-04  2.65204951e-03]
 [-6.98934120e-05  2.77086499e-03]]",[],0.0,0.0
1787210426.996819,1.7589372095103646,1.0566669040750318,2.3528254610034303,"[ 6.95042872e-06  2.22310883e-07  0.00000000e+00  0.00000000e+00
  0.00000000e+00 -3.71371629e-07  2.22310883e-07  5.51245287e-06
  0.00000000e+00  0.00000000e+00  0.00000000e+00 -1.90917321e-07
  0.00000000e+00  0.00000000e+00  0.00000000e+00  0.00000000e+00
  0.00000000e+00  0.00000000e+00  0.00000000e+00  0.00000000e+00
  0.00000000e+00  0.00000000e+00  0.00000000e+00  0.00000000e+00
  0.00000000e+00  0.00000000e+00  0.00000000e+00  0.00000000e+00
  0.00000000e+00  0.00000000e+00 -3.71371629e-07 -1.90917321e-07
  0.00000000e+00  0.00000000e+00  0.00000000e+00  3.24290386e-06]","[[ 1.43120225e-04  2.65204951e-03]
 [-6.98934120e-05  2.77086499e-03]]",[],0.0,0.0
1787210427.0572712,1.7589372095103646,1.0566669040750318,2.3528254610034303,"[ 6.95042872e-06  2.22310883e-07  0.00000000e+00  0.00000000e+00
  0.00000000e+00 -3.71371629e-07  2.22310883e-07  5.51245287e-06
  0.00000000e+00  0.00000000e+00  0.00000000e+00 -1.90917321e-07
  0.00000000e+00  0.00000000e+00  0.00000000e+00  0.00000000e+00
  0.00000000e+00  0.00000000e+00  0.00000000e+00  0.00000000e+00
  0.00000000e+00  0.00000000e+00  0.00000000e+00  0.00000000e+00
  0.00000000e+00  0.00000000e+00  0.00000000e+00  0.00000000e+00
  0.00000000e+00  0.00000000e+00 -3.71371629e-07 -1.90917321e-07
  0.00000000e+00  0.00000000e+00  0.00000000e+00  3.24290386e-06]","[[ 1.43120225e-04  2.65204951e-03]
 [-6.98934120e-05  2.77086499e-03]]",[],0.0,0.0
1787210427.1074736,1.7589372095103646,1.0566669040750318,2.3528254610034303,"[ 6.95042872e-06  2.22310883e-07  0.00000000e+00  0.00000000e+00
  0.00000000e+00 -3.71371629e-07  2.22310883e-07  5.51245287e-06
  0.00000000e+00  0.00000000e+00  0.00000000e+00 -1.90917321e-07
  0.00000000e+00  0.00000000e+00  0.00000000e+00  0.00000000e+00
  0.00000000e+00  0.00000000e+00  0.00000000e+00  0.00000000e+00
  0.00000000e+00  0.00000000e+00  0.00000000e+00  0.00000000e+00
  0.00000000e+00  0.00000000e+00  0.00000000e+00  0.00000000e+00
  0.00000000e+00  0.00000000e+00 -3.71371629e-07 -1.90917321e-07
  0.00000000e+00  0.00000000e+00  0.00000000e+00  3.24290386e-06]","[[ 1.43120225e-04  2.65204951e-03]
 [-6.98934120e-05  2.77086499e-03]]",[],0.0,0.0
1787210427.15956,1.7589372095103646,1.0566669040750318,2.3528254610034303,"[ 6.95042872e-06  2.22310883e-07  0.00000000e+00  0.00000000e+00
  0.00000000e+00 -3.71371629e-07  2.22310883e-07  5.51245287e-06
  0.00000000e+00  0.00000000e+00  0.00000000e+00 -1.90917321e-07
  0.00000000e+00  0.00000000e+00  0.00000000e+00  0.00000000e+00
  0.00000000e+00  0.00000000e+00  0.00000000e+00  0.00000000e+00
  0.00000000e+00  0.00000000e+00  0.00000000e+00  0.00000000e+00
  0.00000000e+00  0.00000000e+00  0.00000000e+00  0.00000000e+00
  0.00000000e+00  0.00000000e+00 -3.71371629e-07 -1.90917321e-07
  0.00000000e+00  0.00000000e+00  0.00000000e+00  3.24290386e-06]","[[ 1.43120225e-04  2.65204951e-03]
 [-6.98934120e-05  2.77086499e-03]]",[],0.0,0.0
1787210427.185367,1.7589372095103646,1.0566669040750318,2.3528254610034303,"[ 6.95042872e-06  2.22310883e-07  0.00000000e+00  0.00000000e+00
  0.00000000e+00 -3.71371629e-07  2.22310883e-07  5.51245287e-06
  0.00000000e+00  0.00000000e+00  0.00000000e+00 -1.90917321e-07
  0.00000000e+00  0.00000000e+00  0.00000000e+00  0.00000000e+00
  0.00000000e+00  0.00000000e+00  0.00000000e+00  0.00000000e+00
  0.00000000e+00  0.00000000e+00  0.00000000e+00  0.00000000e+00
  0.00000000e+00  0.00000000e+00  0.00000000e+00  0.00000000e+00
  0.00000000e+00  0.00000000e+00 -3.71371629e-07 -1.90917321e-07
  0.00000000e+00  0.00000000e+00  0.00000000e+00  3.24290386e-06]","[[ 1.43120225e-04  2.65204951e-03]
 [-6.98934120e-05  2.77086499e-03]]",[],0.0,0.0
1787210427.2591999,1.7589372095103646,1.0566669040750318,2.3528254610034303,"[ 6.95042872e-06  2.22310883e-07  0.00000000e+00  0.00000000e+00
  0.00000000e+00 -3.71371629e-07  2.22310883e-07  5.51245287e-06
  0.00000000e+00  0.00000000e+00  0.00000000e+00 -1.90917321e-07
  0.00000000e+00  0.00000000e+00  0.00000000e+00  0.00000000e+00
  0.00000000e+00  0.00000000e+00  0.00000000e+00  0.00000000e+00
  0.00000000e+00  0.00000000e+00  0.00000000e+00  0.00000000e+00
  0.00000000e+00  0.00000000e+00  0.00000000e+00  0.00000000e+00
  0.00000000e+00  0.00000000e+00 -3.71371629e-07 -1.90917321e-07
  0.00000000e+00  0.00000000e+00  0.00000000e+00  3.24290386e-06]","[[ 1.43120225e-04  2.65204951e-03]
 [-6.98934120e-05  2.77086499e-03]]",[],0.0,0.0
1787210427.3131561,1.7589372095103646,1.0566669040750318,2.3528254610034303,"[ 6.95042872e-06  2.22310883e-07  0.00000000e+00  0.00000000e+00
  0.00000000e+00 -3.71371629e-07  2.22310883e-07  5.51245287e-06
  0.00000000e+00  0.00000000e+00  0.00000000e+00 -1.90917321e-07
  0.00000000e+00  0.00000000e+00  0.00000000e+00  0.00000000e+00
  0.00000000e+00  0.00000000e+00  0.00000000e+00  0.00000000e+00
  0.00000000e+00  0.00000000e+00  0.00000000e+00  0.00000000e+00
  0.00000000e+00  0.00000000e+00  0.00000000e+00  0.00000000e+00
  0.00000000e+00  0.00000000e+00 -3.71371629e-07 -1.90917321e-07
  0.00000000e+00  0.00000000e+00  0.00000000e+00  3.24290386e-06]","[[ 1.43120225e-04  2.65204951e-03]
 [-6.98934120e-05  2.77086499e-03]]",[],0.0,0.0
1787210427.3613155,1.7589372095103646,1.0566669040750318,2.3528254610034303,"[ 6.95042872e-06  2.22310883e-07  0.00000000e+00  0.00000000e+00
  0.00000000e+00 -3.71371629e-07  2.22310883e-07  5.51245287e-06
  0.00000000e+00  0.00000000e+00  0.00000000e+00 -1.90917321e-07
  0.00000000e+00  0.00000000e+00  0.00000000e+00  0.00000000e+00
  0.00000000e+00  0.00000000e+00  0.00000000e+00  0.00000000e+00
  0.00000000e+00  0.00000000e+00  0.00000000e+00  0.00000000e+00
  0.00000000e+00  0.00000000e+00  0.00000000e+00  0.00000000e+00
  0.00000000e+00  0.00000000e+00 -3.71371629e-07 -1.90917321e-07
  0.00000000e+00  0.00000000e+00  0.00000000e+00  3.24290386e-06]","[[ 1.43120225e-04  2.65204951e-03]
 [-6.98934120e-05  2.77086499e-03]]",[],0.0,0.0
1787210427.4377449,1.7589372095103646,1.0566669040750318,2.3528254610034303,"[ 6.95042872e-06  2.22310883e-07  0.00000000e+00  0.00000000e+00
  0.00000000e+00 -3.71371629e-07  2.22310883e-07  5.51245287e-06
  0.00000000e+00  0.00000000e+00  0.00000000e+00 -1.90917321e-07
  0.00000000e+00  0.00000000e+00  0.00000000e+00  0.00000000e+00
  0.00000000e+00  0.00000000e+00  0.00000000e+00  0.00000000e+00
  0.00000000e+00  0.00000000e+00  0.00000000e+00  0.00000000e+00
  0.00000000e+00  0.00000000e+00  0.00000000e+00  0.00000000e+00
  0.00000000e+00  0.00000000e+00 -3.71371629e-07 -1.90917321e-07
  0.00000000e+00  0.00000000e+00  0.00000000e+00  3.24290386e-06]","[[ 1.43120225e-04  2.65204951e-03]
 [-6.98934120e-05  2.77086499e-03]]",[],0.0,0.0
1787210427.4857543,1.7590197382516868,1.049720787055022,2.347022919086533,"[ 6.30806561e-06  1.65782813e-07  0.00000000e+00  0.00000000e+00
  0.00000000e+00 -2.98042434e-07  1.65782813e-07  5.07869069e-06
  0.00000000e+00  0.00000000e+00  0.00000000e+00 -1.35472993e-07
  0.00000000e+00  0.00000000e+00  0.00000000e+00  0.00000000e+00
  0.00000000e+00  0.00000000e+00  0.00000000e+00  0.00000000e+00
  0.00000000e+00  0.00000000e+00  0.00000000e+00  0.00000000e+00
  0.00000000e+00  0.00000000e+00  0.00000000e+00  0.00000000e+00
  0.00000000e+00  0.00000000e+00 -2.98042434e-07 -1.35472993e-07
  0.00000000e+00  0.00000000e+00  0.00000000e+00  3.35845207e-06]","[[ 1.30190798e-04  2.32841151e-03]
 [-6.54456948e-05  2.46718584e-03]]",[],0.0,0.0
1787210427.5704873,1.7590197382516868,1.049720787055022,2.347022919086533,"[ 6.30806561e-06  1.65782813e-07  0.00000000e+00  0.00000000e+00
  0.00000000e+00 -2.98042434e-07  1.65782813e-07  5.07869069e-06
  0.00000000e+00  0.00000000e+00  0.00000000e+00 -1.35472993e-07
  0.00000000e+00  0.00000000e+00  0.00000000e+00  0.00000000e+00
  0.00000000e+00  0.00000000e+00  0.00000000e+00  0.00000000e+00
  0.00000000e+00  0.00000000e+00  0.00000000e+00  0.00000000e+00
  0.00000000e+00  0.00000000e+00  0.00000000e+00  0.00000000e+00
  0.00000000e+00  0.00000000e+00 -2.98042434e-07 -1.35472993e-07
  0.00000000e+00  0.00000000e+00  0.00000000e+00  3.35845207e-06]","[[ 1.30190798e-04  2.32841151e-03]
 [-6.54456948e-05  2.46718584e-03]]",[],0.0,0.0
1787210427.611654,1.7590197382516868,1.049720787055022,2.347022919086533,"[ 6.30806561e-06  1.65782813e-07  0.00000000e+00  0.00000000e+00
  0.00000000e+00 -2.98042434e-07  1.65782813e-07  5.07869069e-06
  0.00000000e+00  0.00000000e+00  0.00000000e+00 -1.35472993e-07
  0.00000000e+00  0.00000000e+00  0.00000000e+00  0.00000000e+00
  0.00000000e+00  0.00000000e+00  0.00000000e+00  0.00000000e+00
  0.00000000e+00  0.00000000e+00  0.00000000e+00  0.00000000e+00
  0.00000000e+00  0.00000000e+00  0.00000000e+00  0.00000000e+00
  0.00000000e+00  0.00000000e+00 -2.98042434e-07 -1.35472993e-07
  0.00000000e+00  0.00000000e+00  0.00000000e+00  3.35845207e-06]","[[ 1.30190798e-04  2.32841151e-03]
 [-6.54456948e-05  2.46718584e-03]]",[],0.0,0.0
1787210427.6499095,1.7590197382516868,1.049720787055022,2.347022919086533,"[ 6.30806561e-06  1.65782813e-07  0.00000000e+00  0.00000000e+00
  0.00000000e+00 -2.98042434e-07  1.65782813e-07  5.07869069e-06
  0.00000000e+00  0.00000000e+00  0.00000000e+00 -1.35472993e-07
  0.00000000e+00  0.00000000e+00  0.00000000e+00  0.00000000e+00
  0.00000000e+00  0.00000000e+00  0.00000000e+00  0.00000000e+00
  0.00000000e+00  0.00000000e+00  0.00000000e+00  0.00000000e+00
  0.00000000e+00  0.00000000e+00  0.00000000e+00  0.00000000e+00
  0.00000000e+00  0.00000000e+00 -2.98042434e-07 -1.35472993e-07
  0.00000000e+00  0.00000000e+00  0.00000000e+00  3.35845207e-06]","[[ 1.30190798e-04  2.32841151e-03]
 [-6.54456948e-05  2.46718584e-03]]",[],0.0,0.0
1787210427.6905465,1.7590197382516868,1.049720787055022,2.347022919086533,"[ 6.30806561e-06  1.65782813e-07  0.00000000e+00  0.00000000e+00
  0.00000000e+00 -2.98042434e-07  1.65782813e-07  5.07869069e-06
  0.00000000e+00  0.00000000e+00  0.00000000e+00 -1.35472993e-07
  0.00000000e+00  0.00000000e+00  0.00000000e+00  0.00000000e+00
  0.00000000e+00  0.00000000e+00  0.00000000e+00  0.00000000e+00
  0.00000000e+00  0.00000000e+00  0.00000000e+00  0.00000000e+00
  0.00000000e+00  0.00000000e+00  0.00000000e+00  0.00000000e+00
  0.00000000e+00  0.00000000e+00 -2.98042434e-07 -1.35472993e-07
  0.00000000e+00  0.00000000e+00  0.00000000e+00  3.35845207e-06]","[[ 1.30190798e-04  2.32841151e-03]
 [-6.54456948e-05  2.46718584e-03]]",[],0.0,0.0
1787210427.7576244,1.7590197382516868,1.049720787055022,2.347022919086533,"[ 6.30806561e-06  1.65782813e-07  0.00000000e+00  0.00000000e+00
  0.00000000e+00 -2.98042434e-07  1.65782813e-07  5.07869069e-06
  0.00000000e+00  0.00000000e+00  0.00000000e+00 -1.35472993e-07
  0.00000000e+00  0.00000000e+00  0.00000000e+00  0.00000000e+00
  0.00000000e+00  0.00000000e+00  0.00000000e+00  0.00000000e+00
  0.00000000e+00  0.00000000e+00  0.00000000e+00  0.00000000e+00
  0.00000000e+00  0.00000000e+00  0.00000000e+00  0.00000000e+00
  0.00000000e+00  0.00000000e+00 -2.98042434e-07 -1.35472993e-07
  0.00000000e+00  0.00000000e+00  0.00000000e+00  3.35845207e-06]","[[ 1.30190798e-04  2.32841151e-03]
 [-6.54456948e-05  2.46718584e-03]]",[],0.0,0.0
1787210427.7836359,1.7590197382516868,1.049720787055022,2.347022919086533,"[ 6.30806561e-06  1.65782813e-07  0.00000000e+00  0.00000000e+00
  0.00000000e+00 -2.98042434e-07  1.65782813e-07  5.07869069e-06
  0.00000000e+00  0.00000000e+00  0.00000000e+00 -1.35472993e-07
  0.00000000e+00  0.00000000e+00  0.00000000e+00  0.00000000e+00
  0.00000000e+00  0.00000000e+00  0.00000000e+00  0.00000000e+00
  0.00000000e+00  0.00000000e+00  0.00000000e+00  0.00000000e+00
  0.00000000e+00  0.00000000e+00  0.00000000e+00  0.00000000e+00
  0.00000000e+00  0.00000000e+00 -2.98042434e-07 -1.35472993e-07
  0.00000000e+00  0.00000000e+00  0.00000000e+00  3.35845207e-06]","[[ 1.30190798e-04  2.32841151e-03]
 [-6.54456948e-05  2.46718584e-03]]",[],0.0,0.0
1787210427.8386862,1.7590197382516868,1.049720787055022,2.347022919086533,"[ 6.30806561e-06  1.65782813e-07  0.00000000e+00  0.00000000e+00
  0.00000000e+00 -2.98042434e-07  1.65782813e-07  5.07869069e-06
  0.00000000e+00  0.00000000e+00  0.00000000e+00 -1.35472993e-07
  0.00000000e+00  0.00000000e+00  0.00000000e+00  0.00000000e+00
  0.00000000e+00  0.00000000e+00  0.00000000e+00  0.00000000e+00
  0.00000000e+00  0.00000000e+00  0.00000000e+00  0.00000000e+00
  0.00000000e+00  0.00000000e+00  0.00000000e+00  0.00000000e+00
  0.00000000e+00  0.00000000e+00 -2.98042434e-07 -1.35472993e-07
  0.00000000e+00  0.00000000e+00  0.00000000e+00  3.35845207e-06]","[[ 1.30190798e-04  2.32841151e-03]
 [-6.54456948e-05  2.46718584e-03]]",[],0.0,0.0
1787210427.8839085,1.7590197382516868,1.049720787055022,2.347022919086533,"[ 6.30806561e-06  1.65782813e-07  0.00000000e+00  0.00000000e+00
  0.00000000e+00 -2.98042434e-07  1.65782813e-07  5.07869069e-06
  0.00000000e+00  0.00000000e+00  0.00000000e+00 -1.35472993e-07
  0.00000000e+00  0.00000000e+00  0.00000000e+00  0.00000000e+00
  0.00000000e+00  0.00000000e+00  0.00000000e+00  0.00000000e+00
  0.00000000e+00  0.00000000e+00  0.00000000e+00  0.00000000e+00
  0.00000000e+00  0.00000000e+00  0.00000000e+00  0.00000000e+00
  0.00000000e+00  0.00000000e+00 -2.98042434e-07 -1.35472993e-07
  0.00000000e+00  0.00000000e+00  0.00000000e+00  3.35845207e-06]","[[ 1.30190798e-04  2.32841151e-03]
 [-6.54456948e-05  2.46718584e-03]]",[],0.0,0.0
1787210427.9337442,1.7590197382516868,1.049720787055022,2.347022919086533,"[ 6.30806561e-06  1.65782813e-07  0.00000000e+00  0.00000000e+00
  0.00000000e+00 -2.98042434e-07  1.65782813e-07  5.07869069e-06
  0.00000000e+00  0.00000000e+00  0.00000000e+00 -1.35472993e-07
  0.00000000e+00  0.00000000e+00  0.00000000e+00  0.00000000e+00
  0.00000000e+00  0.00000000e+00  0.00000000e+00  0.00000000e+00
  0.00000000e+00  0.00000000e+00  0.00000000e+00  0.00000000e+00
  0.00000000e+00  0.00000000e+00  0.00000000e+00  0.00000000e+00
  0.00000000e+00  0.00000000e+00 -2.98042434e-07 -1.35472993e-07
  0.00000000e+00  0.00000000e+00  0.00000000e+00  3.35845207e-06]","[[ 1.30190798e-04  2.32841151e-03]
 [-6.54456948e-05  2.46718584e-03]]",[],0.0,0.0
1787210427.9872954,1.7590197382516868,1.049720787055022,2.347022919086533,"[ 6.30806561e-06  1.65782813e-07  0.00000000e+00  0.00000000e+00
  0.00000000e+00 -2.98042434e-07  1.65782813e-07  5.07869069e-06
  0.00000000e+00  0.00000000e+00  0.00000000e+00 -1.35472993e-07
  0.00000000e+00  0.00000000e+00  0.00000000e+00  0.00000000e+00
  0.00000000e+00  0.00000000e+00  0.00000000e+00  0.00000000e+00
  0.00000000e+00  0.00000000e+00  0.00000000e+00  0.00000000e+00
  0.00000000e+00  0.00000000e+00  0.00000000e+00  0.00000000e+00
  0.00000000e+00  0.00000000e+00 -2.98042434e-07 -1.35472993e-07
