time,x,y,yaw,cov_prop,K_gain,innovation,v_ekf,omega_ekf
1786957722.9651241,1.4518594806759628e-05,4.968441775479602e-09,0.00033379809581379755,"[9.99880305e-03 7.72407052e-13 0.00000000e+00 0.00000000e+00
 0.00000000e+00 2.99582378e-09 7.72407052e-13 9.99880014e-03
 0.00000000e+00 0.00000000e+00 0.00000000e+00 7.94947554e-13
 0.00000000e+00 0.00000000e+00 0.00000000e+00 0.00000000e+00
 0.00000000e+00 0.00000000e+00 0.00000000e+00 0.00000000e+00
 0.00000000e+00 0.00000000e+00 0.00000000e+00 0.00000000e+00
 0.00000000e+00 0.00000000e+00 0.00000000e+00 0.00000000e+00
 0.00000000e+00 0.00000000e+00 2.99582378e-09 7.94947554e-13
 0.00000000e+00 0.00000000e+00 0.00000000e+00 9.99886099e-03]","[[9.99880305e-06 7.72407052e-16 2.99582378e-12]
 [7.72407052e-16 9.99880014e-06 7.94947554e-16]
 [2.99582378e-12 7.94947554e-16 9.99886099e-06]]",[-1.45187400e-05 -4.96849145e-09 -3.33801433e-04],0.0,0.0
1786957723.0168352,4.831891312334509e-05,1.6035609439491085e-08,0.00031420695568495915,"[9.99850358e-03 9.17241896e-13 0.00000000e+00 0.00000000e+00
 0.00000000e+00 3.45229695e-09 9.17241896e-13 9.99850022e-03
 0.00000000e+00 0.00000000e+00 0.00000000e+00 9.44008990e-13
 0.00000000e+00 0.00000000e+00 0.00000000e+00 0.00000000e+00
 0.00000000e+00 0.00000000e+00 0.00000000e+00 0.00000000e+00
 0.00000000e+00 0.00000000e+00 0.00000000e+00 0.00000000e+00
 0.00000000e+00 0.00000000e+00 0.00000000e+00 0.00000000e+00
 0.00000000e+00 0.00000000e+00 3.45229695e-09 9.44008990e-13
 0.00000000e+00 0.00000000e+00 0.00000000e+00 9.99857034e-03]","[[9.99850358e-06 9.17241896e-16 3.45229695e-12]
 [9.17241896e-16 9.99850022e-06 9.44008990e-16]
 [3.45229695e-12 9.44008990e-16 9.99857034e-06]]",[-4.83193962e-05 -1.60357698e-08 -3.14210097e-04],0.0,0.0
1786957723.0675998,7.097741832870723e-05,2.3101844288953508e-08,0.0003010738055726492,"[9.99830401e-03 1.03195422e-12 0.00000000e+00 0.00000000e+00
 0.00000000e+00 3.82904083e-09 1.03195422e-12 9.99830029e-03
 0.00000000e+00 0.00000000e+00 0.00000000e+00 1.06206886e-12
 0.00000000e+00 0.00000000e+00 0.00000000e+00 0.00000000e+00
 0.00000000e+00 0.00000000e+00 0.00000000e+00 0.00000000e+00
 0.00000000e+00 0.00000000e+00 0.00000000e+00 0.00000000e+00
 0.00000000e+00 0.00000000e+00 0.00000000e+00 0.00000000e+00
 0.00000000e+00 0.00000000e+00 3.82904083e-09 1.06206886e-12
 0.00000000e+00 0.00000000e+00 0.00000000e+00 9.99837806e-03]","[[9.99830401e-06 1.03195422e-15 3.82904083e-12]
 [1.03195422e-15 9.99830029e-06 1.06206886e-15]
 [3.82904083e-12 1.06206886e-15 9.99837806e-06]]",[-7.09781280e-05 -2.31020753e-08 -3.01076816e-04],0.0,0.0
1786957723.1192555,9.250005139798271e-05,2.953108766964955e-08,0.00028859867830011154,"[9.99810440e-03 1.12807288e-12 0.00000000e+00 0.00000000e+00
 0.00000000e+00 4.15864074e-09 1.12807288e-12 9.99810036e-03
 0.00000000e+00 0.00000000e+00 0.00000000e+00 1.16099247e-12
 0.00000000e+00 0.00000000e+00 0.00000000e+00 0.00000000e+00
 0.00000000e+00 0.00000000e+00 0.00000000e+00 0.00000000e+00
 0.00000000e+00 0.00000000e+00 0.00000000e+00 0.00000000e+00
 0.00000000e+00 0.00000000e+00 0.00000000e+00 0.00000000e+00
 0.00000000e+00 0.00000000e+00 4.15864074e-09 1.16099247e-12
 0.00000000e+00 0.00000000e+00 0.00000000e+00 9.99818482e-03]","[[9.99810440e-06 1.12807288e-15 4.15864074e-12]
 [1.12807288e-15 9.99810036e-06 1.16099247e-15]
 [4.15864074e-12 1.16099247e-15 9.99818482e-06]]",[-9.25009762e-05 -2.95313829e-08 -2.88601564e-04],0.0,0.0
1786957723.1641777,0.00013426640910785907,4.133475797748194e-08,0.0002643961516457516,"[9.99790546e-03 1.40536567e-12 0.00000000e+00 0.00000000e+00
 0.00000000e+00 5.16602152e-09 1.40536567e-12 9.99790044e-03
 0.00000000e+00 0.00000000e+00 0.00000000e+00 1.44637726e-12
 0.00000000e+00 0.00000000e+00 0.00000000e+00 0.00000000e+00
 0.00000000e+00 0.00000000e+00 0.00000000e+00 0.00000000e+00
 0.00000000e+00 0.00000000e+00 0.00000000e+00 0.00000000e+00
 0.00000000e+00 0.00000000e+00 0.00000000e+00 0.00000000e+00
 0.00000000e+00 0.00000000e+00 5.16602152e-09 1.44637726e-12
 0.00000000e+00 0.00000000e+00 0.00000000e+00 9.99800537e-03]","[[9.99790546e-06 1.40536567e-15 5.16602152e-12]
 [1.40536567e-15 9.99790044e-06 1.44637726e-15]
 [5.16602152e-12 1.44637726e-15 9.99800537e-06]]",[-1.34267752e-04 -4.13351712e-08 -2.64398795e-04],0.0,0.0
1786957723.2141447,0.00012552089074337102,3.9136918558062564e-08,0.00025145789354574793,"[9.99760589e-03 1.48184839e-12 0.00000000e+00 0.00000000e+00
 0.00000000e+00 5.46966818e-09 1.48184839e-12 9.99760058e-03
 0.00000000e+00 0.00000000e+00 0.00000000e+00 1.52509192e-12
 0.00000000e+00 0.00000000e+00 0.00000000e+00 0.00000000e+00
 0.00000000e+00 0.00000000e+00 0.00000000e+00 0.00000000e+00
 0.00000000e+00 0.00000000e+00 0.00000000e+00 0.00000000e+00
 0.00000000e+00 0.00000000e+00 0.00000000e+00 0.00000000e+00
 0.00000000e+00 0.00000000e+00 5.46966818e-09 1.52509192e-12
 0.00000000e+00 0.00000000e+00 0.00000000e+00 9.99771167e-03]","[[9.99760589e-06 1.48184839e-15 5.46966818e-12]
 [1.48184839e-15 9.99760058e-06 1.52509192e-15]
 [5.46966818e-12 1.52509192e-15 9.99771167e-06]]",[-1.25522146e-04 -3.91373098e-08 -2.51460408e-04],0.0,0.0
1786957723.263897,0.00010593028192550202,3.4256993190410116e-08,0.00023251333007134894,"[9.99730647e-03 1.58818235e-12 0.00000000e+00 0.00000000e+00
 0.00000000e+00 5.91310776e-09 1.58818235e-12 9.99730073e-03
 0.00000000e+00 0.00000000e+00 0.00000000e+00 1.63452892e-12
 0.00000000e+00 0.00000000e+00 0.00000000e+00 0.00000000e+00
 0.00000000e+00 0.00000000e+00 0.00000000e+00 0.00000000e+00
 0.00000000e+00 0.00000000e+00 0.00000000e+00 0.00000000e+00
 0.00000000e+00 0.00000000e+00 0.00000000e+00 0.00000000e+00
 0.00000000e+00 0.00000000e+00 5.91310776e-09 1.63452892e-12
 0.00000000e+00 0.00000000e+00 0.00000000e+00 9.99742083e-03]","[[9.99730647e-06 1.58818235e-15 5.91310776e-12]
 [1.58818235e-15 9.99730073e-06 1.63452892e-15]
 [5.91310776e-12 1.63452892e-15 9.99742083e-06]]",[-1.05931341e-04 -3.42573357e-08 -2.32515655e-04],0.0,0.0
1786957723.315327,0.00010592816393104718,3.4256308248350316e-08,0.00015440887702755648,"[9.99710691e-03 1.64871174e-12 0.00000000e+00 0.00000000e+00
 0.00000000e+00 6.24849465e-09 1.64871174e-12 9.99710084e-03
 0.00000000e+00 0.00000000e+00 0.00000000e+00 1.69682469e-12
 0.00000000e+00 0.00000000e+00 0.00000000e+00 0.00000000e+00
 0.00000000e+00 0.00000000e+00 0.00000000e+00 0.00000000e+00
 0.00000000e+00 0.00000000e+00 0.00000000e+00 0.00000000e+00
 0.00000000e+00 0.00000000e+00 0.00000000e+00 0.00000000e+00
 0.00000000e+00 0.00000000e+00 6.24849465e-09 1.69682469e-12
 0.00000000e+00 0.00000000e+00 0.00000000e+00 9.99722775e-03]","[[9.99710691e-06 1.64871174e-15 6.24849465e-12]
 [1.64871174e-15 9.99710084e-06 1.69682469e-15]
 [6.24849465e-12 1.69682469e-15 9.99722775e-06]]",[-1.05929223e-04 -3.42566507e-08 -1.54410421e-04],0.0,0.0
1786957723.3639932,0.00010592604602039789,3.42556233334589e-08,0.00022144106695121124,"[9.99690731e-03 1.69488943e-12 0.00000000e+00 0.00000000e+00
 0.00000000e+00 6.53670635e-09 1.69488943e-12 9.99690096e-03
 0.00000000e+00 0.00000000e+00 0.00000000e+00 1.74434994e-12
 0.00000000e+00 0.00000000e+00 0.00000000e+00 0.00000000e+00
 0.00000000e+00 0.00000000e+00 0.00000000e+00 0.00000000e+00
 0.00000000e+00 0.00000000e+00 0.00000000e+00 0.00000000e+00
 0.00000000e+00 0.00000000e+00 0.00000000e+00 0.00000000e+00
 0.00000000e+00 0.00000000e+00 6.53670635e-09 1.74434994e-12
 0.00000000e+00 0.00000000e+00 0.00000000e+00 9.99703372e-03]","[[9.99690731e-06 1.69488943e-15 6.53670635e-12]
 [1.69488943e-15 9.99690096e-06 1.74434994e-15]
 [6.53670635e-12 1.74434994e-15 9.99703372e-06]]",[-1.05927105e-04 -3.42559658e-08 -2.21443281e-04],0.0,0.0
1786957723.414898,0.00010592286931034083,3.4254596011719066e-08,0.00036530607889906364,"[9.99660797e-03 1.81878825e-12 0.00000000e+00 0.00000000e+00
 0.00000000e+00 7.01805140e-09 1.81878825e-12 9.99660116e-03
 0.00000000e+00 0.00000000e+00 0.00000000e+00 1.87186440e-12
 0.00000000e+00 0.00000000e+00 0.00000000e+00 0.00000000e+00
 0.00000000e+00 0.00000000e+00 0.00000000e+00 0.00000000e+00
 0.00000000e+00 0.00000000e+00 0.00000000e+00 0.00000000e+00
 0.00000000e+00 0.00000000e+00 0.00000000e+00 0.00000000e+00
 0.00000000e+00 0.00000000e+00 7.01805140e-09 1.87186440e-12
 0.00000000e+00 0.00000000e+00 0.00000000e+00 9.99674370e-03]","[[9.99660797e-06 1.81878825e-15 7.01805140e-12]
 [1.81878825e-15 9.99660116e-06 1.87186440e-15]
 [7.01805140e-12 1.87186440e-15 9.99674370e-06]]",[-1.05923928e-04 -3.42549384e-08 -3.65309731e-04],0.0,0.0
1786957723.4645135,0.00010592075160746943,3.4253911164216916e-08,0.0004637359570316412,"[9.99640844e-03 1.94535993e-12 0.00000000e+00 0.00000000e+00
 0.00000000e+00 7.35106184e-09 1.94535993e-12 9.99640130e-03
 0.00000000e+00 0.00000000e+00 0.00000000e+00 2.00212971e-12
 0.00000000e+00 0.00000000e+00 0.00000000e+00 0.00000000e+00
 0.00000000e+00 0.00000000e+00 0.00000000e+00 0.00000000e+00
 0.00000000e+00 0.00000000e+00 0.00000000e+00 0.00000000e+00
 0.00000000e+00 0.00000000e+00 0.00000000e+00 0.00000000e+00
 0.00000000e+00 0.00000000e+00 7.35106184e-09 2.00212971e-12
 0.00000000e+00 0.00000000e+00 0.00000000e+00 9.99655060e-03]","[[9.99640844e-06 1.94535993e-15 7.35106184e-12]
 [1.94535993e-15 9.99640130e-06 2.00212971e-15]
 [7.35106184e-12 2.00212971e-15 9.99655060e-06]]",[-1.05921810e-04 -3.42542536e-08 -4.63740593e-04],0.0,0.0
1786957723.514237,0.00010591757520815561,3.425288394311811e-08,0.0005874498187599109,"[9.99610909e-03 2.17438534e-12 0.00000000e+00 0.00000000e+00
 0.00000000e+00 7.78741992e-09 2.17438534e-12 9.99610152e-03
 0.00000000e+00 0.00000000e+00 0.00000000e+00 2.23783860e-12
 0.00000000e+00 0.00000000e+00 0.00000000e+00 0.00000000e+00
 0.00000000e+00 0.00000000e+00 0.00000000e+00 0.00000000e+00
 0.00000000e+00 0.00000000e+00 0.00000000e+00 0.00000000e+00
 0.00000000e+00 0.00000000e+00 0.00000000e+00 0.00000000e+00
 0.00000000e+00 0.00000000e+00 7.78741992e-09 2.23783860e-12
 0.00000000e+00 0.00000000e+00 0.00000000e+00 9.99625969e-03]","[[9.99610909e-06 2.17438534e-15 7.78741992e-12]
 [2.17438534e-15 9.99610152e-06 2.23783860e-15]
 [7.78741992e-12 2.23783860e-15 9.99625969e-06]]",[-1.05918634e-04 -3.42532263e-08 -5.87455691e-04],0.0,0.0
1786957723.5644674,0.00010591439899938029,3.4251856783376696e-08,0.0005066752917257666,"[9.99580978e-03 2.42792982e-12 0.00000000e+00 0.00000000e+00
 0.00000000e+00 8.25015635e-09 2.42792982e-12 9.99580176e-03
 0.00000000e+00 0.00000000e+00 0.00000000e+00 2.49878208e-12
 0.00000000e+00 0.00000000e+00 0.00000000e+00 0.00000000e+00
 0.00000000e+00 0.00000000e+00 0.00000000e+00 0.00000000e+00
 0.00000000e+00 0.00000000e+00 0.00000000e+00 0.00000000e+00
 0.00000000e+00 0.00000000e+00 0.00000000e+00 0.00000000e+00
 0.00000000e+00 0.00000000e+00 8.25015635e-09 2.49878208e-12
 0.00000000e+00 0.00000000e+00 0.00000000e+00 9.99596933e-03]","[[9.99590955e-06 2.34819126e-15 8.09723611e-12]
 [2.34819126e-15 9.99590168e-06 2.41671657e-15]
 [8.09723611e-12 2.41671657e-15 9.99606614e-06]]",[-1.05916516e-04 -3.42525415e-08 -5.36409058e-04],0.0,0.0
1786957723.614998,0.00010591228163347099,3.4251172044573794e-08,0.00044540662061143266,"[9.99561026e-03 2.58011915e-12 0.00000000e+00 0.00000000e+00
 0.00000000e+00 8.56815566e-09 2.58011915e-12 9.99560194e-03
 0.00000000e+00 0.00000000e+00 0.00000000e+00 2.65541263e-12
 0.00000000e+00 0.00000000e+00 0.00000000e+00 0.00000000e+00
 0.00000000e+00 0.00000000e+00 0.00000000e+00 0.00000000e+00
 0.00000000e+00 0.00000000e+00 0.00000000e+00 0.00000000e+00
 0.00000000e+00 0.00000000e+00 0.00000000e+00 0.00000000e+00
 0.00000000e+00 0.00000000e+00 8.56815566e-09 2.65541263e-12
 0.00000000e+00 0.00000000e+00 0.00000000e+00 9.99577596e-03]","[[9.99561026e-06 2.58011915e-15 8.56815566e-12]
 [2.58011915e-15 9.99560194e-06 2.65541263e-15]
 [8.56815566e-12 2.65541263e-15 9.99577596e-06]]",[-1.05913340e-04 -3.42515144e-08 -4.45411073e-04],0.0,0.0
1786957723.6634064,0.00010590910574347765,3.4250144987664417e-08,0.0004449772783425842,"[9.99531097e-03 2.76939646e-12 0.00000000e+00 0.00000000e+00
 0.00000000e+00 9.02111706e-09 2.76939646e-12 9.99530221e-03
 0.00000000e+00 0.00000000e+00 0.00000000e+00 2.85021347e-12
 0.00000000e+00 0.00000000e+00 0.00000000e+00 0.00000000e+00
 0.00000000e+00 0.00000000e+00 0.00000000e+00 0.00000000e+00
 0.00000000e+00 0.00000000e+00 0.00000000e+00 0.00000000e+00
 0.00000000e+00 0.00000000e+00 0.00000000e+00 0.00000000e+00
 0.00000000e+00 0.00000000e+00 9.02111706e-09 2.85021347e-12
 0.00000000e+00 0.00000000e+00 0.00000000e+00 9.99548543e-03]","[[9.99531097e-06 2.76939646e-15 9.02111706e-12]
 [2.76939646e-15 9.99530221e-06 2.85021347e-15]
 [9.02111706e-12 2.85021347e-15 9.99548543e-06]]",[-1.05910164e-04 -3.42504873e-08 -4.44981726e-04],0.0,0.0
1786957723.713802,0.00010590698858815388,3.4249460316859e-08,0.0004747395762905171,"[9.99511148e-03 2.91284281e-12 0.00000000e+00 0.00000000e+00
 0.00000000e+00 9.34817408e-09 2.91284281e-12 9.99510240e-03
 0.00000000e+00 0.00000000e+00 0.00000000e+00 2.99784590e-12
 0.00000000e+00 0.00000000e+00 0.00000000e+00 0.00000000e+00
 0.00000000e+00 0.00000000e+00 0.00000000e+00 0.00000000e+00
 0.00000000e+00 0.00000000e+00 0.00000000e+00 0.00000000e+00
 0.00000000e+00 0.00000000e+00 0.00000000e+00 0.00000000e+00
 0.00000000e+00 0.00000000e+00 9.34817408e-09 2.99784590e-12
 0.00000000e+00 0.00000000e+00 0.00000000e+00 9.99529227e-03]","[[9.99511148e-06 2.91284281e-15 9.34817408e-12]
 [2.91284281e-15 9.99510240e-06 2.99784590e-15]
 [9.34817408e-12 2.99784590e-15 9.99529227e-06]]",[-1.05908047e-04 -3.42498026e-08 -4.74744321e-04],0.0,0.0
1786957723.7648115,0.00010590593004189,3.424911799159025e-08,0.0004902367311578892,"[9.99501175e-03 2.99334436e-12 0.00000000e+00 0.00000000e+00
 0.00000000e+00 9.52263176e-09 2.99334436e-12 9.99500250e-03
 0.00000000e+00 0.00000000e+00 0.00000000e+00 3.08069666e-12
 0.00000000e+00 0.00000000e+00 0.00000000e+00 0.00000000e+00
 0.00000000e+00 0.00000000e+00 0.00000000e+00 0.00000000e+00
 0.00000000e+00 0.00000000e+00 0.00000000e+00 0.00000000e+00
 0.00000000e+00 0.00000000e+00 0.00000000e+00 0.00000000e+00
 0.00000000e+00 0.00000000e+00 9.52263176e-09 3.08069666e-12
 0.00000000e+00 0.00000000e+00 0.00000000e+00 9.99519591e-03]","[[9.99501175e-06 2.99334436e-15 9.52263176e-12]
 [2.99334436e-15 9.99500250e-06 3.08069666e-15]
 [9.52263176e-12 3.08069666e-15 9.99519591e-06]]",[-1.05906989e-04 -3.42494603e-08 -4.90241631e-04],0.0,0.0
1786957723.814387,0.00010590275452806892,3.424809105596089e-08,0.0005306112753085125,"[9.99471295e-03 3.43182772e-12 0.00000000e+00 0.00000000e+00
 0.00000000e+00 1.04367657e-08 3.43182772e-12 9.99470281e-03
 0.00000000e+00 0.00000000e+00 0.00000000e+00 3.53197595e-12
 0.00000000e+00 0.00000000e+00 0.00000000e+00 0.00000000e+00
 0.00000000e+00 0.00000000e+00 0.00000000e+00 0.00000000e+00
 0.00000000e+00 0.00000000e+00 0.00000000e+00 0.00000000e+00
 0.00000000e+00 0.00000000e+00 0.00000000e+00 0.00000000e+00
 0.00000000e+00 0.00000000e+00 1.04367657e-08 3.53197595e-12
 0.00000000e+00 0.00000000e+00 0.00000000e+00 9.99491478e-03]","[[9.99471295e-06 3.43182772e-15 1.04367657e-11]
 [3.43182772e-15 9.99470281e-06 3.53197595e-15]
 [1.04367657e-11 3.53197595e-15 9.99491478e-06]]",[-1.05903813e-04 -3.42484334e-08 -5.30616579e-04],0.0,0.0
1786957723.863793,0.00010589957920195643,3.424706418081781e-08,0.0005751228492312243,"[9.99441371e-03 3.67384331e-12 0.00000000e+00 0.00000000e+00
 0.00000000e+00 1.08894127e-08 3.67384331e-12 9.99440313e-03
 0.00000000e+00 0.00000000e+00 0.00000000e+00 3.78105409e-12
 0.00000000e+00 0.00000000e+00 0.00000000e+00 0.00000000e+00
 0.00000000e+00 0.00000000e+00 0.00000000e+00 0.00000000e+00
 0.00000000e+00 0.00000000e+00 0.00000000e+00 0.00000000e+00
 0.00000000e+00 0.00000000e+00 0.00000000e+00 0.00000000e+00
 0.00000000e+00 0.00000000e+00 1.08894127e-08 3.78105409e-12
 0.00000000e+00 0.00000000e+00 0.00000000e+00 9.99462430e-03]","[[9.99441371e-06 3.67384331e-15 1.08894127e-11]
 [3.67384331e-15 9.99440313e-06 3.78105409e-15]
 [1.08894127e-11 3.78105409e-15 9.99462430e-06]]",[-1.05900638e-04 -3.42474065e-08 -5.75128597e-04],0.0,0.0
1786957723.913741,0.00010589746242229367,3.4246379630992065e-08,0.0006263303160323196,"[9.99421432e-03 3.89405184e-12 0.00000000e+00 0.00000000e+00
 0.00000000e+00 1.12801680e-08 3.89405184e-12 9.99420336e-03
 0.00000000e+00 0.00000000e+00 0.00000000e+00 4.00768881e-12
 0.00000000e+00 0.00000000e+00 0.00000000e+00 0.00000000e+00
 0.00000000e+00 0.00000000e+00 0.00000000e+00 0.00000000e+00
 0.00000000e+00 0.00000000e+00 0.00000000e+00 0.00000000e+00
 0.00000000e+00 0.00000000e+00 0.00000000e+00 0.00000000e+00
 0.00000000e+00 0.00000000e+00 1.12801680e-08 4.00768881e-12
 0.00000000e+00 0.00000000e+00 0.00000000e+00 9.99443247e-03]","[[9.99421432e-06 3.89405184e-15 1.12801680e-11]
 [3.89405184e-15 9.99420336e-06 4.00768881e-15]
 [1.12801680e-11 4.00768881e-15 9.99443247e-06]]",[-1.05898521e-04 -3.42467219e-08 -6.26336576e-04],0.0,0.0
1786957723.9640658,0.00010589534572552745,3.4245695107803855e-08,0.0006654604202638303,"[9.99401480e-03 4.04807295e-12 0.00000000e+00 0.00000000e+00
 0.00000000e+00 1.15267321e-08 4.04807295e-12 9.99400360e-03
 0.00000000e+00 0.00000000e+00 0.00000000e+00 4.16620461e-12
 0.00000000e+00 0.00000000e+00 0.00000000e+00 0.00000000e+00
 0.00000000e+00 0.00000000e+00 0.00000000e+00 0.00000000e+00
 0.00000000e+00 0.00000000e+00 0.00000000e+00 0.00000000e+00
 0.00000000e+00 0.00000000e+00 0.00000000e+00 0.00000000e+00
 0.00000000e+00 0.00000000e+00 1.15267321e-08 4.16620461e-12
 0.00000000e+00 0.00000000e+00 0.00000000e+00 9.99423771e-03]","[[9.99401480e-06 4.04807295e-15 1.15267321e-11]
 [4.04807295e-15 9.99400360e-06 4.16620461e-15]
 [1.15267321e-11 4.16620461e-15 9.99423771e-06]]",[-1.05896404e-04 -3.42460374e-08 -6.65467071e-04],0.0,0.0
1786957724.0156941,0.00010589217083749208,3.424466837349963e-08,0.000683272900062093,"[9.99371561e-03 4.34942790e-12 0.00000000e+00 0.00000000e+00
 0.00000000e+00 1.19866362e-08 4.34942790e-12 9.99370397e-03
 0.00000000e+00 0.00000000e+00 0.00000000e+00 4.47635379e-12
 0.00000000e+00 0.00000000e+00 0.00000000e+00 0.00000000e+00
 0.00000000e+00 0.00000000e+00 0.00000000e+00 0.00000000e+00
 0.00000000e+00 0.00000000e+00 0.00000000e+00 0.00000000e+00
 0.00000000e+00 0.00000000e+00 0.00000000e+00 0.00000000e+00
 0.00000000e+00 0.00000000e+00 1.19866362e-08 4.47635379e-12
 0.00000000e+00 0.00000000e+00 0.00000000e+00 9.99394742e-03]","[[9.99371561e-06 4.34942790e-15 1.19866362e-11]
 [4.34942790e-15 9.99370397e-06 4.47635379e-15]
 [1.19866362e-11 4.47635379e-15 9.99394742e-06]]",[-1.05893229e-04 -3.42450106e-08 -6.83279729e-04],0.0,0.0
1786957724.0639126,0.00010588899613936395,3.424364170026328e-08,0.0006445636570511227,"[9.99341645e-03 4.65456736e-12 0.00000000e+00 0.00000000e+00
 0.00000000e+00 1.24503452e-08 4.65456736e-12 9.99340435e-03
 0.00000000e+00 0.00000000e+00 0.00000000e+00 4.79039794e-12
 0.00000000e+00 0.00000000e+00 0.00000000e+00 0.00000000e+00
 0.00000000e+00 0.00000000e+00 0.00000000e+00 0.00000000e+00
 0.00000000e+00 0.00000000e+00 0.00000000e+00 0.00000000e+00
 0.00000000e+00 0.00000000e+00 0.00000000e+00 0.00000000e+00
 0.00000000e+00 0.00000000e+00 1.24503452e-08 4.79039794e-12
 0.00000000e+00 0.00000000e+00 0.00000000e+00 9.99365723e-03]","[[9.99351617e-06 4.55551260e-15 1.22969174e-11]
 [4.55551260e-15 9.99350422e-06 4.68845253e-15]
 [1.22969174e-11 4.68845253e-15 9.99375398e-06]]",[-1.05891113e-04 -3.42443261e-08 -6.64005459e-04],0.0,0.0
1786957724.1165626,0.00010588687978025518,3.42429572857029e-08,0.000612361117768412,"[9.99321701e-03 4.84167808e-12 0.00000000e+00 0.00000000e+00
 0.00000000e+00 1.27534433e-08 4.84167808e-12 9.99320462e-03
 0.00000000e+00 0.00000000e+00 0.00000000e+00 4.98296898e-12
 0.00000000e+00 0.00000000e+00 0.00000000e+00 0.00000000e+00
 0.00000000e+00 0.00000000e+00 0.00000000e+00 0.00000000e+00
 0.00000000e+00 0.00000000e+00 0.00000000e+00 0.00000000e+00
 0.00000000e+00 0.00000000e+00 0.00000000e+00 0.00000000e+00
 0.00000000e+00 0.00000000e+00 1.27534433e-08 4.98296898e-12
 0.00000000e+00 0.00000000e+00 0.00000000e+00 9.99346365e-03]","[[9.99321701e-06 4.84167808e-15 1.27534433e-11]
 [4.84167808e-15 9.99320462e-06 4.98296898e-15]
 [1.27534433e-11 4.98296898e-15 9.99346365e-06]]",[-1.05887938e-04 -3.42432995e-08 -6.12367237e-04],0.0,0.0
1786957724.1638026,0.00010588370540161099,3.424193071553393e-08,0.0005242913136824789,"[9.99291788e-03 5.11073090e-12 0.00000000e+00 0.00000000e+00
 0.00000000e+00 1.32206664e-08 5.11073090e-12 9.99290504e-03
 0.00000000e+00 0.00000000e+00 0.00000000e+00 5.25987337e-12
 0.00000000e+00 0.00000000e+00 0.00000000e+00 0.00000000e+00
 0.00000000e+00 0.00000000e+00 0.00000000e+00 0.00000000e+00
 0.00000000e+00 0.00000000e+00 0.00000000e+00 0.00000000e+00
 0.00000000e+00 0.00000000e+00 0.00000000e+00 0.00000000e+00
 0.00000000e+00 0.00000000e+00 1.32206664e-08 5.25987337e-12
 0.00000000e+00 0.00000000e+00 0.00000000e+00 9.99317355e-03]","[[9.99301761e-06 5.03371583e-15 1.30794144e-11]
 [5.03371583e-15 9.99300490e-06 5.18061082e-15]
 [1.30794144e-11 5.18061082e-15 9.99327055e-06]]",[-1.05885822e-04 -3.42426151e-08 -5.60843607e-04],0.0,0.0
1786957724.2166905,0.00010588158925655476,3.424124637019856e-08,0.00047876953163994434,"[9.99271847e-03 5.26479187e-12 0.00000000e+00 0.00000000e+00
 0.00000000e+00 1.35333725e-08 5.26479187e-12 9.99270533e-03
 0.00000000e+00 0.00000000e+00 0.00000000e+00 5.41843018e-12
 0.00000000e+00 0.00000000e+00 0.00000000e+00 0.00000000e+00
 0.00000000e+00 0.00000000e+00 0.00000000e+00 0.00000000e+00
 0.00000000e+00 0.00000000e+00 0.00000000e+00 0.00000000e+00
 0.00000000e+00 0.00000000e+00 0.00000000e+00 0.00000000e+00
 0.00000000e+00 0.00000000e+00 1.35333725e-08 5.41843018e-12
 0.00000000e+00 0.00000000e+00 0.00000000e+00 9.99298019e-03]","[[9.99271847e-06 5.26479187e-15 1.35333725e-11]
 [5.26479187e-15 9.99270533e-06 5.41843018e-15]
 [1.35333725e-11 5.41843018e-15 9.99298019e-06]]",[-1.05882647e-04 -3.42415885e-08 -4.78774316e-04],0.0,0.0
1786957724.2635944,0.00010587841519678078,3.424021990311899e-08,0.0004937867499257287,"[9.99241936e-03 5.47587189e-12 0.00000000e+00 0.00000000e+00
 0.00000000e+00 1.39867096e-08 5.47587189e-12 9.99240577e-03
 0.00000000e+00 0.00000000e+00 0.00000000e+00 5.63566997e-12
 0.00000000e+00 0.00000000e+00 0.00000000e+00 0.00000000e+00
 0.00000000e+00 0.00000000e+00 0.00000000e+00 0.00000000e+00
 0.00000000e+00 0.00000000e+00 0.00000000e+00 0.00000000e+00
 0.00000000e+00 0.00000000e+00 0.00000000e+00 0.00000000e+00
 0.00000000e+00 0.00000000e+00 1.39867096e-08 5.63566997e-12
 0.00000000e+00 0.00000000e+00 0.00000000e+00 9.99268985e-03]","[[9.99251906e-06 5.40427816e-15 1.38345373e-11]
 [5.40427816e-15 9.99250562e-06 5.56198699e-15]
 [1.38345373e-11 5.56198699e-15 9.99278661e-06]]",[-1.05880531e-04 -3.42409042e-08 -4.84063423e-04],0.0,0.0
1786957724.3142922,0.00010587629926089996,3.423953562517189e-08,0.0005530703496750001,"[9.99221998e-03 5.63062561e-12 0.00000000e+00 0.00000000e+00
 0.00000000e+00 1.43062390e-08 5.63062561e-12 9.99220608e-03
 0.00000000e+00 0.00000000e+00 0.00000000e+00 5.79493975e-12
 0.00000000e+00 0.00000000e+00 0.00000000e+00 0.00000000e+00
 0.00000000e+00 0.00000000e+00 0.00000000e+00 0.00000000e+00
 0.00000000e+00 0.00000000e+00 0.00000000e+00 0.00000000e+00
 0.00000000e+00 0.00000000e+00 0.00000000e+00 0.00000000e+00
 0.00000000e+00 0.00000000e+00 1.43062390e-08 5.79493975e-12
 0.00000000e+00 0.00000000e+00 0.00000000e+00 9.99249665e-03]","[[9.99221998e-06 5.63062561e-15 1.43062390e-11]
 [5.63062561e-15 9.99220608e-06 5.79493975e-15]
 [1.43062390e-11 5.79493975e-15 9.99249665e-06]]",[-1.05877357e-04 -3.42398778e-08 -5.53075876e-04],0.0,0.0
1786957724.364024,0.00010587312551201755,3.423850925793533e-08,0.0005869272599992037,"[9.99192090e-03 5.89153844e-12 0.00000000e+00 0.00000000e+00
 0.00000000e+00 1.47649408e-08 5.89153844e-12 9.99190656e-03
 0.00000000e+00 0.00000000e+00 0.00000000e+00 6.06346661e-12
 0.00000000e+00 0.00000000e+00 0.00000000e+00 0.00000000e+00
 0.00000000e+00 0.00000000e+00 0.00000000e+00 0.00000000e+00
 0.00000000e+00 0.00000000e+00 0.00000000e+00 0.00000000e+00
 0.00000000e+00 0.00000000e+00 0.00000000e+00 0.00000000e+00
 0.00000000e+00 0.00000000e+00 1.47649408e-08 6.06346661e-12
 0.00000000e+00 0.00000000e+00 0.00000000e+00 9.99220644e-03]","[[9.99192090e-06 5.89153844e-15 1.47649408e-11]
 [5.89153844e-15 9.99190656e-06 6.06346661e-15]
 [1.47649408e-11 6.06346661e-15 9.99220644e-06]]",[-1.05874183e-04 -3.42388514e-08 -5.86933125e-04],0.0,0.0
1786957724.414873,0.00010587100978478731,3.4237825047058205e-08,0.0005999598520398663,"[9.99172153e-03 6.06577166e-12 0.00000000e+00 0.00000000e+00
 0.00000000e+00 1.50725325e-08 6.06577166e-12 9.99170688e-03
 0.00000000e+00 0.00000000e+00 0.00000000e+00 6.24278434e-12
 0.00000000e+00 0.00000000e+00 0.00000000e+00 0.00000000e+00
 0.00000000e+00 0.00000000e+00 0.00000000e+00 0.00000000e+00
 0.00000000e+00 0.00000000e+00 0.00000000e+00 0.00000000e+00
 0.00000000e+00 0.00000000e+00 0.00000000e+00 0.00000000e+00
 0.00000000e+00 0.00000000e+00 1.50725325e-08 6.24278434e-12
 0.00000000e+00 0.00000000e+00 0.00000000e+00 9.99201301e-03]","[[9.99172153e-06 6.06577166e-15 1.50725325e-11]
 [6.06577166e-15 9.99170688e-06 6.24278434e-15]
 [1.50725325e-11 6.24278434e-15 9.99201301e-06]]",[-1.05872068e-04 -3.42381671e-08 -5.99965847e-04],0.0,0.0
1786957724.4639223,0.00010586889414072119,3.423714086286551e-08,0.0006186810521096041,"[9.99152217e-03 6.25403104e-12 0.00000000e+00 0.00000000e+00
 0.00000000e+00 1.53894708e-08 6.25403104e-12 9.99150722e-03
 0.00000000e+00 0.00000000e+00 0.00000000e+00 6.43653756e-12
 0.00000000e+00 0.00000000e+00 0.00000000e+00 0.00000000e+00
 0.00000000e+00 0.00000000e+00 0.00000000e+00 0.00000000e+00
 0.00000000e+00 0.00000000e+00 0.00000000e+00 0.00000000e+00
 0.00000000e+00 0.00000000e+00 0.00000000e+00 0.00000000e+00
 0.00000000e+00 0.00000000e+00 1.53894708e-08 6.43653756e-12
 0.00000000e+00 0.00000000e+00 0.00000000e+00 9.99181979e-03]","[[9.99152217e-06 6.25403104e-15 1.53894708e-11]
 [6.25403104e-15 9.99150722e-06 6.43653756e-15]
 [1.53894708e-11 6.43653756e-15 9.99181979e-06]]",[-1.05869952e-04 -3.42374830e-08 -6.18687234e-04],0.0,0.0
1786957724.514161,0.00010586572083291666,3.4236114637577654e-08,0.0005956480061155567,"[9.99122314e-03 6.52882373e-12 0.00000000e+00 0.00000000e+00
 0.00000000e+00 1.58487798e-08 6.52882373e-12 9.99120774e-03
 0.00000000e+00 0.00000000e+00 0.00000000e+00 6.71934932e-12
 0.00000000e+00 0.00000000e+00 0.00000000e+00 0.00000000e+00
 0.00000000e+00 0.00000000e+00 0.00000000e+00 0.00000000e+00
 0.00000000e+00 0.00000000e+00 0.00000000e+00 0.00000000e+00
 0.00000000e+00 0.00000000e+00 0.00000000e+00 0.00000000e+00
 0.00000000e+00 0.00000000e+00 1.58487798e-08 6.71934932e-12
 0.00000000e+00 0.00000000e+00 0.00000000e+00 9.99152963e-03]","[[9.99122314e-06 6.52882373e-15 1.58487798e-11]
 [6.52882373e-15 9.99120774e-06 6.71934932e-15]
 [1.58487798e-11 6.71934932e-15 9.99152963e-06]]",[-1.05866779e-04 -3.42364567e-08 -5.95653958e-04],0.0,0.0
1786957724.5636091,0.00010586254771574893,3.42350884738197e-08,0.0005786357277535182,"[9.99092412e-03 6.78774668e-12 0.00000000e+00 0.00000000e+00
 0.00000000e+00 1.63041186e-08 6.78774668e-12 9.99090827e-03
 0.00000000e+00 0.00000000e+00 0.00000000e+00 6.98582823e-12
 0.00000000e+00 0.00000000e+00 0.00000000e+00 0.00000000e+00
 0.00000000e+00 0.00000000e+00 0.00000000e+00 0.00000000e+00
 0.00000000e+00 0.00000000e+00 0.00000000e+00 0.00000000e+00
 0.00000000e+00 0.00000000e+00 0.00000000e+00 0.00000000e+00
 0.00000000e+00 0.00000000e+00 1.63041186e-08 6.98582823e-12
 0.00000000e+00 0.00000000e+00 0.00000000e+00 9.99123942e-03]","[[9.99102379e-06 6.70570863e-15 1.61583794e-11]
 [6.70570863e-15 9.99100809e-06 6.90139613e-15]
 [1.61583794e-11 6.90139613e-15 9.99133628e-06]]",[-1.05864663e-04 -3.42357726e-08 -5.79005931e-04],0.0,0.0
1786957724.6161945,0.00010586043240967029,3.4234404398611604e-08,0.0005663831888287342,"[9.99072480e-03 6.96906681e-12 0.00000000e+00 0.00000000e+00
 0.00000000e+00 1.66265608e-08 6.96906681e-12 9.99070864e-03
 0.00000000e+00 0.00000000e+00 0.00000000e+00 7.17243969e-12
 0.00000000e+00 0.00000000e+00 0.00000000e+00 0.00000000e+00
 0.00000000e+00 0.00000000e+00 0.00000000e+00 0.00000000e+00
 0.00000000e+00 0.00000000e+00 0.00000000e+00 0.00000000e+00
 0.00000000e+00 0.00000000e+00 0.00000000e+00 0.00000000e+00
 0.00000000e+00 0.00000000e+00 1.66265608e-08 7.17243969e-12
 0.00000000e+00 0.00000000e+00 0.00000000e+00 9.99104633e-03]","[[9.99072480e-06 6.96906681e-15 1.66265608e-11]
 [6.96906681e-15 9.99070864e-06 7.17243969e-15]
 [1.66265608e-11 7.17243969e-15 9.99104633e-06]]",[-1.05861490e-04 -3.42347464e-08 -5.66388848e-04],0.0,0.0
1786957724.6639588,0.00010585831718829585,3.423372035075875e-08,0.0005544675832189762,"[9.99052546e-03 7.13285039e-12 0.00000000e+00 0.00000000e+00
 0.00000000e+00 1.69269650e-08 7.13285039e-12 9.99050902e-03
 0.00000000e+00 0.00000000e+00 0.00000000e+00 7.34100285e-12
 0.00000000e+00 0.00000000e+00 0.00000000e+00 0.00000000e+00
 0.00000000e+00 0.00000000e+00 0.00000000e+00 0.00000000e+00
 0.00000000e+00 0.00000000e+00 0.00000000e+00 0.00000000e+00
 0.00000000e+00 0.00000000e+00 0.00000000e+00 0.00000000e+00
 0.00000000e+00 0.00000000e+00 1.69269650e-08 7.34100285e-12
 0.00000000e+00 0.00000000e+00 0.00000000e+00 9.99085281e-03]","[[9.99052546e-06 7.13285039e-15 1.69269650e-11]
 [7.13285039e-15 9.99050902e-06 7.34100285e-15]
 [1.69269650e-11 7.34100285e-15 9.99085281e-06]]",[-1.05859375e-04 -3.42340624e-08 -5.54473123e-04],0.0,0.0
1786957724.713902,0.00010585514451353879,3.423269432962681e-08,0.0005807934401098614,"[9.99022649e-03 7.38204237e-12 0.00000000e+00 0.00000000e+00
 0.00000000e+00 1.73896997e-08 7.38204237e-12 9.99020959e-03
 0.00000000e+00 0.00000000e+00 0.00000000e+00 7.59746680e-12
 0.00000000e+00 0.00000000e+00 0.00000000e+00 0.00000000e+00
 0.00000000e+00 0.00000000e+00 0.00000000e+00 0.00000000e+00
 0.00000000e+00 0.00000000e+00 0.00000000e+00 0.00000000e+00
 0.00000000e+00 0.00000000e+00 0.00000000e+00 0.00000000e+00
 0.00000000e+00 0.00000000e+00 1.73896997e-08 7.59746680e-12
 0.00000000e+00 0.00000000e+00 0.00000000e+00 9.99056279e-03]","[[9.99022649e-06 7.38204237e-15 1.73896997e-11]
 [7.38204237e-15 9.99020959e-06 7.59746680e-15]
 [1.73896997e-11 7.59746680e-15 9.99056279e-06]]",[-1.05856202e-04 -3.42330363e-08 -5.80799243e-04],0.0,0.0
1786957724.7639515,0.00010585197202398405,3.423166836767497e-08,0.0006686759979506186,"[9.98992754e-03 7.66085782e-12 0.00000000e+00 0.00000000e+00
 0.00000000e+00 1.78596613e-08 7.66085782e-12 9.98991019e-03
 0.00000000e+00 0.00000000e+00 0.00000000e+00 7.88441871e-12
 0.00000000e+00 0.00000000e+00 0.00000000e+00 0.00000000e+00
 0.00000000e+00 0.00000000e+00 0.00000000e+00 0.00000000e+00
 0.00000000e+00 0.00000000e+00 0.00000000e+00 0.00000000e+00
 0.00000000e+00 0.00000000e+00 0.00000000e+00 0.00000000e+00
 0.00000000e+00 0.00000000e+00 1.78596613e-08 7.88441871e-12
 0.00000000e+00 0.00000000e+00 0.00000000e+00 9.99027293e-03]","[[9.99002719e-06 7.56382892e-15 1.77035560e-11]
 [7.56382892e-15 9.99000999e-06 7.78455829e-15]
 [1.77035560e-11 7.78455829e-15 9.99036956e-06]]",[-1.05854087e-04 -3.42323523e-08 -6.39253279e-04],0.0,0.0
1786957724.814142,0.00010584985713337741,3.423098442565644e-08,0.0007272821848203215,"[9.98972824e-03 7.86049794e-12 0.00000000e+00 0.00000000e+00
 0.00000000e+00 1.81600545e-08 7.86049794e-12 9.98971060e-03
 0.00000000e+00 0.00000000e+00 0.00000000e+00 8.08988480e-12
 0.00000000e+00 0.00000000e+00 0.00000000e+00 0.00000000e+00
 0.00000000e+00 0.00000000e+00 0.00000000e+00 0.00000000e+00
 0.00000000e+00 0.00000000e+00 0.00000000e+00 0.00000000e+00
 0.00000000e+00 0.00000000e+00 0.00000000e+00 0.00000000e+00
 0.00000000e+00 0.00000000e+00 1.81600545e-08 8.08988480e-12
 0.00000000e+00 0.00000000e+00 0.00000000e+00 9.99007944e-03]","[[9.98972824e-06 7.86049794e-15 1.81600545e-11]
 [7.86049794e-15 9.98971060e-06 8.08988480e-15]
 [1.81600545e-11 8.08988480e-15 9.99007944e-06]]",[-1.05850915e-04 -3.42313264e-08 -7.27289451e-04],0.0,0.0
1786957724.8642304,0.00010584774232504053,3.4230300509818066e-08,0.0007584485683103104,"[9.98952896e-03 8.08217677e-12 0.00000000e+00 0.00000000e+00
 0.00000000e+00 1.84675533e-08 8.08217677e-12 9.98951101e-03
 0.00000000e+00 0.00000000e+00 0.00000000e+00 8.31803274e-12
 0.00000000e+00 0.00000000e+00 0.00000000e+00 0.00000000e+00
 0.00000000e+00 0.00000000e+00 0.00000000e+00 0.00000000e+00
 0.00000000e+00 0.00000000e+00 0.00000000e+00 0.00000000e+00
 0.00000000e+00 0.00000000e+00 0.00000000e+00 0.00000000e+00
 0.00000000e+00 0.00000000e+00 1.84675533e-08 8.31803274e-12
 0.00000000e+00 0.00000000e+00 0.00000000e+00 9.98988610e-03]","[[9.98952896e-06 8.08217677e-15 1.84675533e-11]
 [8.08217677e-15 9.98951101e-06 8.31803274e-15]
 [1.84675533e-11 8.31803274e-15 9.98988610e-06]]",[-1.05848800e-04 -3.42306425e-08 -7.58456145e-04],0.0,0.0
1786957724.9146469,0.00010584457027000948,3.422927468654727e-08,0.000758491822858254,"[9.98923010e-03 8.46534112e-12 0.00000000e+00 0.00000000e+00
 0.00000000e+00 1.89876291e-08 8.46534112e-12 9.98921165e-03
 0.00000000e+00 0.00000000e+00 0.00000000e+00 8.71237873e-12
 0.00000000e+00 0.00000000e+00 0.00000000e+00 0.00000000e+00
 0.00000000e+00 0.00000000e+00 0.00000000e+00 0.00000000e+00
 0.00000000e+00 0.00000000e+00 0.00000000e+00 0.00000000e+00
 0.00000000e+00 0.00000000e+00 0.00000000e+00 0.00000000e+00
 0.00000000e+00 0.00000000e+00 1.89876291e-08 8.71237873e-12
 0.00000000e+00 0.00000000e+00 0.00000000e+00 9.98959730e-03]","[[9.98923010e-06 8.46534112e-15 1.89876291e-11]
 [8.46534112e-15 9.98921165e-06 8.71237873e-15]
 [1.89876291e-11 8.71237873e-15 9.98959730e-06]]",[-1.05845628e-04 -3.42296166e-08 -7.58499400e-04],0.0,0.0
1786957724.964187,0.00010584245567169639,3.422859083805582e-08,0.0007504689374049356,"[9.98903079e-03 8.65973939e-12 0.00000000e+00 0.00000000e+00
 0.00000000e+00 1.92509012e-08 8.65973939e-12 9.98901209e-03
 0.00000000e+00 0.00000000e+00 0.00000000e+00 8.91245001e-12
 0.00000000e+00 0.00000000e+00 0.00000000e+00 0.00000000e+00
 0.00000000e+00 0.00000000e+00 0.00000000e+00 0.00000000e+00
 0.00000000e+00 0.00000000e+00 0.00000000e+00 0.00000000e+00
 0.00000000e+00 0.00000000e+00 0.00000000e+00 0.00000000e+00
 0.00000000e+00 0.00000000e+00 1.92509012e-08 8.91245001e-12
 0.00000000e+00 0.00000000e+00 0.00000000e+00 9.98940308e-03]","[[9.98903079e-06 8.65973939e-15 1.92509012e-11]
 [8.65973939e-15 9.98901209e-06 8.91245001e-15]
 [1.92509012e-11 8.91245001e-15 9.98940308e-06]]",[-1.05843513e-04 -3.42289328e-08 -7.50476434e-04],0.0,0.0
1786957725.0163896,0.00010583928393352327,3.4227565116696627e-08,0.0007028623600526807,"[9.98873190e-03 8.98851857e-12 0.00000000e+00 0.00000000e+00
 0.00000000e+00 1.97076096e-08 8.98851857e-12 9.98871275e-03
 0.00000000e+00 0.00000000e+00 0.00000000e+00 9.25082374e-12
 0.00000000e+00 0.00000000e+00 0.00000000e+00 0.00000000e+00
 0.00000000e+00 0.00000000e+00 0.00000000e+00 0.00000000e+00
 0.00000000e+00 0.00000000e+00 0.00000000e+00 0.00000000e+00
 0.00000000e+00 0.00000000e+00 0.00000000e+00 0.00000000e+00
 0.00000000e+00 0.00000000e+00 1.97076096e-08 9.25082374e-12
 0.00000000e+00 0.00000000e+00 0.00000000e+00 9.98911302e-03]","[[9.98873190e-06 8.98851857e-15 1.97076096e-11]
 [8.98851857e-15 9.98871275e-06 9.25082374e-15]
 [1.97076096e-11 9.25082374e-15 9.98911302e-06]]",[-1.05840341e-04 -3.42279070e-08 -7.02869381e-04],0.0,0.0
1786957725.0637524,0.00010583716954891894,3.4226881337352435e-08,0.0006473656690126894,"[9.98853266e-03 9.19682063e-12 0.00000000e+00 0.00000000e+00
 0.00000000e+00 2.00176317e-08 9.19682063e-12 9.98851321e-03
 0.00000000e+00 0.00000000e+00 0.00000000e+00 9.46520453e-12
 0.00000000e+00 0.00000000e+00 0.00000000e+00 0.00000000e+00
 0.00000000e+00 0.00000000e+00 0.00000000e+00 0.00000000e+00
 0.00000000e+00 0.00000000e+00 0.00000000e+00 0.00000000e+00
 0.00000000e+00 0.00000000e+00 0.00000000e+00 0.00000000e+00
 0.00000000e+00 0.00000000e+00 2.00176317e-08 9.46520453e-12
 0.00000000e+00 0.00000000e+00 0.00000000e+00 9.98891978e-03]","[[9.98853266e-06 9.19682063e-15 2.00176317e-11]
 [9.19682063e-15 9.98851321e-06 9.46520453e-15]
 [2.00176317e-11 9.46520453e-15 9.98891978e-06]]",[-1.05838227e-04 -3.42272232e-08 -6.47372136e-04],0.0,0.0
1786957725.1171367,0.00010583399813064846,3.422585571952719e-08,0.0006501455521634726,"[9.98823381e-03 9.48670450e-12 0.00000000e+00 0.00000000e+00
 0.00000000e+00 2.04829176e-08 9.48670450e-12 9.98821391e-03
 0.00000000e+00 0.00000000e+00 0.00000000e+00 9.76354787e-12
 0.00000000e+00 0.00000000e+00 0.00000000e+00 0.00000000e+00
 0.00000000e+00 0.00000000e+00 0.00000000e+00 0.00000000e+00
 0.00000000e+00 0.00000000e+00 0.00000000e+00 0.00000000e+00
 0.00000000e+00 0.00000000e+00 0.00000000e+00 0.00000000e+00
 0.00000000e+00 0.00000000e+00 2.04829176e-08 9.76354787e-12
 0.00000000e+00 0.00000000e+00 0.00000000e+00 9.98862992e-03]","[[9.98823381e-06 9.48670450e-15 2.04829176e-11]
 [9.48670450e-15 9.98821391e-06 9.76354787e-15]
 [2.04829176e-11 9.76354787e-15 9.98862992e-06]]",[-1.05835055e-04 -3.42261976e-08 -6.50152046e-04],0.0,0.0
1786957725.1642046,0.00010583188395547893,3.4225172007447046e-08,0.0006818726813961896,"[9.98803457e-03 9.67747397e-12 0.00000000e+00 0.00000000e+00
 0.00000000e+00 2.07811573e-08 9.67747397e-12 9.98801438e-03
 0.00000000e+00 0.00000000e+00 0.00000000e+00 9.95988444e-12
 0.00000000e+00 0.00000000e+00 0.00000000e+00 0.00000000e+00
 0.00000000e+00 0.00000000e+00 0.00000000e+00 0.00000000e+00
 0.00000000e+00 0.00000000e+00 0.00000000e+00 0.00000000e+00
 0.00000000e+00 0.00000000e+00 0.00000000e+00 0.00000000e+00
 0.00000000e+00 0.00000000e+00 2.07811573e-08 9.95988444e-12
 0.00000000e+00 0.00000000e+00 0.00000000e+00 9.98843646e-03]","[[9.98803457e-06 9.67747397e-15 2.07811573e-11]
 [9.67747397e-15 9.98801438e-06 9.95988444e-15]
 [2.07811573e-11 9.95988444e-15 9.98843646e-06]]",[-1.05832941e-04 -3.42255139e-08 -6.81879492e-04],0.0,0.0
1786957725.214001,0.0001058287128470424,3.422414648839718e-08,0.0007554123233428632,"[9.98773576e-03 9.99489601e-12 0.00000000e+00 0.00000000e+00
 0.00000000e+00 2.12491180e-08 9.99489601e-12 9.98771511e-03
 0.00000000e+00 0.00000000e+00 0.00000000e+00 1.02865696e-11
 0.00000000e+00 0.00000000e+00 0.00000000e+00 0.00000000e+00
 0.00000000e+00 0.00000000e+00 0.00000000e+00 0.00000000e+00
 0.00000000e+00 0.00000000e+00 0.00000000e+00 0.00000000e+00
 0.00000000e+00 0.00000000e+00 0.00000000e+00 0.00000000e+00
 0.00000000e+00 0.00000000e+00 2.12491180e-08 1.02865696e-11
 0.00000000e+00 0.00000000e+00 0.00000000e+00 9.98814669e-03]","[[9.98773576e-06 9.99489601e-15 2.12491180e-11]
 [9.99489601e-15 9.98771511e-06 1.02865696e-14]
 [2.12491180e-11 1.02865696e-14 9.98814669e-06]]",[-1.05829770e-04 -3.42244883e-08 -7.55419869e-04],0.0,0.0
1786957725.2641597,0.0001058255419225365,3.4223121027524094e-08,0.000804195200449609,"[9.98743695e-03 1.03465910e-11 0.00000000e+00 0.00000000e+00
 0.00000000e+00 2.17102812e-08 1.03465910e-11 9.98741586e-03
 0.00000000e+00 0.00000000e+00 0.00000000e+00 1.06485279e-11
 0.00000000e+00 0.00000000e+00 0.00000000e+00 0.00000000e+00
 0.00000000e+00 0.00000000e+00 0.00000000e+00 0.00000000e+00
 0.00000000e+00 0.00000000e+00 0.00000000e+00 0.00000000e+00
 0.00000000e+00 0.00000000e+00 0.00000000e+00 0.00000000e+00
 0.00000000e+00 0.00000000e+00 2.17102812e-08 1.06485279e-11
 0.00000000e+00 0.00000000e+00 0.00000000e+00 9.98785680e-03]","[[9.98743695e-06 1.03465910e-14 2.17102812e-11]
 [1.03465910e-14 9.98741586e-06 1.06485279e-14]
 [2.17102812e-11 1.06485279e-14 9.98785680e-06]]",[-1.05826599e-04 -3.42234628e-08 -8.04203233e-04],0.0,0.0
1786957725.3141248,0.0001058234280772179,3.4222437420265506e-08,0.0008156005456498863,"[9.98723776e-03 1.05908210e-11 0.00000000e+00 0.00000000e+00
 0.00000000e+00 2.20217477e-08 1.05908210e-11 9.98721636e-03
 0.00000000e+00 0.00000000e+00 0.00000000e+00 1.08998850e-11
 0.00000000e+00 0.00000000e+00 0.00000000e+00 0.00000000e+00
 0.00000000e+00 0.00000000e+00 0.00000000e+00 0.00000000e+00
 0.00000000e+00 0.00000000e+00 0.00000000e+00 0.00000000e+00
 0.00000000e+00 0.00000000e+00 0.00000000e+00 0.00000000e+00
 0.00000000e+00 0.00000000e+00 2.20217477e-08 1.08998850e-11
 0.00000000e+00 0.00000000e+00 0.00000000e+00 9.98766363e-03]","[[9.98723776e-06 1.05908210e-14 2.20217477e-11]
 [1.05908210e-14 9.98721636e-06 1.08998850e-14]
 [2.20217477e-11 1.08998850e-14 9.98766363e-06]]",[-1.05824485e-04 -3.42227792e-08 -8.15608692e-04],0.0,0.0
1786957725.3640466,0.00010582025746591774,3.42214120594126e-08,0.000817840054292418,"[9.98693899e-03 1.09595786e-11 0.00000000e+00 0.00000000e+00
 0.00000000e+00 2.24841854e-08 1.09595786e-11 9.98691714e-03
 0.00000000e+00 0.00000000e+00 0.00000000e+00 1.12794039e-11
 0.00000000e+00 0.00000000e+00 0.00000000e+00 0.00000000e+00
 0.00000000e+00 0.00000000e+00 0.00000000e+00 0.00000000e+00
 0.00000000e+00 0.00000000e+00 0.00000000e+00 0.00000000e+00
 0.00000000e+00 0.00000000e+00 0.00000000e+00 0.00000000e+00
 0.00000000e+00 0.00000000e+00 2.24841854e-08 1.12794039e-11
 0.00000000e+00 0.00000000e+00 0.00000000e+00 9.98737380e-03]","[[9.98693899e-06 1.09595786e-14 2.24841854e-11]
 [1.09595786e-14 9.98691714e-06 1.12794039e-14]
 [2.24841854e-11 1.12794039e-14 9.98737380e-06]]",[-1.05821314e-04 -3.42217538e-08 -8.17848222e-04],0.0,0.0
1786957725.41387,0.00010581814383030763,3.422072851926244e-08,0.0008059987251205493,"[9.98673983e-03 1.12222737e-11 0.00000000e+00 0.00000000e+00
 0.00000000e+00 2.28149425e-08 1.12222737e-11 9.98671767e-03
 0.00000000e+00 0.00000000e+00 0.00000000e+00 1.15497651e-11
 0.00000000e+00 0.00000000e+00 0.00000000e+00 0.00000000e+00
 0.00000000e+00 0.00000000e+00 0.00000000e+00 0.00000000e+00
 0.00000000e+00 0.00000000e+00 0.00000000e+00 0.00000000e+00
 0.00000000e+00 0.00000000e+00 0.00000000e+00 0.00000000e+00
 0.00000000e+00 0.00000000e+00 2.28149425e-08 1.15497651e-11
 0.00000000e+00 0.00000000e+00 0.00000000e+00 9.98718105e-03]","[[9.98673983e-06 1.12222737e-14 2.28149425e-11]
 [1.12222737e-14 9.98671767e-06 1.15497651e-14]
 [2.28149425e-11 1.15497651e-14 9.98718105e-06]]",[-1.05819201e-04 -3.42210703e-08 -8.06006775e-04],0.0,0.0
1786957725.4646704,0.00010581603027994685,3.42200450066714e-08,0.0007642820509148329,"[9.98654068e-03 1.14733115e-11 0.00000000e+00 0.00000000e+00
 0.00000000e+00 2.31371551e-08 1.14733115e-11 9.98651820e-03
 0.00000000e+00 0.00000000e+00 0.00000000e+00 1.18081288e-11
 0.00000000e+00 0.00000000e+00 0.00000000e+00 0.00000000e+00
 0.00000000e+00 0.00000000e+00 0.00000000e+00 0.00000000e+00
 0.00000000e+00 0.00000000e+00 0.00000000e+00 0.00000000e+00
 0.00000000e+00 0.00000000e+00 0.00000000e+00 0.00000000e+00
 0.00000000e+00 0.00000000e+00 2.31371551e-08 1.18081288e-11
 0.00000000e+00 0.00000000e+00 0.00000000e+00 9.98698813e-03]","[[9.98654068e-06 1.14733115e-14 2.31371551e-11]
 [1.14733115e-14 9.98651820e-06 1.18081288e-14]
 [2.31371551e-11 1.18081288e-14 9.98698813e-06]]",[-1.05817087e-04 -3.42203868e-08 -7.64289684e-04],0.0,0.0
1786957725.515945,0.0001058128601182133,3.4219019791559906e-08,0.0006221536093233836,"[9.98624193e-03 1.17931244e-11 0.00000000e+00 0.00000000e+00
 0.00000000e+00 2.35852660e-08 1.17931244e-11 9.98621902e-03
 0.00000000e+00 0.00000000e+00 0.00000000e+00 1.21372746e-11
 0.00000000e+00 0.00000000e+00 0.00000000e+00 0.00000000e+00
 0.00000000e+00 0.00000000e+00 0.00000000e+00 0.00000000e+00
 0.00000000e+00 0.00000000e+00 0.00000000e+00 0.00000000e+00
 0.00000000e+00 0.00000000e+00 0.00000000e+00 0.00000000e+00
 0.00000000e+00 0.00000000e+00 2.35852660e-08 1.21372746e-11
 0.00000000e+00 0.00000000e+00 0.00000000e+00 9.98669804e-03]","[[9.98624193e-06 1.17931244e-14 2.35852660e-11]
 [1.17931244e-14 9.98621902e-06 1.21372746e-14]
 [2.35852660e-11 1.21372746e-14 9.98669804e-06]]",[-1.05813917e-04 -3.42193615e-08 -6.22159823e-04],0.0,0.0
1786957725.5642405,0.00010581074678930934,3.421833635233091e-08,0.0005241880072546223,"[9.98604280e-03 1.19742558e-11 0.00000000e+00 0.00000000e+00
 0.00000000e+00 2.39069437e-08 1.19742558e-11 9.98601957e-03
 0.00000000e+00 0.00000000e+00 0.00000000e+00 1.23236918e-11
 0.00000000e+00 0.00000000e+00 0.00000000e+00 0.00000000e+00
 0.00000000e+00 0.00000000e+00 0.00000000e+00 0.00000000e+00
 0.00000000e+00 0.00000000e+00 0.00000000e+00 0.00000000e+00
 0.00000000e+00 0.00000000e+00 0.00000000e+00 0.00000000e+00
 0.00000000e+00 0.00000000e+00 2.39069437e-08 1.23236918e-11
 0.00000000e+00 0.00000000e+00 0.00000000e+00 9.98650513e-03]","[[9.98604280e-06 1.19742558e-14 2.39069437e-11]
 [1.19742558e-14 9.98601957e-06 1.23236918e-14]
 [2.39069437e-11 1.23236918e-14 9.98650513e-06]]",[-1.05811803e-04 -3.42186781e-08 -5.24193242e-04],0.0,0.0
1786957725.6148853,0.00010580757695554863,3.421731124534959e-08,0.0005196157119873313,"[9.98574410e-03 1.22024723e-11 0.00000000e+00 0.00000000e+00
 0.00000000e+00 2.43696011e-08 1.22024723e-11 9.98572042e-03
 0.00000000e+00 0.00000000e+00 0.00000000e+00 1.25585682e-11
 0.00000000e+00 0.00000000e+00 0.00000000e+00 0.00000000e+00
 0.00000000e+00 0.00000000e+00 0.00000000e+00 0.00000000e+00
 0.00000000e+00 0.00000000e+00 0.00000000e+00 0.00000000e+00
 0.00000000e+00 0.00000000e+00 0.00000000e+00 0.00000000e+00
 0.00000000e+00 0.00000000e+00 2.43696011e-08 1.25585682e-11
 0.00000000e+00 0.00000000e+00 0.00000000e+00 9.98621538e-03]","[[9.98574410e-06 1.22024723e-14 2.43696011e-11]
 [1.22024723e-14 9.98572042e-06 1.25585682e-14]
 [2.43696011e-11 1.25585682e-14 9.98621538e-06]]",[-1.05808634e-04 -3.42176529e-08 -5.19620901e-04],0.0,0.0
1786957725.6651046,0.00010580440730558213,3.421628619662359e-08,0.0006063729340102241,"[9.98544540e-03 1.24392490e-11 0.00000000e+00 0.00000000e+00
 0.00000000e+00 2.48153499e-08 1.24392490e-11 9.98542128e-03
 0.00000000e+00 0.00000000e+00 0.00000000e+00 1.28022545e-11
 0.00000000e+00 0.00000000e+00 0.00000000e+00 0.00000000e+00
 0.00000000e+00 0.00000000e+00 0.00000000e+00 0.00000000e+00
 0.00000000e+00 0.00000000e+00 0.00000000e+00 0.00000000e+00
 0.00000000e+00 0.00000000e+00 0.00000000e+00 0.00000000e+00
 0.00000000e+00 0.00000000e+00 2.48153499e-08 1.28022545e-11
 0.00000000e+00 0.00000000e+00 0.00000000e+00 9.98592530e-03]","[[9.98554498e-06 1.23648502e-14 2.46828435e-11]
 [1.23648502e-14 9.98552099e-06 1.27256846e-14]
 [2.46828435e-11 1.27256846e-14 9.98602231e-06]]",[-1.05806520e-04 -3.42169696e-08 -5.77632983e-04],0.0,0.0
1786957725.7140179,0.00010580229430723815,3.421560286288524e-08,0.0006489338375068598,"[9.98524628e-03 1.26267127e-11 0.00000000e+00 0.00000000e+00
 0.00000000e+00 2.51254650e-08 1.26267127e-11 9.98522187e-03
 0.00000000e+00 0.00000000e+00 0.00000000e+00 1.29951888e-11
 0.00000000e+00 0.00000000e+00 0.00000000e+00 0.00000000e+00
 0.00000000e+00 0.00000000e+00 0.00000000e+00 0.00000000e+00
 0.00000000e+00 0.00000000e+00 0.00000000e+00 0.00000000e+00
 0.00000000e+00 0.00000000e+00 0.00000000e+00 0.00000000e+00
 0.00000000e+00 0.00000000e+00 2.51254650e-08 1.29951888e-11
 0.00000000e+00 0.00000000e+00 0.00000000e+00 9.98573218e-03]","[[9.98524628e-06 1.26267127e-14 2.51254650e-11]
 [1.26267127e-14 9.98522187e-06 1.29951888e-14]
 [2.51254650e-11 1.29951888e-14 9.98573218e-06]]",[-1.05803351e-04 -3.42159445e-08 -6.48940318e-04],0.0,0.0
1786957725.7635894,0.00010580018139177576,3.421491955559163e-08,0.0006666546155882359,"[9.98504721e-03 1.28427087e-11 0.00000000e+00 0.00000000e+00
 0.00000000e+00 2.54646281e-08 1.28427087e-11 9.98502247e-03
 0.00000000e+00 0.00000000e+00 0.00000000e+00 1.32174881e-11
 0.00000000e+00 0.00000000e+00 0.00000000e+00 0.00000000e+00
 0.00000000e+00 0.00000000e+00 0.00000000e+00 0.00000000e+00
 0.00000000e+00 0.00000000e+00 0.00000000e+00 0.00000000e+00
 0.00000000e+00 0.00000000e+00 0.00000000e+00 0.00000000e+00
 0.00000000e+00 0.00000000e+00 2.54646281e-08 1.32174881e-11
 0.00000000e+00 0.00000000e+00 0.00000000e+00 9.98553966e-03]","[[9.98504721e-06 1.28427087e-14 2.54646281e-11]
 [1.28427087e-14 9.98502247e-06 1.32174881e-14]
 [2.54646281e-11 1.32174881e-14 9.98553966e-06]]",[-1.05801238e-04 -3.42152612e-08 -6.66661273e-04],0.0,0.0
1786957725.8163078,0.00010579701217500383,3.4213894644751756e-08,0.0006766811832941144,"[9.98474855e-03 1.31315895e-11 0.00000000e+00 0.00000000e+00
 0.00000000e+00 2.59064638e-08 1.31315895e-11 9.98472337e-03
 0.00000000e+00 0.00000000e+00 0.00000000e+00 1.35147990e-11
 0.00000000e+00 0.00000000e+00 0.00000000e+00 0.00000000e+00
 0.00000000e+00 0.00000000e+00 0.00000000e+00 0.00000000e+00
 0.00000000e+00 0.00000000e+00 0.00000000e+00 0.00000000e+00
 0.00000000e+00 0.00000000e+00 0.00000000e+00 0.00000000e+00
 0.00000000e+00 0.00000000e+00 2.59064638e-08 1.35147990e-11
 0.00000000e+00 0.00000000e+00 0.00000000e+00 9.98524954e-03]","[[9.98474855e-06 1.31315895e-14 2.59064638e-11]
 [1.31315895e-14 9.98472337e-06 1.35147990e-14]
 [2.59064638e-11 1.35147990e-14 9.98524954e-06]]",[-1.05798069e-04 -3.42142363e-08 -6.76687940e-04],0.0,0.0
1786957725.8639574,0.00010579384314817612,3.421286979519348e-08,0.0006468124635792272,"[9.98444991e-03 1.34298577e-11 0.00000000e+00 0.00000000e+00
 0.00000000e+00 2.63633441e-08 1.34298577e-11 9.98442430e-03
 0.00000000e+00 0.00000000e+00 0.00000000e+00 1.38217714e-11
 0.00000000e+00 0.00000000e+00 0.00000000e+00 0.00000000e+00
 0.00000000e+00 0.00000000e+00 0.00000000e+00 0.00000000e+00
 0.00000000e+00 0.00000000e+00 0.00000000e+00 0.00000000e+00
 0.00000000e+00 0.00000000e+00 0.00000000e+00 0.00000000e+00
 0.00000000e+00 0.00000000e+00 2.63633441e-08 1.38217714e-11
 0.00000000e+00 0.00000000e+00 0.00000000e+00 9.98495975e-03]","[[9.98454948e-06 1.33452004e-14 2.62314614e-11]
 [1.33452004e-14 9.98452399e-06 1.37346436e-14]
 [2.62314614e-11 1.37346436e-14 9.98505676e-06]]",[-1.05795956e-04 -3.42135530e-08 -6.60110535e-04],0.0,0.0
1786957725.914278,0.00010579173057256371,3.4212186598012694e-08,0.0005366775263935253,"[9.98425085e-03 1.36302048e-11 0.00000000e+00 0.00000000e+00
 0.00000000e+00 2.66856668e-08 1.36302048e-11 9.98422492e-03
 0.00000000e+00 0.00000000e+00 0.00000000e+00 1.40279651e-11
 0.00000000e+00 0.00000000e+00 0.00000000e+00 0.00000000e+00
 0.00000000e+00 0.00000000e+00 0.00000000e+00 0.00000000e+00
 0.00000000e+00 0.00000000e+00 0.00000000e+00 0.00000000e+00
 0.00000000e+00 0.00000000e+00 0.00000000e+00 0.00000000e+00
 0.00000000e+00 0.00000000e+00 2.66856668e-08 1.40279651e-11
 0.00000000e+00 0.00000000e+00 0.00000000e+00 9.98476692e-03]","[[9.98425085e-06 1.36302048e-14 2.66856668e-11]
 [1.36302048e-14 9.98422492e-06 1.40279651e-14]
 [2.66856668e-11 1.40279651e-14 9.98476692e-06]]",[-1.05792787e-04 -3.42125282e-08 -5.36682885e-04],0.0,0.0
1786957725.9641721,0.00010578961809062014,3.421150343299605e-08,0.0003579131442852379,"[9.98405177e-03 1.37693194e-11 0.00000000e+00 0.00000000e+00
 0.00000000e+00 2.69775443e-08 1.37693194e-11 9.98402556e-03
 0.00000000e+00 0.00000000e+00 0.00000000e+00 1.41711393e-11
 0.00000000e+00 0.00000000e+00 0.00000000e+00 0.00000000e+00
 0.00000000e+00 0.00000000e+00 0.00000000e+00 0.00000000e+00
 0.00000000e+00 0.00000000e+00 0.00000000e+00 0.00000000e+00
 0.00000000e+00 0.00000000e+00 0.00000000e+00 0.00000000e+00
 0.00000000e+00 0.00000000e+00 2.69775443e-08 1.41711393e-11
 0.00000000e+00 0.00000000e+00 0.00000000e+00 9.98457348e-03]","[[9.98405177e-06 1.37693194e-14 2.69775443e-11]
 [1.37693194e-14 9.98402556e-06 1.41711393e-14]
 [2.69775443e-11 1.41711393e-14 9.98457348e-06]]",[-1.05790674e-04 -3.42118450e-08 -3.57916718e-04],0.0,0.0
1786957726.014076,0.00010578644952932737,3.4210478738516215e-08,0.0003570475468945844,"[9.98375319e-03 1.39282226e-11 0.00000000e+00 0.00000000e+00
 0.00000000e+00 2.74390747e-08 1.39282226e-11 9.98372653e-03
 0.00000000e+00 0.00000000e+00 0.00000000e+00 1.43346797e-11
 0.00000000e+00 0.00000000e+00 0.00000000e+00 0.00000000e+00
 0.00000000e+00 0.00000000e+00 0.00000000e+00 0.00000000e+00
 0.00000000e+00 0.00000000e+00 0.00000000e+00 0.00000000e+00
 0.00000000e+00 0.00000000e+00 0.00000000e+00 0.00000000e+00
 0.00000000e+00 0.00000000e+00 2.74390747e-08 1.43346797e-11
 0.00000000e+00 0.00000000e+00 0.00000000e+00 9.98428383e-03]","[[9.98375319e-06 1.39282226e-14 2.74390747e-11]
 [1.39282226e-14 9.98372653e-06 1.43346797e-14]
 [2.74390747e-11 1.43346797e-14 9.98428383e-06]]",[-1.05787506e-04 -3.42108203e-08 -3.57051112e-04],0.0,0.0
1786957726.0641685,0.00010578328115585085,3.4209454104490346e-08,0.00037845669305891505,"[9.98345462e-03 1.40908142e-11 0.00000000e+00 0.00000000e+00
 0.00000000e+00 2.79010877e-08 1.40908142e-11 9.98342751e-03
 0.00000000e+00 0.00000000e+00 0.00000000e+00 1.45020160e-11
 0.00000000e+00 0.00000000e+00 0.00000000e+00 0.00000000e+00
 0.00000000e+00 0.00000000e+00 0.00000000e+00 0.00000000e+00
 0.00000000e+00 0.00000000e+00 0.00000000e+00 0.00000000e+00
 0.00000000e+00 0.00000000e+00 0.00000000e+00 0.00000000e+00
 0.00000000e+00 0.00000000e+00 2.79010877e-08 1.45020160e-11
 0.00000000e+00 0.00000000e+00 0.00000000e+00 9.98399419e-03]","[[9.98345462e-06 1.40908142e-14 2.79010877e-11]
 [1.40908142e-14 9.98342751e-06 1.45020160e-14]
 [2.79010877e-11 1.45020160e-14 9.98399419e-06]]",[-1.05784337e-04 -3.42097956e-08 -3.78460472e-04],0.0,0.0
1786957726.1143215,0.00010578116901035845,3.420877104827988e-08,0.00041083607369296626,"[9.98325559e-03 1.42059796e-11 0.00000000e+00 0.00000000e+00
 0.00000000e+00 2.82112995e-08 1.42059796e-11 9.98322818e-03
 0.00000000e+00 0.00000000e+00 0.00000000e+00 1.46205422e-11
 0.00000000e+00 0.00000000e+00 0.00000000e+00 0.00000000e+00
 0.00000000e+00 0.00000000e+00 0.00000000e+00 0.00000000e+00
 0.00000000e+00 0.00000000e+00 0.00000000e+00 0.00000000e+00
 0.00000000e+00 0.00000000e+00 0.00000000e+00 0.00000000e+00
 0.00000000e+00 0.00000000e+00 2.82112995e-08 1.46205422e-11
 0.00000000e+00 0.00000000e+00 0.00000000e+00 9.98380116e-03]","[[9.98325559e-06 1.42059796e-14 2.82112995e-11]
 [1.42059796e-14 9.98322818e-06 1.46205422e-14]
 [2.82112995e-11 1.46205422e-14 9.98380116e-06]]",[-1.05782225e-04 -3.42091126e-08 -4.10840175e-04],0.0,0.0
1786957726.1645036,0.00010577905694701552,3.4208088018244626e-08,0.0004270649014692651,"[9.98305656e-03 1.43323529e-11 0.00000000e+00 0.00000000e+00
 0.00000000e+00 2.85197701e-08 1.43323529e-11 9.98302885e-03
 0.00000000e+00 0.00000000e+00 0.00000000e+00 1.47506033e-11
 0.00000000e+00 0.00000000e+00 0.00000000e+00 0.00000000e+00
 0.00000000e+00 0.00000000e+00 0.00000000e+00 0.00000000e+00
 0.00000000e+00 0.00000000e+00 0.00000000e+00 0.00000000e+00
 0.00000000e+00 0.00000000e+00 0.00000000e+00 0.00000000e+00
 0.00000000e+00 0.00000000e+00 2.85197701e-08 1.47506033e-11
 0.00000000e+00 0.00000000e+00 0.00000000e+00 9.98360810e-03]","[[9.98305656e-06 1.43323529e-14 2.85197701e-11]
 [1.43323529e-14 9.98302885e-06 1.47506033e-14]
 [2.85197701e-11 1.47506033e-14 9.98360810e-06]]",[-1.05780113e-04 -3.42084295e-08 -4.27069165e-04],0.0,0.0
1786957726.213926,0.00010577588901132279,3.4207063525002416e-08,0.0004089357880205924,"[9.98275806e-03 1.45283034e-11 0.00000000e+00 0.00000000e+00
 0.00000000e+00 2.90043494e-08 1.45283034e-11 9.98272988e-03
 0.00000000e+00 0.00000000e+00 0.00000000e+00 1.49522720e-11
 0.00000000e+00 0.00000000e+00 0.00000000e+00 0.00000000e+00
 0.00000000e+00 0.00000000e+00 0.00000000e+00 0.00000000e+00
 0.00000000e+00 0.00000000e+00 0.00000000e+00 0.00000000e+00
 0.00000000e+00 0.00000000e+00 0.00000000e+00 0.00000000e+00
 0.00000000e+00 0.00000000e+00 2.90043494e-08 1.49522720e-11
 0.00000000e+00 0.00000000e+00 0.00000000e+00 9.98331897e-03]","[[9.98275806e-06 1.45283034e-14 2.90043494e-11]
 [1.45283034e-14 9.98272988e-06 1.49522720e-14]
 [2.90043494e-11 1.49522720e-14 9.98331897e-06]]",[-1.05776945e-04 -3.42074050e-08 -4.08939871e-04],0.0,0.0
1786957726.2655652,0.00010577377715894766,3.4206380563298725e-08,0.0004204932176614662,"[9.98255903e-03 1.46413946e-11 0.00000000e+00 0.00000000e+00
 0.00000000e+00 2.92886156e-08 1.46413946e-11 9.98253057e-03
 0.00000000e+00 0.00000000e+00 0.00000000e+00 1.50686635e-11
 0.00000000e+00 0.00000000e+00 0.00000000e+00 0.00000000e+00
 0.00000000e+00 0.00000000e+00 0.00000000e+00 0.00000000e+00
 0.00000000e+00 0.00000000e+00 0.00000000e+00 0.00000000e+00
 0.00000000e+00 0.00000000e+00 0.00000000e+00 0.00000000e+00
 0.00000000e+00 0.00000000e+00 2.92886156e-08 1.50686635e-11
 0.00000000e+00 0.00000000e+00 0.00000000e+00 9.98312544e-03]","[[9.98255903e-06 1.46413946e-14 2.92886156e-11]
 [1.46413946e-14 9.98253057e-06 1.50686635e-14]
 [2.92886156e-11 1.50686635e-14 9.98312544e-06]]",[-1.05774833e-04 -3.42067220e-08 -4.20497416e-04],0.0,0.0
1786957726.3149214,0.00010577060953695243,3.420535617113686e-08,0.0004087155970657897,"[9.98226054e-03 1.48375759e-11 0.00000000e+00 0.00000000e+00
 0.00000000e+00 2.97579220e-08 1.48375759e-11 9.98223163e-03
 0.00000000e+00 0.00000000e+00 0.00000000e+00 1.52705698e-11
 0.00000000e+00 0.00000000e+00 0.00000000e+00 0.00000000e+00
 0.00000000e+00 0.00000000e+00 0.00000000e+00 0.00000000e+00
 0.00000000e+00 0.00000000e+00 0.00000000e+00 0.00000000e+00
 0.00000000e+00 0.00000000e+00 0.00000000e+00 0.00000000e+00
 0.00000000e+00 0.00000000e+00 2.97579220e-08 1.52705698e-11
 0.00000000e+00 0.00000000e+00 0.00000000e+00 9.98283602e-03]","[[9.98226054e-06 1.48375759e-14 2.97579220e-11]
 [1.48375759e-14 9.98223163e-06 1.52705698e-14]
 [2.97579220e-11 1.52705698e-14 9.98283602e-06]]",[-1.05771665e-04 -3.42056976e-08 -4.08719677e-04],0.0,0.0
1786957726.3637083,0.0001057684978966188,3.420467327831499e-08,0.0003828630017563839,"[9.98206155e-03 1.49538287e-11 0.00000000e+00 0.00000000e+00
 0.00000000e+00 3.00620367e-08 1.49538287e-11 9.98203234e-03
 0.00000000e+00 0.00000000e+00 0.00000000e+00 1.53902150e-11
 0.00000000e+00 0.00000000e+00 0.00000000e+00 0.00000000e+00
 0.00000000e+00 0.00000000e+00 0.00000000e+00 0.00000000e+00
 0.00000000e+00 0.00000000e+00 0.00000000e+00 0.00000000e+00
 0.00000000e+00 0.00000000e+00 0.00000000e+00 0.00000000e+00
 0.00000000e+00 0.00000000e+00 3.00620367e-08 1.53902150e-11
 0.00000000e+00 0.00000000e+00 0.00000000e+00 9.98264291e-03]","[[9.98206155e-06 1.49538287e-14 3.00620367e-11]
 [1.49538287e-14 9.98203234e-06 1.53902150e-14]
 [3.00620367e-11 1.53902150e-14 9.98264291e-06]]",[-1.05769554e-04 -3.42050147e-08 -3.82866824e-04],0.0,0.0
1786957726.41412,0.00010576533059383429,3.420364899009231e-08,0.00036364351033846276,"[9.98176309e-03 1.51277410e-11 0.00000000e+00 0.00000000e+00
 0.00000000e+00 3.05272153e-08 1.51277410e-11 9.98173343e-03
 0.00000000e+00 0.00000000e+00 0.00000000e+00 1.55692025e-11
 0.00000000e+00 0.00000000e+00 0.00000000e+00 0.00000000e+00
 0.00000000e+00 0.00000000e+00 0.00000000e+00 0.00000000e+00
 0.00000000e+00 0.00000000e+00 0.00000000e+00 0.00000000e+00
 0.00000000e+00 0.00000000e+00 0.00000000e+00 0.00000000e+00
 0.00000000e+00 0.00000000e+00 3.05272153e-08 1.55692025e-11
 0.00000000e+00 0.00000000e+00 0.00000000e+00 9.98235345e-03]","[[9.98176309e-06 1.51277410e-14 3.05272153e-11]
 [1.51277410e-14 9.98173343e-06 1.55692025e-14]
 [3.05272153e-11 1.55692025e-14 9.98235345e-06]]",[-1.05766386e-04 -3.42039904e-08 -3.63647140e-04],0.0,0.0
1786957726.4648402,0.0001057632191662338,3.42029661665365e-08,0.0003410331583220127,"[9.98156418e-03 1.52501880e-11 0.00000000e+00 0.00000000e+00
 0.00000000e+00 3.08916140e-08 1.52501880e-11 9.98153416e-03
 0.00000000e+00 0.00000000e+00 0.00000000e+00 1.56952227e-11
 0.00000000e+00 0.00000000e+00 0.00000000e+00 0.00000000e+00
 0.00000000e+00 0.00000000e+00 0.00000000e+00 0.00000000e+00
 0.00000000e+00 0.00000000e+00 0.00000000e+00 0.00000000e+00
 0.00000000e+00 0.00000000e+00 0.00000000e+00 0.00000000e+00
 0.00000000e+00 0.00000000e+00 3.08916140e-08 1.56952227e-11
 0.00000000e+00 0.00000000e+00 0.00000000e+00 9.98216158e-03]","[[9.98156418e-06 1.52501880e-14 3.08916140e-11]
 [1.52501880e-14 9.98153416e-06 1.56952227e-14]
 [3.08916140e-11 1.56952227e-14 9.98216158e-06]]",[-1.05764275e-04 -3.42033076e-08 -3.41036563e-04],0.0,0.0
1786957726.514143,0.00010576005217912371,3.420194198048951e-08,0.00041501845568747697,"[9.98126569e-03 1.53888110e-11 0.00000000e+00 0.00000000e+00
 0.00000000e+00 3.13025297e-08 1.53888110e-11 9.98123528e-03
 0.00000000e+00 0.00000000e+00 0.00000000e+00 1.58378909e-11
 0.00000000e+00 0.00000000e+00 0.00000000e+00 0.00000000e+00
 0.00000000e+00 0.00000000e+00 0.00000000e+00 0.00000000e+00
 0.00000000e+00 0.00000000e+00 0.00000000e+00 0.00000000e+00
 0.00000000e+00 0.00000000e+00 0.00000000e+00 0.00000000e+00
 0.00000000e+00 0.00000000e+00 3.13025297e-08 1.58378909e-11
 0.00000000e+00 0.00000000e+00 0.00000000e+00 9.98187105e-03]","[[9.98126569e-06 1.53888110e-14 3.13025297e-11]
 [1.53888110e-14 9.98123528e-06 1.58378909e-14]
 [3.13025297e-11 1.58378909e-14 9.98187105e-06]]",[-1.05761108e-04 -3.42022834e-08 -4.15022598e-04],0.0,0.0
1786957726.56375,0.00010575794095220481,3.420125922008902e-08,0.0004958657279021672,"[9.98106674e-03 1.55216104e-11 0.00000000e+00 0.00000000e+00
 0.00000000e+00 3.16096064e-08 1.55216104e-11 9.98103603e-03
 0.00000000e+00 0.00000000e+00 0.00000000e+00 1.59745657e-11
 0.00000000e+00 0.00000000e+00 0.00000000e+00 0.00000000e+00
 0.00000000e+00 0.00000000e+00 0.00000000e+00 0.00000000e+00
 0.00000000e+00 0.00000000e+00 0.00000000e+00 0.00000000e+00
 0.00000000e+00 0.00000000e+00 0.00000000e+00 0.00000000e+00
 0.00000000e+00 0.00000000e+00 3.16096064e-08 1.59745657e-11
 0.00000000e+00 0.00000000e+00 0.00000000e+00 9.98167804e-03]","[[9.98106674e-06 1.55216104e-14 3.16096064e-11]
 [1.55216104e-14 9.98103603e-06 1.59745657e-14]
 [3.16096064e-11 1.59745657e-14 9.98167804e-06]]",[-1.05758997e-04 -3.42016006e-08 -4.95870678e-04],0.0,0.0
1786957726.6143184,0.00010575477426501982,3.420023512815066e-08,0.0005367823523299008,"[9.98076835e-03 1.57571821e-11 0.00000000e+00 0.00000000e+00
 0.00000000e+00 3.20796819e-08 1.57571821e-11 9.98073718e-03
 0.00000000e+00 0.00000000e+00 0.00000000e+00 1.62170120e-11
 0.00000000e+00 0.00000000e+00 0.00000000e+00 0.00000000e+00
 0.00000000e+00 0.00000000e+00 0.00000000e+00 0.00000000e+00
 0.00000000e+00 0.00000000e+00 0.00000000e+00 0.00000000e+00
 0.00000000e+00 0.00000000e+00 0.00000000e+00 0.00000000e+00
 0.00000000e+00 0.00000000e+00 3.20796819e-08 1.62170120e-11
 0.00000000e+00 0.00000000e+00 0.00000000e+00 9.98138873e-03]","[[9.98076835e-06 1.57571821e-14 3.20796819e-11]
 [1.57571821e-14 9.98073718e-06 1.62170120e-14]
 [3.20796819e-11 1.62170120e-14 9.98138873e-06]]",[-1.05755830e-04 -3.42005765e-08 -5.36787710e-04],0.0,0.0
1786957726.6638968,0.00010575160776491292,3.419921109622083e-08,0.000554993955691252,"[9.98046995e-03 1.59960121e-11 0.00000000e+00 0.00000000e+00
 0.00000000e+00 3.25341220e-08 1.59960121e-11 9.98043834e-03
 0.00000000e+00 0.00000000e+00 0.00000000e+00 1.64628115e-11
 0.00000000e+00 0.00000000e+00 0.00000000e+00 0.00000000e+00
 0.00000000e+00 0.00000000e+00 0.00000000e+00 0.00000000e+00
 0.00000000e+00 0.00000000e+00 0.00000000e+00 0.00000000e+00
 0.00000000e+00 0.00000000e+00 0.00000000e+00 0.00000000e+00
 0.00000000e+00 0.00000000e+00 3.25341220e-08 1.64628115e-11
 0.00000000e+00 0.00000000e+00 0.00000000e+00 9.98109912e-03]","[[9.98046995e-06 1.59960121e-14 3.25341220e-11]
 [1.59960121e-14 9.98043834e-06 1.64628115e-14]
 [3.25341220e-11 1.64628115e-14 9.98109912e-06]]",[-1.05752663e-04 -3.41995524e-08 -5.54999495e-04],0.0,0.0
1786957726.7140849,0.00010574949686857765,3.419852844149811e-08,0.0005637885347078432,"[9.98027105e-03 1.61709657e-11 0.00000000e+00 0.00000000e+00
 0.00000000e+00 3.28559362e-08 1.61709657e-11 9.98023913e-03
 0.00000000e+00 0.00000000e+00 0.00000000e+00 1.66428707e-11
 0.00000000e+00 0.00000000e+00 0.00000000e+00 0.00000000e+00
 0.00000000e+00 0.00000000e+00 0.00000000e+00 0.00000000e+00
 0.00000000e+00 0.00000000e+00 0.00000000e+00 0.00000000e+00
 0.00000000e+00 0.00000000e+00 0.00000000e+00 0.00000000e+00
 0.00000000e+00 0.00000000e+00 3.28559362e-08 1.66428707e-11
 0.00000000e+00 0.00000000e+00 0.00000000e+00 9.98090644e-03]","[[9.98027105e-06 1.61709657e-14 3.28559362e-11]
 [1.61709657e-14 9.98023913e-06 1.66428707e-14]
 [3.28559362e-11 1.66428707e-14 9.98090644e-06]]",[-1.05750552e-04 -3.41988698e-08 -5.63794162e-04],0.0,0.0
1786957726.7641463,0.00010574738605631273,3.419784581390417e-08,0.0005563868714690835,"[9.98007214e-03 1.63354137e-11 0.00000000e+00 0.00000000e+00
 0.00000000e+00 3.31558469e-08 1.63354137e-11 9.98003992e-03
 0.00000000e+00 0.00000000e+00 0.00000000e+00 1.68121176e-11
 0.00000000e+00 0.00000000e+00 0.00000000e+00 0.00000000e+00
 0.00000000e+00 0.00000000e+00 0.00000000e+00 0.00000000e+00
 0.00000000e+00 0.00000000e+00 0.00000000e+00 0.00000000e+00
 0.00000000e+00 0.00000000e+00 0.00000000e+00 0.00000000e+00
 0.00000000e+00 0.00000000e+00 3.31558469e-08 1.68121176e-11
 0.00000000e+00 0.00000000e+00 0.00000000e+00 9.98071333e-03]","[[9.98007214e-06 1.63354137e-14 3.31558469e-11]
 [1.63354137e-14 9.98003992e-06 1.68121176e-14]
 [3.31558469e-11 1.68121176e-14 9.98071333e-06]]",[-1.05748441e-04 -3.41981871e-08 -5.56392425e-04],0.0,0.0
1786957726.815698,0.00010574421999921016,3.419682192524807e-08,0.0004702510296978878,"[9.97977378e-03 1.65742625e-11 0.00000000e+00 0.00000000e+00
 0.00000000e+00 3.36035367e-08 1.65742625e-11 9.97974113e-03
 0.00000000e+00 0.00000000e+00 0.00000000e+00 1.70579364e-11
 0.00000000e+00 0.00000000e+00 0.00000000e+00 0.00000000e+00
 0.00000000e+00 0.00000000e+00 0.00000000e+00 0.00000000e+00
 0.00000000e+00 0.00000000e+00 0.00000000e+00 0.00000000e+00
 0.00000000e+00 0.00000000e+00 0.00000000e+00 0.00000000e+00
 0.00000000e+00 0.00000000e+00 3.36035367e-08 1.70579364e-11
 0.00000000e+00 0.00000000e+00 0.00000000e+00 9.98042363e-03]","[[9.97977378e-06 1.65742625e-14 3.36035367e-11]
 [1.65742625e-14 9.97974113e-06 1.70579364e-14]
 [3.36035367e-11 1.70579364e-14 9.98042363e-06]]",[-1.05745275e-04 -3.41971632e-08 -4.70255723e-04],0.0,0.0
1786957726.868959,0.00010574210941080265,3.419613937246434e-08,0.0003072566306996372,"[9.97957490e-03 1.67076337e-11 0.00000000e+00 0.00000000e+00
 0.00000000e+00 3.39186071e-08 1.67076337e-11 9.97954194e-03
 0.00000000e+00 0.00000000e+00 0.00000000e+00 1.71951997e-11
 0.00000000e+00 0.00000000e+00 0.00000000e+00 0.00000000e+00
 0.00000000e+00 0.00000000e+00 0.00000000e+00 0.00000000e+00
 0.00000000e+00 0.00000000e+00 0.00000000e+00 0.00000000e+00
 0.00000000e+00 0.00000000e+00 0.00000000e+00 0.00000000e+00
 0.00000000e+00 0.00000000e+00 3.39186071e-08 1.71951997e-11
 0.00000000e+00 0.00000000e+00 0.00000000e+00 9.98023084e-03]","[[9.97957490e-06 1.67076337e-14 3.39186071e-11]
 [1.67076337e-14 9.97954194e-06 1.71951997e-14]
 [3.39186071e-11 1.71951997e-14 9.98023084e-06]]",[-1.05743165e-04 -3.41964806e-08 -3.07259697e-04],0.0,0.0
1786957726.9142773,0.00010573894370983197,3.419511560643859e-08,2.5700326109490138e-05,"[9.97927661e-03 1.68190736e-11 0.00000000e+00 0.00000000e+00
 0.00000000e+00 3.44145446e-08 1.68190736e-11 9.97924317e-03
 0.00000000e+00 0.00000000e+00 0.00000000e+00 1.73098916e-11
 0.00000000e+00 0.00000000e+00 0.00000000e+00 0.00000000e+00
 0.00000000e+00 0.00000000e+00 0.00000000e+00 0.00000000e+00
 0.00000000e+00 0.00000000e+00 0.00000000e+00 0.00000000e+00
 0.00000000e+00 0.00000000e+00 0.00000000e+00 0.00000000e+00
 0.00000000e+00 0.00000000e+00 3.44145446e-08 1.73098916e-11
 0.00000000e+00 0.00000000e+00 0.00000000e+00 9.97994215e-03]","[[9.97927661e-06 1.68190736e-14 3.44145446e-11]
 [1.68190736e-14 9.97924317e-06 1.73098916e-14]
 [3.44145446e-11 1.73098916e-14 9.97994215e-06]]",[-1.05739999e-04 -3.41954569e-08 -2.57005826e-05],0.0,0.0
1786957726.9645622,0.00010573577821927906,3.419409191225155e-08,-0.00010388094851432329,"[9.97897831e-03 1.67978721e-11 0.00000000e+00 0.00000000e+00
 0.00000000e+00 3.48686738e-08 1.67978721e-11 9.97894443e-03
 0.00000000e+00 0.00000000e+00 0.00000000e+00 1.72880714e-11
 0.00000000e+00 0.00000000e+00 0.00000000e+00 0.00000000e+00
 0.00000000e+00 0.00000000e+00 0.00000000e+00 0.00000000e+00
 0.00000000e+00 0.00000000e+00 0.00000000e+00 0.00000000e+00
 0.00000000e+00 0.00000000e+00 0.00000000e+00 0.00000000e+00
 0.00000000e+00 0.00000000e+00 3.48686738e-08 1.72880714e-11
 0.00000000e+00 0.00000000e+00 0.00000000e+00 9.97965263e-03]","[[9.97897831e-06 1.67978721e-14 3.48686738e-11]
 [1.67978721e-14 9.97894443e-06 1.72880714e-14]
 [3.48686738e-11 1.72880714e-14 9.97965263e-06]]",[-1.05736833e-04 -3.41944331e-08  1.03881985e-04],0.0,0.0
1786957727.0137167,0.00010573366800238793,3.419340948590118e-08,-0.00019743220994250524,"[9.97877945e-03 1.67635567e-11 0.00000000e+00 0.00000000e+00
 0.00000000e+00 3.51783238e-08 1.67635567e-11 9.97874527e-03
 0.00000000e+00 0.00000000e+00 0.00000000e+00 1.72527546e-11
 0.00000000e+00 0.00000000e+00 0.00000000e+00 0.00000000e+00
 0.00000000e+00 0.00000000e+00 0.00000000e+00 0.00000000e+00
 0.00000000e+00 0.00000000e+00 0.00000000e+00 0.00000000e+00
 0.00000000e+00 0.00000000e+00 0.00000000e+00 0.00000000e+00
 0.00000000e+00 0.00000000e+00 3.51783238e-08 1.72527546e-11
 0.00000000e+00 0.00000000e+00 0.00000000e+00 9.97945976e-03]","[[9.97877945e-06 1.67635567e-14 3.51783238e-11]
 [1.67635567e-14 9.97874527e-06 1.72527546e-14]
 [3.51783238e-11 1.72527546e-14 9.97945976e-06]]",[-1.05734723e-04 -3.41937507e-08  1.97434180e-04],0.0,0.0
1786957727.06411,0.0001057305028428926,3.4192385901248396e-08,-0.00018887627736585705,"[9.97848120e-03 1.66531864e-11 0.00000000e+00 0.00000000e+00
 0.00000000e+00 3.56521128e-08 1.66531864e-11 9.97844656e-03
 0.00000000e+00 0.00000000e+00 0.00000000e+00 1.71391634e-11
 0.00000000e+00 0.00000000e+00 0.00000000e+00 0.00000000e+00
 0.00000000e+00 0.00000000e+00 0.00000000e+00 0.00000000e+00
 0.00000000e+00 0.00000000e+00 0.00000000e+00 0.00000000e+00
 0.00000000e+00 0.00000000e+00 0.00000000e+00 0.00000000e+00
 0.00000000e+00 0.00000000e+00 3.56521128e-08 1.71391634e-11
 0.00000000e+00 0.00000000e+00 0.00000000e+00 9.97917067e-03]","[[9.97848120e-06 1.66531864e-14 3.56521128e-11]
 [1.66531864e-14 9.97844656e-06 1.71391634e-14]
 [3.56521128e-11 1.71391634e-14 9.97917067e-06]]",[-1.05731558e-04 -3.41927271e-08  1.88878162e-04],0.0,0.0
1786957727.115139,0.00010572839283280138,3.4191703541147923e-08,-6.22431161594328e-05,"[9.97828235e-03 1.66043598e-11 0.00000000e+00 0.00000000e+00
 0.00000000e+00 3.59466491e-08 1.66043598e-11 9.97824742e-03
 0.00000000e+00 0.00000000e+00 0.00000000e+00 1.70889119e-11
 0.00000000e+00 0.00000000e+00 0.00000000e+00 0.00000000e+00
 0.00000000e+00 0.00000000e+00 0.00000000e+00 0.00000000e+00
 0.00000000e+00 0.00000000e+00 0.00000000e+00 0.00000000e+00
 0.00000000e+00 0.00000000e+00 0.00000000e+00 0.00000000e+00
 0.00000000e+00 0.00000000e+00 3.59466491e-08 1.70889119e-11
 0.00000000e+00 0.00000000e+00 0.00000000e+00 9.97897751e-03]","[[9.97828235e-06 1.66043598e-14 3.59466491e-11]
 [1.66043598e-14 9.97824742e-06 1.70889119e-14]
 [3.59466491e-11 1.70889119e-14 9.97897751e-06]]",[-1.05729448e-04 -3.41920447e-08  6.22437373e-05],0.0,0.0
1786957727.1645443,0.00010572628289516626,3.419102120272698e-08,9.264789336249636e-05,"[9.97808351e-03 1.65977809e-11 0.00000000e+00 0.00000000e+00
 0.00000000e+00 3.62465706e-08 1.65977809e-11 9.97804829e-03
 0.00000000e+00 0.00000000e+00 0.00000000e+00 1.70821410e-11
 0.00000000e+00 0.00000000e+00 0.00000000e+00 0.00000000e+00
 0.00000000e+00 0.00000000e+00 0.00000000e+00 0.00000000e+00
 0.00000000e+00 0.00000000e+00 0.00000000e+00 0.00000000e+00
 0.00000000e+00 0.00000000e+00 0.00000000e+00 0.00000000e+00
 0.00000000e+00 0.00000000e+00 3.62465706e-08 1.70821410e-11
 0.00000000e+00 0.00000000e+00 0.00000000e+00 9.97878448e-03]","[[9.97808351e-06 1.65977809e-14 3.62465706e-11]
 [1.65977809e-14 9.97804829e-06 1.70821410e-14]
 [3.62465706e-11 1.70821410e-14 9.97878448e-06]]",[-1.05727338e-04 -3.41913624e-08 -9.26488179e-05],0.0,0.0
1786957727.2140522,0.00010572311812899666,3.418999773797439e-08,0.0002482159803736117,"[9.97778530e-03 1.66723627e-11 0.00000000e+00 0.00000000e+00
 0.00000000e+00 3.67178256e-08 1.66723627e-11 9.97774962e-03
 0.00000000e+00 0.00000000e+00 0.00000000e+00 1.71588992e-11
 0.00000000e+00 0.00000000e+00 0.00000000e+00 0.00000000e+00
 0.00000000e+00 0.00000000e+00 0.00000000e+00 0.00000000e+00
 0.00000000e+00 0.00000000e+00 0.00000000e+00 0.00000000e+00
 0.00000000e+00 0.00000000e+00 0.00000000e+00 0.00000000e+00
 0.00000000e+00 0.00000000e+00 3.67178256e-08 1.71588992e-11
 0.00000000e+00 0.00000000e+00 0.00000000e+00 9.97849537e-03]","[[9.97778530e-06 1.66723627e-14 3.67178256e-11]
 [1.66723627e-14 9.97774962e-06 1.71588992e-14]
 [3.67178256e-11 1.71588992e-14 9.97849537e-06]]",[-1.05724173e-04 -3.41903389e-08 -2.48218457e-04],0.0,0.0
1786957727.2638319,0.00010572100838920437,3.418931546179593e-08,0.000192779416443134,"[9.97758648e-03 1.67471396e-11 0.00000000e+00 0.00000000e+00
 0.00000000e+00 3.70222493e-08 1.67471396e-11 9.97755051e-03
 0.00000000e+00 0.00000000e+00 0.00000000e+00 1.72358583e-11
 0.00000000e+00 0.00000000e+00 0.00000000e+00 0.00000000e+00
 0.00000000e+00 0.00000000e+00 0.00000000e+00 0.00000000e+00
 0.00000000e+00 0.00000000e+00 0.00000000e+00 0.00000000e+00
 0.00000000e+00 0.00000000e+00 0.00000000e+00 0.00000000e+00
 0.00000000e+00 0.00000000e+00 3.70222493e-08 1.72358583e-11
 0.00000000e+00 0.00000000e+00 0.00000000e+00 9.97830245e-03]","[[9.97758648e-06 1.67471396e-14 3.70222493e-11]
 [1.67471396e-14 9.97755051e-06 1.72358583e-14]
 [3.70222493e-11 1.72358583e-14 9.97830245e-06]]",[-1.05722063e-04 -3.41896566e-08 -1.92781340e-04],0.0,0.0
1786957727.3140392,0.00010571784395404217,3.4188292106403004e-08,4.3499555496318017e-05,"[9.97728829e-03 1.68041644e-11 0.00000000e+00 0.00000000e+00
 0.00000000e+00 3.74828873e-08 1.68041644e-11 9.97725187e-03
 0.00000000e+00 0.00000000e+00 0.00000000e+00 1.72945471e-11
 0.00000000e+00 0.00000000e+00 0.00000000e+00 0.00000000e+00
 0.00000000e+00 0.00000000e+00 0.00000000e+00 0.00000000e+00
 0.00000000e+00 0.00000000e+00 0.00000000e+00 0.00000000e+00
 0.00000000e+00 0.00000000e+00 0.00000000e+00 0.00000000e+00
 0.00000000e+00 0.00000000e+00 3.74828873e-08 1.72945471e-11
 0.00000000e+00 0.00000000e+00 0.00000000e+00 9.97801316e-03]","[[9.97728829e-06 1.68041644e-14 3.74828873e-11]
 [1.68041644e-14 9.97725187e-06 1.72945471e-14]
 [3.74828873e-11 1.72945471e-14 9.97801316e-06]]",[-1.05718899e-04 -3.41886332e-08 -4.34999895e-05],0.0,0.0
1786957727.368895,0.00010571573444117552,3.4187609906011037e-08,-2.8601195842803406e-05,"[9.97708950e-03 1.68148534e-11 0.00000000e+00 0.00000000e+00
 0.00000000e+00 3.77888230e-08 1.68148534e-11 9.97705278e-03
 0.00000000e+00 0.00000000e+00 0.00000000e+00 1.73055480e-11
 0.00000000e+00 0.00000000e+00 0.00000000e+00 0.00000000e+00
 0.00000000e+00 0.00000000e+00 0.00000000e+00 0.00000000e+00
 0.00000000e+00 0.00000000e+00 0.00000000e+00 0.00000000e+00
 0.00000000e+00 0.00000000e+00 0.00000000e+00 0.00000000e+00
 0.00000000e+00 0.00000000e+00 3.77888230e-08 1.73055480e-11
 0.00000000e+00 0.00000000e+00 0.00000000e+00 9.97782029e-03]","[[9.97708950e-06 1.68148534e-14 3.77888230e-11]
 [1.68148534e-14 9.97705278e-06 1.73055480e-14]
 [3.77888230e-11 1.73055480e-14 9.97782029e-06]]",[-1.05716789e-04 -3.41879510e-08  2.86014812e-05],0.0,0.0
1786957727.4161317,0.00010571257034853147,3.418658666505079e-08,-0.00024275804645768065,"[9.97679134e-03 1.67713553e-11 0.00000000e+00 0.00000000e+00
 0.00000000e+00 3.82596256e-08 1.67713553e-11 9.97675416e-03
 0.00000000e+00 0.00000000e+00 0.00000000e+00 1.72607805e-11
 0.00000000e+00 0.00000000e+00 0.00000000e+00 0.00000000e+00
 0.00000000e+00 0.00000000e+00 0.00000000e+00 0.00000000e+00
 0.00000000e+00 0.00000000e+00 0.00000000e+00 0.00000000e+00
 0.00000000e+00 0.00000000e+00 0.00000000e+00 0.00000000e+00
 0.00000000e+00 0.00000000e+00 3.82596256e-08 1.72607805e-11
 0.00000000e+00 0.00000000e+00 0.00000000e+00 9.97753123e-03]","[[9.97679134e-06 1.67713553e-14 3.82596256e-11]
 [1.67713553e-14 9.97675416e-06 1.72607805e-14]
 [3.82596256e-11 1.72607805e-14 9.97753123e-06]]",[-1.05713625e-04 -3.41869277e-08  2.42760469e-04],0.0,0.0
1786957727.464127,0.00010571046107206692,3.418590454440273e-08,-0.00034276226571972046,"[9.97659258e-03 1.66835645e-11 0.00000000e+00 0.00000000e+00
 0.00000000e+00 3.85740160e-08 1.66835645e-11 9.97655510e-03
 0.00000000e+00 0.00000000e+00 0.00000000e+00 1.71704278e-11
 0.00000000e+00 0.00000000e+00 0.00000000e+00 0.00000000e+00
 0.00000000e+00 0.00000000e+00 0.00000000e+00 0.00000000e+00
 0.00000000e+00 0.00000000e+00 0.00000000e+00 0.00000000e+00
 0.00000000e+00 0.00000000e+00 0.00000000e+00 0.00000000e+00
 0.00000000e+00 0.00000000e+00 3.85740160e-08 1.71704278e-11
 0.00000000e+00 0.00000000e+00 0.00000000e+00 9.97733855e-03]","[[9.97659258e-06 1.66835645e-14 3.85740160e-11]
 [1.66835645e-14 9.97655510e-06 1.71704278e-14]
 [3.85740160e-11 1.71704278e-14 9.97733855e-06]]",[-1.05711516e-04 -3.41862456e-08  3.42765686e-04],0.0,0.0
1786957727.5183582,0.00010570729731511152,3.4184881414237807e-08,-0.00028894409277846483,"[9.97629442e-03 1.65282660e-11 0.00000000e+00 0.00000000e+00
 0.00000000e+00 3.90215076e-08 1.65282660e-11 9.97625651e-03
 0.00000000e+00 0.00000000e+00 0.00000000e+00 1.70105973e-11
 0.00000000e+00 0.00000000e+00 0.00000000e+00 0.00000000e+00
 0.00000000e+00 0.00000000e+00 0.00000000e+00 0.00000000e+00
 0.00000000e+00 0.00000000e+00 0.00000000e+00 0.00000000e+00
 0.00000000e+00 0.00000000e+00 0.00000000e+00 0.00000000e+00
 0.00000000e+00 0.00000000e+00 3.90215076e-08 1.70105973e-11
 0.00000000e+00 0.00000000e+00 0.00000000e+00 9.97704905e-03]","[[9.97629442e-06 1.65282660e-14 3.90215076e-11]
 [1.65282660e-14 9.97625651e-06 1.70105973e-14]
 [3.90215076e-11 1.70105973e-14 9.97704905e-06]]",[-1.05708352e-04 -3.41852225e-08  2.88946976e-04],0.0,0.0
1786957727.5638156,0.00010570413372281471,3.4183858334452724e-08,-3.670553478540839e-05,"[9.97599631e-03 1.64298063e-11 0.00000000e+00 0.00000000e+00
 0.00000000e+00 3.94877241e-08 1.64298063e-11 9.97595794e-03
 0.00000000e+00 0.00000000e+00 0.00000000e+00 1.69092643e-11
 0.00000000e+00 0.00000000e+00 0.00000000e+00 0.00000000e+00
 0.00000000e+00 0.00000000e+00 0.00000000e+00 0.00000000e+00
 0.00000000e+00 0.00000000e+00 0.00000000e+00 0.00000000e+00
 0.00000000e+00 0.00000000e+00 0.00000000e+00 0.00000000e+00
 0.00000000e+00 0.00000000e+00 3.94877241e-08 1.69092643e-11
 0.00000000e+00 0.00000000e+00 0.00000000e+00 9.97675995e-03]","[[9.97609571e-06 1.64440877e-14 3.93653641e-11]
 [1.64440877e-14 9.97605746e-06 1.69239624e-14]
 [3.93653641e-11 1.69239624e-14 9.97685699e-06]]",[-1.05706243e-04 -3.41845404e-08  1.16614931e-04],0.0,0.0
1786957727.614446,0.00010570202475183701,3.4183176309030586e-08,7.043814118201651e-05,"[9.97579757e-03 1.64312568e-11 0.00000000e+00 0.00000000e+00
 0.00000000e+00 3.97904022e-08 1.64312568e-11 9.97575891e-03
 0.00000000e+00 0.00000000e+00 0.00000000e+00 1.69107571e-11
 0.00000000e+00 0.00000000e+00 0.00000000e+00 0.00000000e+00
 0.00000000e+00 0.00000000e+00 0.00000000e+00 0.00000000e+00
 0.00000000e+00 0.00000000e+00 0.00000000e+00 0.00000000e+00
 0.00000000e+00 0.00000000e+00 0.00000000e+00 0.00000000e+00
 0.00000000e+00 0.00000000e+00 3.97904022e-08 1.69107571e-11
 0.00000000e+00 0.00000000e+00 0.00000000e+00 9.97656707e-03]","[[9.97579757e-06 1.64312568e-14 3.97904022e-11]
 [1.64312568e-14 9.97575891e-06 1.69107571e-14]
 [3.97904022e-11 1.69107571e-14 9.97656707e-06]]",[-1.05703079e-04 -3.41835173e-08 -7.04388439e-05],0.0,0.0
1786957727.6634388,0.0001056988614510772,3.418215332110977e-08,6.738960408236849e-05,"[9.97549947e-03 1.64652477e-11 0.00000000e+00 0.00000000e+00
 0.00000000e+00 4.02455702e-08 1.64652477e-11 9.97546037e-03
 0.00000000e+00 0.00000000e+00 0.00000000e+00 1.69457399e-11
 0.00000000e+00 0.00000000e+00 0.00000000e+00 0.00000000e+00
 0.00000000e+00 0.00000000e+00 0.00000000e+00 0.00000000e+00
 0.00000000e+00 0.00000000e+00 0.00000000e+00 0.00000000e+00
 0.00000000e+00 0.00000000e+00 0.00000000e+00 0.00000000e+00
 0.00000000e+00 0.00000000e+00 4.02455702e-08 1.69457399e-11
 0.00000000e+00 0.00000000e+00 0.00000000e+00 9.97627777e-03]","[[9.97549947e-06 1.64652477e-14 4.02455702e-11]
 [1.64652477e-14 9.97546037e-06 1.69457399e-14]
 [4.02455702e-11 1.69457399e-14 9.97627777e-06]]",[-1.05699916e-04 -3.41824943e-08 -6.73902764e-05],0.0,0.0
1786957727.715176,0.00010569675269073178,3.4181471363917463e-08,5.4268400177193143e-05,"[9.97530077e-03 1.64840124e-11 0.00000000e+00 0.00000000e+00
 0.00000000e+00 4.05650205e-08 1.64840124e-11 9.97526135e-03
 0.00000000e+00 0.00000000e+00 0.00000000e+00 1.69650522e-11
 0.00000000e+00 0.00000000e+00 0.00000000e+00 0.00000000e+00
 0.00000000e+00 0.00000000e+00 0.00000000e+00 0.00000000e+00
 0.00000000e+00 0.00000000e+00 0.00000000e+00 0.00000000e+00
 0.00000000e+00 0.00000000e+00 0.00000000e+00 0.00000000e+00
 0.00000000e+00 0.00000000e+00 4.05650205e-08 1.69650522e-11
 0.00000000e+00 0.00000000e+00 0.00000000e+00 9.97608525e-03]","[[9.97530077e-06 1.64840124e-14 4.05650205e-11]
 [1.64840124e-14 9.97526135e-06 1.69650522e-14]
 [4.05650205e-11 1.69650522e-14 9.97608525e-06]]",[-1.05697807e-04 -3.41818123e-08 -5.42689416e-05],0.0,0.0
1786957727.7637184,0.00010569464401821753,3.418078943550484e-08,-3.347550251175946e-05,"[9.97510205e-03 1.64990373e-11 0.00000000e+00 0.00000000e+00
 0.00000000e+00 4.08673989e-08 1.64990373e-11 9.97506234e-03
 0.00000000e+00 0.00000000e+00 0.00000000e+00 1.69805155e-11
 0.00000000e+00 0.00000000e+00 0.00000000e+00 0.00000000e+00
 0.00000000e+00 0.00000000e+00 0.00000000e+00 0.00000000e+00
 0.00000000e+00 0.00000000e+00 0.00000000e+00 0.00000000e+00
 0.00000000e+00 0.00000000e+00 0.00000000e+00 0.00000000e+00
 0.00000000e+00 0.00000000e+00 4.08673989e-08 1.69805155e-11
 0.00000000e+00 0.00000000e+00 0.00000000e+00 9.97589238e-03]","[[9.97510205e-06 1.64990373e-14 4.08673989e-11]
 [1.64990373e-14 9.97506234e-06 1.69805155e-14]
 [4.08673989e-11 1.69805155e-14 9.97589238e-06]]",[-1.05695698e-04 -3.41811304e-08  3.34758365e-05],0.0,0.0
1786957727.8140557,0.00010569148119223245,3.417976660425568e-08,-0.00024567057584246044,"[9.97480407e-03 1.64299038e-11 0.00000000e+00 0.00000000e+00
 0.00000000e+00 4.13945257e-08 1.64299038e-11 9.97476385e-03
 0.00000000e+00 0.00000000e+00 0.00000000e+00 1.69093644e-11
 0.00000000e+00 0.00000000e+00 0.00000000e+00 0.00000000e+00
 0.00000000e+00 0.00000000e+00 0.00000000e+00 0.00000000e+00
 0.00000000e+00 0.00000000e+00 0.00000000e+00 0.00000000e+00
 0.00000000e+00 0.00000000e+00 0.00000000e+00 0.00000000e+00
 0.00000000e+00 0.00000000e+00 4.13945257e-08 1.69093644e-11
 0.00000000e+00 0.00000000e+00 0.00000000e+00 9.97560459e-03]","[[9.97480407e-06 1.64299038e-14 4.13945257e-11]
 [1.64299038e-14 9.97476385e-06 1.69093644e-14]
 [4.13945257e-11 1.69093644e-14 9.97560459e-06]]",[-1.05692535e-04 -3.41801075e-08  2.45673027e-04],0.0,0.0
1786957727.864883,0.00010568937275285172,3.4179084753208535e-08,-0.0002658592289574991,"[9.97460534e-03 1.63601601e-11 0.00000000e+00 0.00000000e+00
 0.00000000e+00 4.16661149e-08 1.63601601e-11 9.97456486e-03
 0.00000000e+00 0.00000000e+00 0.00000000e+00 1.68375854e-11
 0.00000000e+00 0.00000000e+00 0.00000000e+00 0.00000000e+00
 0.00000000e+00 0.00000000e+00 0.00000000e+00 0.00000000e+00
 0.00000000e+00 0.00000000e+00 0.00000000e+00 0.00000000e+00
 0.00000000e+00 0.00000000e+00 0.00000000e+00 0.00000000e+00
 0.00000000e+00 0.00000000e+00 4.16661149e-08 1.68375854e-11
 0.00000000e+00 0.00000000e+00 0.00000000e+00 9.97541112e-03]","[[9.97460534e-06 1.63601601e-14 4.16661149e-11]
 [1.63601601e-14 9.97456486e-06 1.68375854e-14]
 [4.16661149e-11 1.68375854e-14 9.97541112e-06]]",[-1.05690427e-04 -3.41794257e-08  2.65861881e-04],0.0,0.0
1786957727.9196155,0.00010568621025153282,3.4178062027526536e-08,-0.00027426905432959,"[9.97430731e-03 1.62452094e-11 0.00000000e+00 0.00000000e+00
 0.00000000e+00 4.21091539e-08 1.62452094e-11 9.97426639e-03
 0.00000000e+00 0.00000000e+00 0.00000000e+00 1.67192802e-11
 0.00000000e+00 0.00000000e+00 0.00000000e+00 0.00000000e+00
 0.00000000e+00 0.00000000e+00 0.00000000e+00 0.00000000e+00
 0.00000000e+00 0.00000000e+00 0.00000000e+00 0.00000000e+00
 0.00000000e+00 0.00000000e+00 0.00000000e+00 0.00000000e+00
 0.00000000e+00 0.00000000e+00 4.21091539e-08 1.67192802e-11
 0.00000000e+00 0.00000000e+00 0.00000000e+00 9.97512165e-03]","[[9.97430731e-06 1.62452094e-14 4.21091539e-11]
 [1.62452094e-14 9.97426639e-06 1.67192802e-14]
 [4.21091539e-11 1.67192802e-14 9.97512165e-06]]",[-1.05687264e-04 -3.41784029e-08  2.74271790e-04],0.0,0.0
1786957727.9637542,0.00010568304793372883,3.417703936066488e-08,-0.0001498427986255102,"[9.97400931e-03 1.61264658e-11 0.00000000e+00 0.00000000e+00
 0.00000000e+00 4.25692430e-08 1.61264658e-11 9.97396794e-03
 0.00000000e+00 0.00000000e+00 0.00000000e+00 1.65970714e-11
 0.00000000e+00 0.00000000e+00 0.00000000e+00 0.00000000e+00
 0.00000000e+00 0.00000000e+00 0.00000000e+00 0.00000000e+00
 0.00000000e+00 0.00000000e+00 0.00000000e+00 0.00000000e+00
 0.00000000e+00 0.00000000e+00 0.00000000e+00 0.00000000e+00
 0.00000000e+00 0.00000000e+00 4.25692430e-08 1.65970714e-11
 0.00000000e+00 0.00000000e+00 0.00000000e+00 9.97483254e-03]","[[9.97400931e-06 1.61264658e-14 4.25692430e-11]
 [1.61264658e-14 9.97396794e-06 1.65970714e-14]
 [4.25692430e-11 1.65970714e-14 9.97483254e-06]]",[-1.05684102e-04 -3.41773802e-08  1.49844293e-04],0.0,0.0
1786957728.014104,0.00010568093981435684,3.417635761180713e-08,-6.387587699441255e-05,"[9.97381068e-03 1.60889121e-11 0.00000000e+00 0.00000000e+00
 0.00000000e+00 4.29044502e-08 1.60889121e-11 9.97376899e-03
 0.00000000e+00 0.00000000e+00 0.00000000e+00 1.65584218e-11
 0.00000000e+00 0.00000000e+00 0.00000000e+00 0.00000000e+00
 0.00000000e+00 0.00000000e+00 0.00000000e+00 0.00000000e+00
 0.00000000e+00 0.00000000e+00 0.00000000e+00 0.00000000e+00
 0.00000000e+00 0.00000000e+00 0.00000000e+00 0.00000000e+00
 0.00000000e+00 0.00000000e+00 4.29044502e-08 1.65584218e-11
 0.00000000e+00 0.00000000e+00 0.00000000e+00 9.97464040e-03]","[[9.97381068e-06 1.60889121e-14 4.29044502e-11]
 [1.60889121e-14 9.97376899e-06 1.65584218e-14]
 [4.29044502e-11 1.65584218e-14 9.97464040e-06]]",[-1.05681994e-04 -3.41766985e-08  6.38765141e-05],0.0,0.0
1786957728.0640728,0.00010567777778400384,3.417533503609743e-08,5.127588753151002e-05,"[9.97351269e-03 1.60709342e-11 0.00000000e+00 0.00000000e+00
 0.00000000e+00 4.33522710e-08 1.60709342e-11 9.97347057e-03
 0.00000000e+00 0.00000000e+00 0.00000000e+00 1.65399192e-11
 0.00000000e+00 0.00000000e+00 0.00000000e+00 0.00000000e+00
 0.00000000e+00 0.00000000e+00 0.00000000e+00 0.00000000e+00
 0.00000000e+00 0.00000000e+00 0.00000000e+00 0.00000000e+00
 0.00000000e+00 0.00000000e+00 0.00000000e+00 0.00000000e+00
 0.00000000e+00 0.00000000e+00 4.33522710e-08 1.65399192e-11
 0.00000000e+00 0.00000000e+00 0.00000000e+00 9.97435107e-03]","[[9.97351269e-06 1.60709342e-14 4.33522710e-11]
 [1.60709342e-14 9.97347057e-06 1.65399192e-14]
 [4.33522710e-11 1.65399192e-14 9.97435107e-06]]",[-1.05678832e-04 -3.41756759e-08 -5.12763990e-05],0.0,0.0
1786957728.114035,0.00010567566985956419,3.417465334943269e-08,0.00010573180936512828,"[9.97331406e-03 1.60943867e-11 0.00000000e+00 0.00000000e+00
 0.00000000e+00 4.36623694e-08 1.60943867e-11 9.97327163e-03
 0.00000000e+00 0.00000000e+00 0.00000000e+00 1.65640560e-11
 0.00000000e+00 0.00000000e+00 0.00000000e+00 0.00000000e+00
 0.00000000e+00 0.00000000e+00 0.00000000e+00 0.00000000e+00
 0.00000000e+00 0.00000000e+00 0.00000000e+00 0.00000000e+00
 0.00000000e+00 0.00000000e+00 0.00000000e+00 0.00000000e+00
 0.00000000e+00 0.00000000e+00 4.36623694e-08 1.65640560e-11
 0.00000000e+00 0.00000000e+00 0.00000000e+00 9.97415843e-03]","[[9.97331406e-06 1.60943867e-14 4.36623694e-11]
 [1.60943867e-14 9.97327163e-06 1.65640560e-14]
 [4.36623694e-11 1.65640560e-14 9.97415843e-06]]",[-1.05676724e-04 -3.41749942e-08 -1.05732864e-04],0.0,0.0
1786957728.164083,0.00010567356202053329,3.4173971690495024e-08,6.87248750619318e-05,"[9.97311543e-03 1.61263747e-11 0.00000000e+00 0.00000000e+00
 0.00000000e+00 4.39751236e-08 1.61263747e-11 9.97307270e-03
 0.00000000e+00 0.00000000e+00 0.00000000e+00 1.65969775e-11
 0.00000000e+00 0.00000000e+00 0.00000000e+00 0.00000000e+00
 0.00000000e+00 0.00000000e+00 0.00000000e+00 0.00000000e+00
 0.00000000e+00 0.00000000e+00 0.00000000e+00 0.00000000e+00
 0.00000000e+00 0.00000000e+00 0.00000000e+00 0.00000000e+00
 0.00000000e+00 0.00000000e+00 4.39751236e-08 1.65969775e-11
 0.00000000e+00 0.00000000e+00 0.00000000e+00 9.97396586e-03]","[[9.97311543e-06 1.61263747e-14 4.39751236e-11]
 [1.61263747e-14 9.97307270e-06 1.65969775e-14]
 [4.39751236e-11 1.65969775e-14 9.97396586e-06]]",[-1.05674616e-04 -3.41743125e-08 -6.87255605e-05],0.0,0.0
1786957728.2142127,0.00010567145427218326,3.4173290061264905e-08,-8.090554395323581e-06,"[9.97291683e-03 1.61411387e-11 0.00000000e+00 0.00000000e+00
 0.00000000e+00 4.43001180e-08 1.61411387e-11 9.97287378e-03
 0.00000000e+00 0.00000000e+00 0.00000000e+00 1.66121724e-11
 0.00000000e+00 0.00000000e+00 0.00000000e+00 0.00000000e+00
 0.00000000e+00 0.00000000e+00 0.00000000e+00 0.00000000e+00
 0.00000000e+00 0.00000000e+00 0.00000000e+00 0.00000000e+00
 0.00000000e+00 0.00000000e+00 0.00000000e+00 0.00000000e+00
 0.00000000e+00 0.00000000e+00 4.43001180e-08 1.66121724e-11
 0.00000000e+00 0.00000000e+00 0.00000000e+00 9.97377354e-03]","[[9.97291683e-06 1.61411387e-14 4.43001180e-11]
 [1.61411387e-14 9.97287378e-06 1.66121724e-14]
 [4.43001180e-11 1.66121724e-14 9.97377354e-06]]",[-1.05672508e-04 -3.41736309e-08  8.09063509e-06],0.0,0.0
1786957728.2641532,0.00010566829283323336,3.417226767809281e-08,-0.00025793225857118074,"[9.97261890e-03 1.61089423e-11 0.00000000e+00 0.00000000e+00
 0.00000000e+00 4.47472946e-08 1.61089423e-11 9.97257542e-03
 0.00000000e+00 0.00000000e+00 0.00000000e+00 1.65790364e-11
 0.00000000e+00 0.00000000e+00 0.00000000e+00 0.00000000e+00
 0.00000000e+00 0.00000000e+00 0.00000000e+00 0.00000000e+00
 0.00000000e+00 0.00000000e+00 0.00000000e+00 0.00000000e+00
 0.00000000e+00 0.00000000e+00 0.00000000e+00 0.00000000e+00
 0.00000000e+00 0.00000000e+00 4.47472946e-08 1.65790364e-11
 0.00000000e+00 0.00000000e+00 0.00000000e+00 9.97348425e-03]","[[9.97261890e-06 1.61089423e-14 4.47472946e-11]
 [1.61089423e-14 9.97257542e-06 1.65790364e-14]
 [4.47472946e-11 1.65790364e-14 9.97348425e-06]]",[-1.05669347e-04 -3.41726085e-08  2.57934831e-04],0.0,0.0
1786957728.3150973,0.00010566513161817233,3.417124536872039e-08,-0.0004803415395060462,"[9.97232099e-03 1.59502883e-11 0.00000000e+00 0.00000000e+00
 0.00000000e+00 4.52018948e-08 1.59502883e-11 9.97227707e-03
 0.00000000e+00 0.00000000e+00 0.00000000e+00 1.64157524e-11
 0.00000000e+00 0.00000000e+00 0.00000000e+00 0.00000000e+00
 0.00000000e+00 0.00000000e+00 0.00000000e+00 0.00000000e+00
 0.00000000e+00 0.00000000e+00 0.00000000e+00 0.00000000e+00
 0.00000000e+00 0.00000000e+00 0.00000000e+00 0.00000000e+00
 0.00000000e+00 0.00000000e+00 4.52018948e-08 1.64157524e-11
 0.00000000e+00 0.00000000e+00 0.00000000e+00 9.97319514e-03]","[[9.97232099e-06 1.59502883e-14 4.52018948e-11]
 [1.59502883e-14 9.97227707e-06 1.64157524e-14]
 [4.52018948e-11 1.64157524e-14 9.97319514e-06]]",[-1.05666185e-04 -3.41715861e-08  4.80346330e-04],0.0,0.0
1786957728.365045,0.00010566302424964863,3.417056386404173e-08,-0.00045068451994856323,"[9.97212240e-03 1.58046725e-11 0.00000000e+00 0.00000000e+00
 0.00000000e+00 4.55078227e-08 1.58046725e-11 9.97207818e-03
 0.00000000e+00 0.00000000e+00 0.00000000e+00 1.62658872e-11
 0.00000000e+00 0.00000000e+00 0.00000000e+00 0.00000000e+00
 0.00000000e+00 0.00000000e+00 0.00000000e+00 0.00000000e+00
 0.00000000e+00 0.00000000e+00 0.00000000e+00 0.00000000e+00
 0.00000000e+00 0.00000000e+00 0.00000000e+00 0.00000000e+00
 0.00000000e+00 0.00000000e+00 4.55078227e-08 1.62658872e-11
 0.00000000e+00 0.00000000e+00 0.00000000e+00 9.97300246e-03]","[[9.97212240e-06 1.58046725e-14 4.55078227e-11]
 [1.58046725e-14 9.97207818e-06 1.62658872e-14]
 [4.55078227e-11 1.62658872e-14 9.97300246e-06]]",[-1.05664078e-04 -3.41709046e-08  4.50689015e-04],0.0,0.0
1786957728.4142427,0.00010565986334182632,3.4169541653189256e-08,-0.0003498552537584132,"[9.97182454e-03 1.56128512e-11 0.00000000e+00 0.00000000e+00
 0.00000000e+00 4.59792068e-08 1.56128512e-11 9.97177986e-03
 0.00000000e+00 0.00000000e+00 0.00000000e+00 1.60684681e-11
 0.00000000e+00 0.00000000e+00 0.00000000e+00 0.00000000e+00
 0.00000000e+00 0.00000000e+00 0.00000000e+00 0.00000000e+00
 0.00000000e+00 0.00000000e+00 0.00000000e+00 0.00000000e+00
 0.00000000e+00 0.00000000e+00 0.00000000e+00 0.00000000e+00
 0.00000000e+00 0.00000000e+00 4.59792068e-08 1.60684681e-11
 0.00000000e+00 0.00000000e+00 0.00000000e+00 9.97271372e-03]","[[9.97182454e-06 1.56128512e-14 4.59792068e-11]
 [1.56128512e-14 9.97177986e-06 1.60684681e-14]
 [4.59792068e-11 1.60684681e-14 9.97271372e-06]]",[-1.05660917e-04 -3.41698824e-08  3.49858743e-04],0.0,0.0
1786957728.4641485,0.0001056577561657088,3.416886020990399e-08,-0.00021365411537210832,"[9.97162599e-03 1.55023530e-11 0.00000000e+00 0.00000000e+00
 0.00000000e+00 4.63100548e-08 1.55023530e-11 9.97158099e-03
 0.00000000e+00 0.00000000e+00 0.00000000e+00 1.59547453e-11
 0.00000000e+00 0.00000000e+00 0.00000000e+00 0.00000000e+00
 0.00000000e+00 0.00000000e+00 0.00000000e+00 0.00000000e+00
 0.00000000e+00 0.00000000e+00 0.00000000e+00 0.00000000e+00
 0.00000000e+00 0.00000000e+00 0.00000000e+00 0.00000000e+00
 0.00000000e+00 0.00000000e+00 4.63100548e-08 1.59547453e-11
 0.00000000e+00 0.00000000e+00 0.00000000e+00 9.97252157e-03]","[[9.97162599e-06 1.55023530e-14 4.63100548e-11]
 [1.55023530e-14 9.97158099e-06 1.59547453e-14]
 [4.63100548e-11 1.59547453e-14 9.97252157e-06]]",[-1.05658810e-04 -3.41692009e-08  2.13656246e-04],0.0,0.0
1786957728.520528,0.0001056545955255721,3.4167838084380476e-08,1.7305317053573084e-05,"[9.97132816e-03 1.54572701e-11 0.00000000e+00 0.00000000e+00
 0.00000000e+00 4.67826497e-08 1.54572701e-11 9.97128271e-03
 0.00000000e+00 0.00000000e+00 0.00000000e+00 1.59083467e-11
 0.00000000e+00 0.00000000e+00 0.00000000e+00 0.00000000e+00
 0.00000000e+00 0.00000000e+00 0.00000000e+00 0.00000000e+00
 0.00000000e+00 0.00000000e+00 0.00000000e+00 0.00000000e+00
 0.00000000e+00 0.00000000e+00 0.00000000e+00 0.00000000e+00
 0.00000000e+00 0.00000000e+00 4.67826497e-08 1.59083467e-11
 0.00000000e+00 0.00000000e+00 0.00000000e+00 9.97223288e-03]","[[9.97132816e-06 1.54572701e-14 4.67826497e-11]
 [1.54572701e-14 9.97128271e-06 1.59083467e-14]
 [4.67826497e-11 1.59083467e-14 9.97223288e-06]]",[-1.05655649e-04 -3.41681788e-08 -1.73054896e-05],0.0,0.0
1786957728.5641272,0.00010565248852907991,3.416715669860606e-08,7.710857003218052e-05,"[9.97112964e-03 1.54653937e-11 0.00000000e+00 0.00000000e+00
 0.00000000e+00 4.71221603e-08 1.54653937e-11 9.97108386e-03
 0.00000000e+00 0.00000000e+00 0.00000000e+00 1.59167074e-11
 0.00000000e+00 0.00000000e+00 0.00000000e+00 0.00000000e+00
 0.00000000e+00 0.00000000e+00 0.00000000e+00 0.00000000e+00
 0.00000000e+00 0.00000000e+00 0.00000000e+00 0.00000000e+00
 0.00000000e+00 0.00000000e+00 0.00000000e+00 0.00000000e+00
 0.00000000e+00 0.00000000e+00 4.71221603e-08 1.59167074e-11
 0.00000000e+00 0.00000000e+00 0.00000000e+00 9.97204093e-03]","[[9.97112964e-06 1.54653937e-14 4.71221603e-11]
 [1.54653937e-14 9.97108386e-06 1.59167074e-14]
 [4.71221603e-11 1.59167074e-14 9.97204093e-06]]",[-1.05653542e-04 -3.41674974e-08 -7.71093390e-05],0.0,0.0
1786957728.6146214,0.0001056493281811955,3.4166134667340763e-08,0.00012450291482757336,"[9.97083182e-03 1.55164385e-11 0.00000000e+00 0.00000000e+00
 0.00000000e+00 4.75744485e-08 1.55164385e-11 9.97078560e-03
 0.00000000e+00 0.00000000e+00 0.00000000e+00 1.59692417e-11
 0.00000000e+00 0.00000000e+00 0.00000000e+00 0.00000000e+00
 0.00000000e+00 0.00000000e+00 0.00000000e+00 0.00000000e+00
 0.00000000e+00 0.00000000e+00 0.00000000e+00 0.00000000e+00
 0.00000000e+00 0.00000000e+00 0.00000000e+00 0.00000000e+00
 0.00000000e+00 0.00000000e+00 4.75744485e-08 1.59692417e-11
 0.00000000e+00 0.00000000e+00 0.00000000e+00 9.97175186e-03]","[[9.97083182e-06 1.55164385e-14 4.75744485e-11]
 [1.55164385e-14 9.97078560e-06 1.59692417e-14]
 [4.75744485e-11 1.59692417e-14 9.97175186e-06]]",[-1.05650382e-04 -3.41664753e-08 -1.24504156e-04],0.0,0.0
1786957728.6655133,0.0001056472213918819,3.4165453348587903e-08,6.862946205021814e-05,"[9.97063326e-03 1.55465651e-11 0.00000000e+00 0.00000000e+00
 0.00000000e+00 4.78501083e-08 1.55465651e-11 9.97058677e-03
 0.00000000e+00 0.00000000e+00 0.00000000e+00 1.60002474e-11
 0.00000000e+00 0.00000000e+00 0.00000000e+00 0.00000000e+00
 0.00000000e+00 0.00000000e+00 0.00000000e+00 0.00000000e+00
 0.00000000e+00 0.00000000e+00 0.00000000e+00 0.00000000e+00
 0.00000000e+00 0.00000000e+00 0.00000000e+00 0.00000000e+00
 0.00000000e+00 0.00000000e+00 4.78501083e-08 1.60002474e-11
 0.00000000e+00 0.00000000e+00 0.00000000e+00 9.97155863e-03]","[[9.97063326e-06 1.55465651e-14 4.78501083e-11]
 [1.55465651e-14 9.97058677e-06 1.60002474e-14]
 [4.78501083e-11 1.60002474e-14 9.97155863e-06]]",[-1.05648275e-04 -3.41657940e-08 -6.86301464e-05],0.0,0.0
1786957728.716135,0.00010564406137623024,3.416443142504418e-08,-1.4631596732872513e-05,"[9.97033548e-03 1.55610510e-11 0.00000000e+00 0.00000000e+00
 0.00000000e+00 4.83066926e-08 1.55610510e-11 9.97028854e-03
 0.00000000e+00 0.00000000e+00 0.00000000e+00 1.60151560e-11
 0.00000000e+00 0.00000000e+00 0.00000000e+00 0.00000000e+00
 0.00000000e+00 0.00000000e+00 0.00000000e+00 0.00000000e+00
 0.00000000e+00 0.00000000e+00 0.00000000e+00 0.00000000e+00
 0.00000000e+00 0.00000000e+00 0.00000000e+00 0.00000000e+00
 0.00000000e+00 0.00000000e+00 4.83066926e-08 1.60151560e-11
 0.00000000e+00 0.00000000e+00 0.00000000e+00 9.97126967e-03]","[[9.97033548e-06 1.55610510e-14 4.83066926e-11]
 [1.55610510e-14 9.97028854e-06 1.60151560e-14]
 [4.83066926e-11 1.60151560e-14 9.97126967e-06]]",[-1.05645115e-04 -3.41647721e-08  1.46317426e-05],0.0,0.0
1786957728.7656279,0.0001056419548081456,3.416375017799205e-08,-4.100412863916603e-05,"[9.97013697e-03 1.55534560e-11 0.00000000e+00 0.00000000e+00
 0.00000000e+00 4.86198602e-08 1.55534560e-11 9.97008973e-03
 0.00000000e+00 0.00000000e+00 0.00000000e+00 1.60073393e-11
 0.00000000e+00 0.00000000e+00 0.00000000e+00 0.00000000e+00
 0.00000000e+00 0.00000000e+00 0.00000000e+00 0.00000000e+00
 0.00000000e+00 0.00000000e+00 0.00000000e+00 0.00000000e+00
 0.00000000e+00 0.00000000e+00 0.00000000e+00 0.00000000e+00
 0.00000000e+00 0.00000000e+00 4.86198602e-08 1.60073393e-11
 0.00000000e+00 0.00000000e+00 0.00000000e+00 9.97107722e-03]","[[9.97013697e-06 1.55534560e-14 4.86198602e-11]
 [1.55534560e-14 9.97008973e-06 1.60073393e-14]
 [4.86198602e-11 1.60073393e-14 9.97107722e-06]]",[-1.05643008e-04 -3.41640908e-08  4.10045375e-05],0.0,0.0
1786957728.8142717,0.00010563879511605502,3.416272835920798e-08,-4.504962745555119e-05,"[9.96983925e-03 1.55271782e-11 0.00000000e+00 0.00000000e+00
 0.00000000e+00 4.91112672e-08 1.55271782e-11 9.96979153e-03
 0.00000000e+00 0.00000000e+00 0.00000000e+00 1.59802946e-11
 0.00000000e+00 0.00000000e+00 0.00000000e+00 0.00000000e+00
 0.00000000e+00 0.00000000e+00 0.00000000e+00 0.00000000e+00
 0.00000000e+00 0.00000000e+00 0.00000000e+00 0.00000000e+00
 0.00000000e+00 0.00000000e+00 0.00000000e+00 0.00000000e+00
 0.00000000e+00 0.00000000e+00 4.91112672e-08 1.59802946e-11
 0.00000000e+00 0.00000000e+00 0.00000000e+00 9.97078900e-03]","[[9.96983925e-06 1.55271782e-14 4.91112672e-11]
 [1.55271782e-14 9.96979153e-06 1.59802946e-14]
 [4.91112672e-11 1.59802946e-14 9.97078900e-06]]",[-1.05639848e-04 -3.41630690e-08  4.50500766e-05],0.0,0.0
1786957728.863744,0.00010563668875748196,3.416204717994875e-08,-3.005940581868316e-05,"[9.96964072e-03 1.55167875e-11 0.00000000e+00 0.00000000e+00
 0.00000000e+00 4.93780208e-08 1.55167875e-11 9.96959274e-03
 0.00000000e+00 0.00000000e+00 0.00000000e+00 1.59696007e-11
 0.00000000e+00 0.00000000e+00 0.00000000e+00 0.00000000e+00
 0.00000000e+00 0.00000000e+00 0.00000000e+00 0.00000000e+00
 0.00000000e+00 0.00000000e+00 0.00000000e+00 0.00000000e+00
 0.00000000e+00 0.00000000e+00 0.00000000e+00 0.00000000e+00
 0.00000000e+00 0.00000000e+00 4.93780208e-08 1.59696007e-11
 0.00000000e+00 0.00000000e+00 0.00000000e+00 9.97059563e-03]","[[9.96964072e-06 1.55167875e-14 4.93780208e-11]
 [1.55167875e-14 9.96959274e-06 1.59696007e-14]
 [4.93780208e-11 1.59696007e-14 9.97059563e-06]]",[-1.05637742e-04 -3.41623878e-08  3.00597055e-05],0.0,0.0
1786957728.9142065,0.00010563352937548511,3.416102546150089e-08,-9.412985154000353e-06,"[9.96934307e-03 1.55015540e-11 0.00000000e+00 0.00000000e+00
 0.00000000e+00 4.99101809e-08 1.55015540e-11 9.96929457e-03
 0.00000000e+00 0.00000000e+00 0.00000000e+00 1.59539226e-11
 0.00000000e+00 0.00000000e+00 0.00000000e+00 0.00000000e+00
 0.00000000e+00 0.00000000e+00 0.00000000e+00 0.00000000e+00
 0.00000000e+00 0.00000000e+00 0.00000000e+00 0.00000000e+00
 0.00000000e+00 0.00000000e+00 0.00000000e+00 0.00000000e+00
 0.00000000e+00 0.00000000e+00 4.99101809e-08 1.59539226e-11
 0.00000000e+00 0.00000000e+00 0.00000000e+00 9.97030827e-03]","[[9.96934307e-06 1.55015540e-14 4.99101809e-11]
 [1.55015540e-14 9.96929457e-06 1.59539226e-14]
 [4.99101809e-11 1.59539226e-14 9.97030827e-06]]",[-1.05634582e-04 -3.41613660e-08  9.41307900e-06],0.0,0.0
1786957728.9642713,0.00010563142322055496,3.4160344348170306e-08,5.8518531112827794e-05,"[9.96914454e-03 1.55000781e-11 0.00000000e+00 0.00000000e+00
 0.00000000e+00 5.01626161e-08 1.55000781e-11 9.96909580e-03
 0.00000000e+00 0.00000000e+00 0.00000000e+00 1.59524036e-11
 0.00000000e+00 0.00000000e+00 0.00000000e+00 0.00000000e+00
 0.00000000e+00 0.00000000e+00 0.00000000e+00 0.00000000e+00
 0.00000000e+00 0.00000000e+00 0.00000000e+00 0.00000000e+00
 0.00000000e+00 0.00000000e+00 0.00000000e+00 0.00000000e+00
 0.00000000e+00 0.00000000e+00 5.01626161e-08 1.59524036e-11
 0.00000000e+00 0.00000000e+00 0.00000000e+00 9.97011463e-03]","[[9.96914454e-06 1.55000781e-14 5.01626161e-11]
 [1.55000781e-14 9.96909580e-06 1.59524036e-14]
 [5.01626161e-11 1.59524036e-14 9.97011463e-06]]",[-1.05632476e-04 -3.41606849e-08 -5.85191146e-05],0.0,0.0
1786957729.0143387,0.00010562826412518738,3.415932272266173e-08,0.00018924300242817438,"[9.96884690e-03 1.55623742e-11 0.00000000e+00 0.00000000e+00
 0.00000000e+00 5.06720709e-08 1.55623742e-11 9.96879766e-03
 0.00000000e+00 0.00000000e+00 0.00000000e+00 1.60165176e-11
 0.00000000e+00 0.00000000e+00 0.00000000e+00 0.00000000e+00
 0.00000000e+00 0.00000000e+00 0.00000000e+00 0.00000000e+00
 0.00000000e+00 0.00000000e+00 0.00000000e+00 0.00000000e+00
 0.00000000e+00 0.00000000e+00 0.00000000e+00 0.00000000e+00
 0.00000000e+00 0.00000000e+00 5.06720709e-08 1.60165176e-11
 0.00000000e+00 0.00000000e+00 0.00000000e+00 9.96982684e-03]","[[9.96884690e-06 1.55623742e-14 5.06720709e-11]
 [1.55623742e-14 9.96879766e-06 1.60165176e-14]
 [5.06720709e-11 1.60165176e-14 9.96982684e-06]]",[-1.05629317e-04 -3.41596633e-08 -1.89244889e-04],0.0,0.0
1786957729.0678082,0.00010562615816287773,3.415864167179622e-08,0.00020243809968878423,"[9.96864841e-03 1.56131859e-11 0.00000000e+00 0.00000000e+00
 0.00000000e+00 5.09458863e-08 1.56131859e-11 9.96859891e-03
 0.00000000e+00 0.00000000e+00 0.00000000e+00 1.60688120e-11
 0.00000000e+00 0.00000000e+00 0.00000000e+00 0.00000000e+00
 0.00000000e+00 0.00000000e+00 0.00000000e+00 0.00000000e+00
 0.00000000e+00 0.00000000e+00 0.00000000e+00 0.00000000e+00
 0.00000000e+00 0.00000000e+00 0.00000000e+00 0.00000000e+00
 0.00000000e+00 0.00000000e+00 5.09458863e-08 1.60688120e-11
 0.00000000e+00 0.00000000e+00 0.00000000e+00 9.96963365e-03]","[[9.96864841e-06 1.56131859e-14 5.09458863e-11]
 [1.56131859e-14 9.96859891e-06 1.60688120e-14]
 [5.09458863e-11 1.60688120e-14 9.96963365e-06]]",[-1.05627211e-04 -3.41589822e-08 -2.02440118e-04],0.0,0.0
1786957729.1148767,0.00010562299937328957,3.415762014532643e-08,0.00023260293582394453,"[9.96835073e-03 1.57029474e-11 0.00000000e+00 0.00000000e+00
 0.00000000e+00 5.13873054e-08 1.57029474e-11 9.96830080e-03
 0.00000000e+00 0.00000000e+00 0.00000000e+00 1.61611929e-11
 0.00000000e+00 0.00000000e+00 0.00000000e+00 0.00000000e+00
 0.00000000e+00 0.00000000e+00 0.00000000e+00 0.00000000e+00
 0.00000000e+00 0.00000000e+00 0.00000000e+00 0.00000000e+00
 0.00000000e+00 0.00000000e+00 0.00000000e+00 0.00000000e+00
 0.00000000e+00 0.00000000e+00 5.13873054e-08 1.61611929e-11
 0.00000000e+00 0.00000000e+00 0.00000000e+00 9.96934450e-03]","[[9.96835073e-06 1.57029474e-14 5.13873054e-11]
 [1.57029474e-14 9.96830080e-06 1.61611929e-14]
 [5.13873054e-11 1.61611929e-14 9.96934450e-06]]",[-1.05624052e-04 -3.41579606e-08 -2.32605255e-04],0.0,0.0
1786957729.1638293,0.00010562089361609202,3.415693916087953e-08,0.0002347533366084953,"[9.96815230e-03 1.57745609e-11 0.00000000e+00 0.00000000e+00
 0.00000000e+00 5.16947572e-08 1.57745609e-11 9.96810207e-03
 0.00000000e+00 0.00000000e+00 0.00000000e+00 1.62348963e-11
 0.00000000e+00 0.00000000e+00 0.00000000e+00 0.00000000e+00
 0.00000000e+00 0.00000000e+00 0.00000000e+00 0.00000000e+00
 0.00000000e+00 0.00000000e+00 0.00000000e+00 0.00000000e+00
 0.00000000e+00 0.00000000e+00 0.00000000e+00 0.00000000e+00
 0.00000000e+00 0.00000000e+00 5.16947572e-08 1.62348963e-11
 0.00000000e+00 0.00000000e+00 0.00000000e+00 9.96915202e-03]","[[9.96815230e-06 1.57745609e-14 5.16947572e-11]
 [1.57745609e-14 9.96810207e-06 1.62348963e-14]
 [5.16947572e-11 1.62348963e-14 9.96915202e-06]]",[-1.05621946e-04 -3.41572796e-08 -2.34755677e-04],0.0,0.0
1786957729.2140923,0.00010561773514165597,3.415591773638619e-08,0.00021222280766464158,"[9.96785467e-03 1.58731548e-11 0.00000000e+00 0.00000000e+00
 0.00000000e+00 5.21542202e-08 1.58731548e-11 9.96780399e-03
 0.00000000e+00 0.00000000e+00 0.00000000e+00 1.63363672e-11
 0.00000000e+00 0.00000000e+00 0.00000000e+00 0.00000000e+00
 0.00000000e+00 0.00000000e+00 0.00000000e+00 0.00000000e+00
 0.00000000e+00 0.00000000e+00 0.00000000e+00 0.00000000e+00
 0.00000000e+00 0.00000000e+00 0.00000000e+00 0.00000000e+00
 0.00000000e+00 0.00000000e+00 5.21542202e-08 1.63363672e-11
 0.00000000e+00 0.00000000e+00 0.00000000e+00 9.96886327e-03]","[[9.96785467e-06 1.58731548e-14 5.21542202e-11]
 [1.58731548e-14 9.96780399e-06 1.63363672e-14]
 [5.21542202e-11 1.63363672e-14 9.96886327e-06]]",[-1.05618788e-04 -3.41562582e-08 -2.12224923e-04],0.0,0.0
1786957729.263668,0.00010561457686304245,3.4154896375189906e-08,0.00011585382070133932,"[9.96755705e-03 1.59617307e-11 0.00000000e+00 0.00000000e+00
 0.00000000e+00 5.26145377e-08 1.59617307e-11 9.96750593e-03
 0.00000000e+00 0.00000000e+00 0.00000000e+00 1.64275280e-11
 0.00000000e+00 0.00000000e+00 0.00000000e+00 0.00000000e+00
 0.00000000e+00 0.00000000e+00 0.00000000e+00 0.00000000e+00
 0.00000000e+00 0.00000000e+00 0.00000000e+00 0.00000000e+00
 0.00000000e+00 0.00000000e+00 0.00000000e+00 0.00000000e+00
 0.00000000e+00 0.00000000e+00 5.26145377e-08 1.64275280e-11
 0.00000000e+00 0.00000000e+00 0.00000000e+00 9.96857455e-03]","[[9.96755705e-06 1.59617307e-14 5.26145377e-11]
 [1.59617307e-14 9.96750593e-06 1.64275280e-14]
 [5.26145377e-11 1.64275280e-14 9.96857455e-06]]",[-1.05615630e-04 -3.41552368e-08 -1.15854976e-04],0.0,0.0
1786957729.3153179,0.00010561247146097546,3.415421550545679e-08,3.7756587820236824e-05,"[9.96735866e-03 1.59881947e-11 0.00000000e+00 0.00000000e+00
 0.00000000e+00 5.29234031e-08 1.59881947e-11 9.96730723e-03
 0.00000000e+00 0.00000000e+00 0.00000000e+00 1.64547642e-11
 0.00000000e+00 0.00000000e+00 0.00000000e+00 0.00000000e+00
 0.00000000e+00 0.00000000e+00 0.00000000e+00 0.00000000e+00
 0.00000000e+00 0.00000000e+00 0.00000000e+00 0.00000000e+00
 0.00000000e+00 0.00000000e+00 0.00000000e+00 0.00000000e+00
 0.00000000e+00 0.00000000e+00 5.29234031e-08 1.64547642e-11
 0.00000000e+00 0.00000000e+00 0.00000000e+00 9.96838213e-03]","[[9.96735866e-06 1.59881947e-14 5.29234031e-11]
 [1.59881947e-14 9.96730723e-06 1.64547642e-14]
 [5.29234031e-11 1.64547642e-14 9.96838213e-06]]",[-1.05613524e-04 -3.41545559e-08 -3.77569642e-05],0.0,0.0
1786957729.3642855,0.00010560931351624018,3.4153194252111075e-08,7.781288611541372e-05,"[9.96706107e-03 1.60013080e-11 0.00000000e+00 0.00000000e+00
 0.00000000e+00 5.33838445e-08 1.60013080e-11 9.96700920e-03
 0.00000000e+00 0.00000000e+00 0.00000000e+00 1.64682601e-11
 0.00000000e+00 0.00000000e+00 0.00000000e+00 0.00000000e+00
 0.00000000e+00 0.00000000e+00 0.00000000e+00 0.00000000e+00
 0.00000000e+00 0.00000000e+00 0.00000000e+00 0.00000000e+00
 0.00000000e+00 0.00000000e+00 0.00000000e+00 0.00000000e+00
 0.00000000e+00 0.00000000e+00 5.33838445e-08 1.64682601e-11
 0.00000000e+00 0.00000000e+00 0.00000000e+00 9.96809345e-03]","[[9.96706107e-06 1.60013080e-14 5.33838445e-11]
 [1.60013080e-14 9.96700920e-06 1.64682601e-14]
 [5.33838445e-11 1.64682601e-14 9.96809345e-06]]",[-1.05610366e-04 -3.41535347e-08 -7.78136618e-05],0.0,0.0
1786957729.4145908,0.00010560720831570756,3.415251344774671e-08,0.000136898952750375,"[9.96686271e-03 1.60322638e-11 0.00000000e+00 0.00000000e+00
 0.00000000e+00 5.37155536e-08 1.60322638e-11 9.96681052e-03
 0.00000000e+00 0.00000000e+00 0.00000000e+00 1.65001193e-11
 0.00000000e+00 0.00000000e+00 0.00000000e+00 0.00000000e+00
 0.00000000e+00 0.00000000e+00 0.00000000e+00 0.00000000e+00
 0.00000000e+00 0.00000000e+00 0.00000000e+00 0.00000000e+00
 0.00000000e+00 0.00000000e+00 0.00000000e+00 0.00000000e+00
 0.00000000e+00 0.00000000e+00 5.37155536e-08 1.65001193e-11
 0.00000000e+00 0.00000000e+00 0.00000000e+00 9.96790151e-03]","[[9.96686271e-06 1.60322638e-14 5.37155536e-11]
 [1.60322638e-14 9.96681052e-06 1.65001193e-14]
 [5.37155536e-11 1.65001193e-14 9.96790151e-06]]",[-1.05608261e-04 -3.41528538e-08 -1.36900317e-04],0.0,0.0
1786957729.4673312,0.00010560510319519961,3.415183266935142e-08,0.00016462349392565298,"[9.96666433e-03 1.60746942e-11 0.00000000e+00 0.00000000e+00
 0.00000000e+00 5.40140731e-08 1.60746942e-11 9.96661185e-03
 0.00000000e+00 0.00000000e+00 0.00000000e+00 1.65437878e-11
 0.00000000e+00 0.00000000e+00 0.00000000e+00 0.00000000e+00
 0.00000000e+00 0.00000000e+00 0.00000000e+00 0.00000000e+00
 0.00000000e+00 0.00000000e+00 0.00000000e+00 0.00000000e+00
 0.00000000e+00 0.00000000e+00 0.00000000e+00 0.00000000e+00
 0.00000000e+00 0.00000000e+00 5.40140731e-08 1.65437878e-11
 0.00000000e+00 0.00000000e+00 0.00000000e+00 9.96770890e-03]","[[9.96666433e-06 1.60746942e-14 5.40140731e-11]
 [1.60746942e-14 9.96661185e-06 1.65437878e-14]
 [5.40140731e-11 1.65437878e-14 9.96770890e-06]]",[-1.05606156e-04 -3.41521731e-08 -1.64625135e-04],0.0,0.0
1786957729.518291,0.00010560194566522372,3.41508115506824e-08,0.0002447594123320407,"[9.96636679e-03 1.61518742e-11 0.00000000e+00 0.00000000e+00
 0.00000000e+00 5.44771102e-08 1.61518742e-11 9.96631386e-03
 0.00000000e+00 0.00000000e+00 0.00000000e+00 1.66232200e-11
 0.00000000e+00 0.00000000e+00 0.00000000e+00 0.00000000e+00
 0.00000000e+00 0.00000000e+00 0.00000000e+00 0.00000000e+00
 0.00000000e+00 0.00000000e+00 0.00000000e+00 0.00000000e+00
 0.00000000e+00 0.00000000e+00 0.00000000e+00 0.00000000e+00
 0.00000000e+00 0.00000000e+00 5.44771102e-08 1.66232200e-11
 0.00000000e+00 0.00000000e+00 0.00000000e+00 9.96742031e-03]","[[9.96636679e-06 1.61518742e-14 5.44771102e-11]
 [1.61518742e-14 9.96631386e-06 1.66232200e-14]
 [5.44771102e-11 1.66232200e-14 9.96742031e-06]]",[-1.05602998e-04 -3.41511519e-08 -2.44761852e-04],0.0,0.0
1786957729.5636535,0.00010559984073771797,3.415013083505435e-08,0.0003144094110307804,"[9.96616842e-03 1.62308087e-11 0.00000000e+00 0.00000000e+00
 0.00000000e+00 5.47696747e-08 1.62308087e-11 9.96611521e-03
 0.00000000e+00 0.00000000e+00 0.00000000e+00 1.67044580e-11
 0.00000000e+00 0.00000000e+00 0.00000000e+00 0.00000000e+00
 0.00000000e+00 0.00000000e+00 0.00000000e+00 0.00000000e+00
 0.00000000e+00 0.00000000e+00 0.00000000e+00 0.00000000e+00
 0.00000000e+00 0.00000000e+00 0.00000000e+00 0.00000000e+00
 0.00000000e+00 0.00000000e+00 5.47696747e-08 1.67044580e-11
 0.00000000e+00 0.00000000e+00 0.00000000e+00 9.96722760e-03]","[[9.96616842e-06 1.62308087e-14 5.47696747e-11]
 [1.62308087e-14 9.96611521e-06 1.67044580e-14]
 [5.47696747e-11 1.67044580e-14 9.96722760e-06]]",[-1.05600893e-04 -3.41504712e-08 -3.14412545e-04],0.0,0.0
1786957729.6140754,0.00010559668350104009,3.414910981164657e-08,0.0003208334678230784,"[9.96587096e-03 1.63906900e-11 0.00000000e+00 0.00000000e+00
 0.00000000e+00 5.52792286e-08 1.63906900e-11 9.96581725e-03
 0.00000000e+00 0.00000000e+00 0.00000000e+00 1.68690049e-11
 0.00000000e+00 0.00000000e+00 0.00000000e+00 0.00000000e+00
 0.00000000e+00 0.00000000e+00 0.00000000e+00 0.00000000e+00
 0.00000000e+00 0.00000000e+00 0.00000000e+00 0.00000000e+00
 0.00000000e+00 0.00000000e+00 0.00000000e+00 0.00000000e+00
 0.00000000e+00 0.00000000e+00 5.52792286e-08 1.68690049e-11
 0.00000000e+00 0.00000000e+00 0.00000000e+00 9.96693999e-03]","[[9.96587096e-06 1.63906900e-14 5.52792286e-11]
 [1.63906900e-14 9.96581725e-06 1.68690049e-14]
 [5.52792286e-11 1.68690049e-14 9.96693999e-06]]",[-1.05597736e-04 -3.41494501e-08 -3.20836666e-04],0.0,0.0
1786957729.6652842,0.00010559352645620528,3.414808885021424e-08,0.0002909549254801469,"[9.96557342e-03 1.65161811e-11 0.00000000e+00 0.00000000e+00
 0.00000000e+00 5.56922568e-08 1.65161811e-11 9.96551930e-03
 0.00000000e+00 0.00000000e+00 0.00000000e+00 1.69981580e-11
 0.00000000e+00 0.00000000e+00 0.00000000e+00 0.00000000e+00
 0.00000000e+00 0.00000000e+00 0.00000000e+00 0.00000000e+00
 0.00000000e+00 0.00000000e+00 0.00000000e+00 0.00000000e+00
 0.00000000e+00 0.00000000e+00 0.00000000e+00 0.00000000e+00
 0.00000000e+00 0.00000000e+00 5.56922568e-08 1.69981580e-11
 0.00000000e+00 0.00000000e+00 0.00000000e+00 9.96665044e-03]","[[9.96567260e-06 1.64762070e-14 5.55562417e-11]
 [1.64762070e-14 9.96561862e-06 1.69570174e-14]
 [5.55562417e-11 1.69570174e-14 9.96674699e-06]]",[-1.05595631e-04 -3.41487695e-08 -3.02496392e-04],0.0,0.0
1786957729.7140446,0.00010559142186686287,3.4147408243892145e-08,0.0002785719617954818,"[9.96537510e-03 1.66027384e-11 0.00000000e+00 0.00000000e+00
 0.00000000e+00 5.60052356e-08 1.66027384e-11 9.96532068e-03
 0.00000000e+00 0.00000000e+00 0.00000000e+00 1.70872413e-11
 0.00000000e+00 0.00000000e+00 0.00000000e+00 0.00000000e+00
 0.00000000e+00 0.00000000e+00 0.00000000e+00 0.00000000e+00
 0.00000000e+00 0.00000000e+00 0.00000000e+00 0.00000000e+00
 0.00000000e+00 0.00000000e+00 0.00000000e+00 0.00000000e+00
 0.00000000e+00 0.00000000e+00 5.60052356e-08 1.70872413e-11
 0.00000000e+00 0.00000000e+00 0.00000000e+00 9.96645817e-03]","[[9.96537510e-06 1.66027384e-14 5.60052356e-11]
 [1.66027384e-14 9.96532068e-06 1.70872413e-14]
 [5.60052356e-11 1.70872413e-14 9.96645817e-06]]",[-1.05592474e-04 -3.41477485e-08 -2.78574738e-04],0.0,0.0
1786957729.76442,0.00010558931736023988,3.4146727664348544e-08,0.000295242275143881,"[9.96517678e-03 1.66846049e-11 0.00000000e+00 0.00000000e+00
 0.00000000e+00 5.63079046e-08 1.66846049e-11 9.96512207e-03
 0.00000000e+00 0.00000000e+00 0.00000000e+00 1.71714967e-11
 0.00000000e+00 0.00000000e+00 0.00000000e+00 0.00000000e+00
 0.00000000e+00 0.00000000e+00 0.00000000e+00 0.00000000e+00
 0.00000000e+00 0.00000000e+00 0.00000000e+00 0.00000000e+00
 0.00000000e+00 0.00000000e+00 0.00000000e+00 0.00000000e+00
 0.00000000e+00 0.00000000e+00 5.63079046e-08 1.71714967e-11
 0.00000000e+00 0.00000000e+00 0.00000000e+00 9.96626571e-03]","[[9.96517678e-06 1.66846049e-14 5.63079046e-11]
 [1.66846049e-14 9.96512207e-06 1.71714967e-14]
 [5.63079046e-11 1.71714967e-14 9.96626571e-06]]",[-1.05590370e-04 -3.41470680e-08 -2.95245218e-04],0.0,0.0
1786957729.815163,0.00010558616074972703,3.4145706843501646e-08,0.000348703944840878,"[9.96487933e-03 1.68243454e-11 0.00000000e+00 0.00000000e+00
 0.00000000e+00 5.67700474e-08 1.68243454e-11 9.96482417e-03
 0.00000000e+00 0.00000000e+00 0.00000000e+00 1.73153151e-11
 0.00000000e+00 0.00000000e+00 0.00000000e+00 0.00000000e+00
 0.00000000e+00 0.00000000e+00 0.00000000e+00 0.00000000e+00
 0.00000000e+00 0.00000000e+00 0.00000000e+00 0.00000000e+00
 0.00000000e+00 0.00000000e+00 0.00000000e+00 0.00000000e+00
 0.00000000e+00 0.00000000e+00 5.67700474e-08 1.73153151e-11
 0.00000000e+00 0.00000000e+00 0.00000000e+00 9.96597719e-03]","[[9.96487933e-06 1.68243454e-14 5.67700474e-11]
 [1.68243454e-14 9.96482417e-06 1.73153151e-14]
 [5.67700474e-11 1.73153151e-14 9.96597719e-06]]",[-1.05587213e-04 -3.41460471e-08 -3.48707420e-04],0.0,0.0
1786957729.8640435,0.00010558405644088456,3.414502632812567e-08,0.00040306015418156704,"[9.96468103e-03 1.69288050e-11 0.00000000e+00 0.00000000e+00
 0.00000000e+00 5.70695543e-08 1.69288050e-11 9.96462558e-03
 0.00000000e+00 0.00000000e+00 0.00000000e+00 1.74228230e-11
 0.00000000e+00 0.00000000e+00 0.00000000e+00 0.00000000e+00
 0.00000000e+00 0.00000000e+00 0.00000000e+00 0.00000000e+00
 0.00000000e+00 0.00000000e+00 0.00000000e+00 0.00000000e+00
 0.00000000e+00 0.00000000e+00 0.00000000e+00 0.00000000e+00
 0.00000000e+00 0.00000000e+00 5.70695543e-08 1.74228230e-11
 0.00000000e+00 0.00000000e+00 0.00000000e+00 9.96578469e-03]","[[9.96468103e-06 1.69288050e-14 5.70695543e-11]
 [1.69288050e-14 9.96462558e-06 1.74228230e-14]
 [5.70695543e-11 1.74228230e-14 9.96578469e-06]]",[-1.05585109e-04 -3.41453666e-08 -4.03064171e-04],0.0,0.0
1786957729.914058,0.0001055809001177262,3.414400560060284e-08,0.0005298930364570076,"[9.96438362e-03 1.71295032e-11 0.00000000e+00 0.00000000e+00
 0.00000000e+00 5.75417294e-08 1.71295032e-11 9.96432771e-03
 0.00000000e+00 0.00000000e+00 0.00000000e+00 1.76293780e-11
 0.00000000e+00 0.00000000e+00 0.00000000e+00 0.00000000e+00
 0.00000000e+00 0.00000000e+00 0.00000000e+00 0.00000000e+00
 0.00000000e+00 0.00000000e+00 0.00000000e+00 0.00000000e+00
 0.00000000e+00 0.00000000e+00 0.00000000e+00 0.00000000e+00
 0.00000000e+00 0.00000000e+00 5.75417294e-08 1.76293780e-11
 0.00000000e+00 0.00000000e+00 0.00000000e+00 9.96549640e-03]","[[9.96438362e-06 1.71295032e-14 5.75417294e-11]
 [1.71295032e-14 9.96432771e-06 1.76293780e-14]
 [5.75417294e-11 1.76293780e-14 9.96549640e-06]]",[-1.05581952e-04 -3.41443458e-08 -5.29898317e-04],0.0,0.0
1786957729.9636958,0.00010557774394686727,3.4142984922710753e-08,0.0007900590869369672,"[9.96408620e-03 1.73965318e-11 0.00000000e+00 0.00000000e+00
 0.00000000e+00 5.79961018e-08 1.73965318e-11 9.96402985e-03
 0.00000000e+00 0.00000000e+00 0.00000000e+00 1.79041991e-11
 0.00000000e+00 0.00000000e+00 0.00000000e+00 0.00000000e+00
 0.00000000e+00 0.00000000e+00 0.00000000e+00 0.00000000e+00
 0.00000000e+00 0.00000000e+00 0.00000000e+00 0.00000000e+00
 0.00000000e+00 0.00000000e+00 0.00000000e+00 0.00000000e+00
 0.00000000e+00 0.00000000e+00 5.79961018e-08 1.79041991e-11
 0.00000000e+00 0.00000000e+00 0.00000000e+00 9.96520778e-03]","[[9.96418534e-06 1.72920939e-14 5.78403602e-11]
 [1.72920939e-14 9.96412914e-06 1.77967135e-14]
 [5.78403602e-11 1.77967135e-14 9.96530390e-06]]",[-1.05579848e-04 -3.41436654e-08 -6.87350140e-04],0.0,0.0
1786957730.014365,0.00010557563992143297,3.4142304499326564e-08,0.0008338388014221821,"[9.96388797e-03 1.76624971e-11 0.00000000e+00 0.00000000e+00
 0.00000000e+00 5.83362823e-08 1.76624971e-11 9.96383129e-03
 0.00000000e+00 0.00000000e+00 0.00000000e+00 1.81779258e-11
 0.00000000e+00 0.00000000e+00 0.00000000e+00 0.00000000e+00
 0.00000000e+00 0.00000000e+00 0.00000000e+00 0.00000000e+00
 0.00000000e+00 0.00000000e+00 0.00000000e+00 0.00000000e+00
 0.00000000e+00 0.00000000e+00 0.00000000e+00 0.00000000e+00
 0.00000000e+00 0.00000000e+00 5.83362823e-08 1.81779258e-11
 0.00000000e+00 0.00000000e+00 0.00000000e+00 9.96501613e-03]","[[9.96388797e-06 1.76624971e-14 5.83362823e-11]
 [1.76624971e-14 9.96383129e-06 1.81779258e-14]
 [5.83362823e-11 1.81779258e-14 9.96501613e-06]]",[-1.05576692e-04 -3.41426447e-08 -8.33847111e-04],0.0,0.0
