time,x,y,yaw,cov_prop,K_gain,innovation,v_ekf,omega_ekf
1787306851.6706624,0.3720572580103864,-0.9234399750782192,0.19527161474130678,"[ 2.69542685e-05 -3.26183953e-06  0.00000000e+00  0.00000000e+00
  0.00000000e+00 -2.88700860e-06 -3.26183953e-06  2.06012619e-05
  0.00000000e+00  0.00000000e+00  0.00000000e+00  4.03578099e-06
  0.00000000e+00  0.00000000e+00  0.00000000e+00  0.00000000e+00
  0.00000000e+00  0.00000000e+00  0.00000000e+00  0.00000000e+00
  0.00000000e+00  0.00000000e+00  0.00000000e+00  0.00000000e+00
  0.00000000e+00  0.00000000e+00  0.00000000e+00  0.00000000e+00
  0.00000000e+00  0.00000000e+00 -2.88700860e-06  4.03578099e-06
  0.00000000e+00  0.00000000e+00  0.00000000e+00  4.60080787e-06]","[[-0.00067822  0.00520598]
 [ 0.0001224  -0.01462155]]",[],0.0,0.0
1787306851.9482799,0.3720572580103864,-0.9234399750782192,0.19527161474130678,"[ 2.69542685e-05 -3.26183953e-06  0.00000000e+00  0.00000000e+00
  0.00000000e+00 -2.88700860e-06 -3.26183953e-06  2.06012619e-05
  0.00000000e+00  0.00000000e+00  0.00000000e+00  4.03578099e-06
  0.00000000e+00  0.00000000e+00  0.00000000e+00  0.00000000e+00
  0.00000000e+00  0.00000000e+00  0.00000000e+00  0.00000000e+00
  0.00000000e+00  0.00000000e+00  0.00000000e+00  0.00000000e+00
  0.00000000e+00  0.00000000e+00  0.00000000e+00  0.00000000e+00
  0.00000000e+00  0.00000000e+00 -2.88700860e-06  4.03578099e-06
  0.00000000e+00  0.00000000e+00  0.00000000e+00  4.60080787e-06]","[[-0.00067822  0.00520598]
 [ 0.0001224  -0.01462155]]",[],0.0,0.0
1787306851.9712703,0.3720572580103864,-0.9234399750782192,0.19527161474130678,"[ 2.69542685e-05 -3.26183953e-06  0.00000000e+00  0.00000000e+00
  0.00000000e+00 -2.88700860e-06 -3.26183953e-06  2.06012619e-05
  0.00000000e+00  0.00000000e+00  0.00000000e+00  4.03578099e-06
  0.00000000e+00  0.00000000e+00  0.00000000e+00  0.00000000e+00
  0.00000000e+00  0.00000000e+00  0.00000000e+00  0.00000000e+00
  0.00000000e+00  0.00000000e+00  0.00000000e+00  0.00000000e+00
  0.00000000e+00  0.00000000e+00  0.00000000e+00  0.00000000e+00
  0.00000000e+00  0.00000000e+00 -2.88700860e-06  4.03578099e-06
  0.00000000e+00  0.00000000e+00  0.00000000e+00  4.60080787e-06]","[[-0.00067822  0.00520598]
 [ 0.0001224  -0.01462155]]",[],0.0,0.0
1787306852.557735,0.3503628597487433,-0.917363507334699,0.18966153160928112,"[ 1.39428383e-05 -8.90566740e-07  0.00000000e+00  0.00000000e+00
  0.00000000e+00 -1.34429829e-06 -8.90566740e-07  9.69519899e-06
  0.00000000e+00  0.00000000e+00  0.00000000e+00  1.60025820e-06
  0.00000000e+00  0.00000000e+00  0.00000000e+00  0.00000000e+00
  0.00000000e+00  0.00000000e+00  0.00000000e+00  0.00000000e+00
  0.00000000e+00  0.00000000e+00  0.00000000e+00  0.00000000e+00
  0.00000000e+00  0.00000000e+00  0.00000000e+00  0.00000000e+00
  0.00000000e+00  0.00000000e+00 -1.34429829e-06  1.60025820e-06
  0.00000000e+00  0.00000000e+00  0.00000000e+00  3.09111522e-06]","[[-3.38383350e-04  3.59091141e-03]
 [-2.31058436e-05 -6.47426099e-03]]",[],0.0,0.0
1787306853.1320384,0.32939549374109817,-0.9161179131048961,0.1757596649277882,"[ 9.56698244e-06 -4.80569895e-07  0.00000000e+00  0.00000000e+00
  0.00000000e+00 -9.58135559e-07 -4.80569895e-07  6.39709016e-06
  0.00000000e+00  0.00000000e+00  0.00000000e+00  1.10317391e-06
  0.00000000e+00  0.00000000e+00  0.00000000e+00  0.00000000e+00
  0.00000000e+00  0.00000000e+00  0.00000000e+00  0.00000000e+00
  0.00000000e+00  0.00000000e+00  0.00000000e+00  0.00000000e+00
  0.00000000e+00  0.00000000e+00  0.00000000e+00  0.00000000e+00
  0.00000000e+00  0.00000000e+00 -9.58135559e-07  1.10317391e-06
  0.00000000e+00  0.00000000e+00  0.00000000e+00  3.00422411e-06]","[[-2.32922570e-04  2.45943997e-03]
 [-1.74966717e-05 -4.33079818e-03]]",[],0.0,0.0
1787306853.4922922,0.3193685303902012,-0.9140786484378155,0.16550096952965185,"[ 7.30159478e-06 -3.20337269e-07  0.00000000e+00  0.00000000e+00
  0.00000000e+00 -6.20662349e-07 -3.20337269e-07  4.74014752e-06
  0.00000000e+00  0.00000000e+00  0.00000000e+00  7.64322057e-07
  0.00000000e+00  0.00000000e+00  0.00000000e+00  0.00000000e+00
  0.00000000e+00  0.00000000e+00  0.00000000e+00  0.00000000e+00
  0.00000000e+00  0.00000000e+00  0.00000000e+00  0.00000000e+00
  0.00000000e+00  0.00000000e+00  0.00000000e+00  0.00000000e+00
  0.00000000e+00  0.00000000e+00 -6.20662349e-07  7.64322057e-07
  0.00000000e+00  0.00000000e+00  0.00000000e+00  2.77827787e-06]","[[-1.78030434e-04  1.66973259e-03]
 [-1.37022264e-05 -3.10995045e-03]]",[],0.0,0.0
1787306853.7489119,0.3193685303902012,-0.9140786484378155,0.16550096952965185,"[ 7.30159478e-06 -3.20337269e-07  0.00000000e+00  0.00000000e+00
  0.00000000e+00 -6.20662349e-07 -3.20337269e-07  4.74014752e-06
  0.00000000e+00  0.00000000e+00  0.00000000e+00  7.64322057e-07
  0.00000000e+00  0.00000000e+00  0.00000000e+00  0.00000000e+00
  0.00000000e+00  0.00000000e+00  0.00000000e+00  0.00000000e+00
  0.00000000e+00  0.00000000e+00  0.00000000e+00  0.00000000e+00
  0.00000000e+00  0.00000000e+00  0.00000000e+00  0.00000000e+00
  0.00000000e+00  0.00000000e+00 -6.20662349e-07  7.64322057e-07
  0.00000000e+00  0.00000000e+00  0.00000000e+00  2.77827787e-06]","[[-1.78030434e-04  1.66973259e-03]
 [-1.37022264e-05 -3.10995045e-03]]",[],0.0,0.0
1787306854.0373926,0.3111685020180905,-0.9143675756831459,0.1489726379292713,"[ 5.90006768e-06 -2.27296035e-07  0.00000000e+00  0.00000000e+00
  0.00000000e+00 -4.73170579e-07 -2.27296035e-07  3.78662438e-06
  0.00000000e+00  0.00000000e+00  0.00000000e+00  6.38464019e-07
  0.00000000e+00  0.00000000e+00  0.00000000e+00  0.00000000e+00
  0.00000000e+00  0.00000000e+00  0.00000000e+00  0.00000000e+00
  0.00000000e+00  0.00000000e+00  0.00000000e+00  0.00000000e+00
  0.00000000e+00  0.00000000e+00  0.00000000e+00  0.00000000e+00
  0.00000000e+00  0.00000000e+00 -4.73170579e-07  6.38464019e-07
  0.00000000e+00  0.00000000e+00  0.00000000e+00  2.74390870e-06]","[[-1.46071089e-04  1.11834901e-03]
 [-4.37198042e-06 -2.55156303e-03]]",[],0.0,0.0
1787306854.2890623,0.3111685020180905,-0.9143675756831459,0.1489726379292713,"[ 5.90006768e-06 -2.27296035e-07  0.00000000e+00  0.00000000e+00
  0.00000000e+00 -4.73170579e-07 -2.27296035e-07  3.78662438e-06
  0.00000000e+00  0.00000000e+00  0.00000000e+00  6.38464019e-07
  0.00000000e+00  0.00000000e+00  0.00000000e+00  0.00000000e+00
  0.00000000e+00  0.00000000e+00  0.00000000e+00  0.00000000e+00
  0.00000000e+00  0.00000000e+00  0.00000000e+00  0.00000000e+00
  0.00000000e+00  0.00000000e+00  0.00000000e+00  0.00000000e+00
  0.00000000e+00  0.00000000e+00 -4.73170579e-07  6.38464019e-07
  0.00000000e+00  0.00000000e+00  0.00000000e+00  2.74390870e-06]","[[-1.46071089e-04  1.11834901e-03]
 [-4.37198042e-06 -2.55156303e-03]]",[],0.0,0.0
1787306854.3708372,0.2982453237440464,-0.9167876996541319,0.13449620288182773,"[ 5.03971011e-06 -1.80371507e-07  0.00000000e+00  0.00000000e+00
  0.00000000e+00 -3.53891803e-07 -1.80371507e-07  3.16652037e-06
  0.00000000e+00  0.00000000e+00  0.00000000e+00  5.39432984e-07
  0.00000000e+00  0.00000000e+00  0.00000000e+00  0.00000000e+00
  0.00000000e+00  0.00000000e+00  0.00000000e+00  0.00000000e+00
  0.00000000e+00  0.00000000e+00  0.00000000e+00  0.00000000e+00
  0.00000000e+00  0.00000000e+00  0.00000000e+00  0.00000000e+00
  0.00000000e+00  0.00000000e+00 -3.53891803e-07  5.39432984e-07
  0.00000000e+00  0.00000000e+00  0.00000000e+00  2.76878908e-06]","[[-1.25156975e-04  8.23818017e-04]
 [-2.21769500e-06 -2.13795957e-03]]",[],0.0,0.0
1787306854.8824444,0.2982453237440464,-0.9167876996541319,0.13449620288182773,"[ 5.03971011e-06 -1.80371507e-07  0.00000000e+00  0.00000000e+00
  0.00000000e+00 -3.53891803e-07 -1.80371507e-07  3.16652037e-06
  0.00000000e+00  0.00000000e+00  0.00000000e+00  5.39432984e-07
  0.00000000e+00  0.00000000e+00  0.00000000e+00  0.00000000e+00
  0.00000000e+00  0.00000000e+00  0.00000000e+00  0.00000000e+00
  0.00000000e+00  0.00000000e+00  0.00000000e+00  0.00000000e+00
  0.00000000e+00  0.00000000e+00  0.00000000e+00  0.00000000e+00
  0.00000000e+00  0.00000000e+00 -3.53891803e-07  5.39432984e-07
  0.00000000e+00  0.00000000e+00  0.00000000e+00  2.76878908e-06]","[[-1.25156975e-04  8.23818017e-04]
 [-2.21769500e-06 -2.13795957e-03]]",[],0.0,0.0
1787306854.9505525,0.29082513437444696,-0.919155252105971,0.12043434298775235,"[ 4.38607587e-06 -1.47810244e-07  0.00000000e+00  0.00000000e+00
  0.00000000e+00 -3.06174241e-07 -1.47810244e-07  2.71695125e-06
  0.00000000e+00  0.00000000e+00  0.00000000e+00  4.71965183e-07
  0.00000000e+00  0.00000000e+00  0.00000000e+00  0.00000000e+00
  0.00000000e+00  0.00000000e+00  0.00000000e+00  0.00000000e+00
  0.00000000e+00  0.00000000e+00  0.00000000e+00  0.00000000e+00
  0.00000000e+00  0.00000000e+00  0.00000000e+00  0.00000000e+00
  0.00000000e+00  0.00000000e+00 -3.06174241e-07  4.71965183e-07
  0.00000000e+00  0.00000000e+00  0.00000000e+00  2.74052074e-06]","[[-1.08939896e-04  7.10273742e-04]
 [-2.09722171e-06 -1.84595053e-03]]",[],0.0,0.0
1787306855.4810078,0.29082513437444696,-0.919155252105971,0.12043434298775235,"[ 4.38607587e-06 -1.47810244e-07  0.00000000e+00  0.00000000e+00
  0.00000000e+00 -3.06174241e-07 -1.47810244e-07  2.71695125e-06
  0.00000000e+00  0.00000000e+00  0.00000000e+00  4.71965183e-07
  0.00000000e+00  0.00000000e+00  0.00000000e+00  0.00000000e+00
  0.00000000e+00  0.00000000e+00  0.00000000e+00  0.00000000e+00
  0.00000000e+00  0.00000000e+00  0.00000000e+00  0.00000000e+00
  0.00000000e+00  0.00000000e+00  0.00000000e+00  0.00000000e+00
  0.00000000e+00  0.00000000e+00 -3.06174241e-07  4.71965183e-07
  0.00000000e+00  0.00000000e+00  0.00000000e+00  2.74052074e-06]","[[-1.08939896e-04  7.10273742e-04]
 [-2.09722171e-06 -1.84595053e-03]]",[],0.0,0.0
1787306856.0756252,0.2807237227855708,-0.9208911429960634,0.10848559418935991,"[ 3.96050762e-06 -1.22323724e-07  0.00000000e+00  0.00000000e+00
  0.00000000e+00 -2.47164622e-07 -1.22323724e-07  2.37760044e-06
  0.00000000e+00  0.00000000e+00  0.00000000e+00  4.14659677e-07
  0.00000000e+00  0.00000000e+00  0.00000000e+00  0.00000000e+00
  0.00000000e+00  0.00000000e+00  0.00000000e+00  0.00000000e+00
  0.00000000e+00  0.00000000e+00  0.00000000e+00  0.00000000e+00
  0.00000000e+00  0.00000000e+00  0.00000000e+00  0.00000000e+00
  0.00000000e+00  0.00000000e+00 -2.47164622e-07  4.14659677e-07
  0.00000000e+00  0.00000000e+00  0.00000000e+00  2.86999553e-06]","[[-9.86870702e-05  5.43713123e-04]
 [-2.68373327e-07 -1.62096132e-03]]",[],0.0,0.0
1787306856.1692996,0.2735718562910944,-0.92117077913729,0.10636987419400998,"[ 3.60412894e-06 -1.05146358e-07  0.00000000e+00  0.00000000e+00
  0.00000000e+00 -2.10997866e-07 -1.05146358e-07  2.11252665e-06
  0.00000000e+00  0.00000000e+00  0.00000000e+00  3.71578975e-07
  0.00000000e+00  0.00000000e+00  0.00000000e+00  0.00000000e+00
  0.00000000e+00  0.00000000e+00  0.00000000e+00  0.00000000e+00
  0.00000000e+00  0.00000000e+00  0.00000000e+00  0.00000000e+00
  0.00000000e+00  0.00000000e+00  0.00000000e+00  0.00000000e+00
  0.00000000e+00  0.00000000e+00 -2.10997866e-07  3.71578975e-07
  0.00000000e+00  0.00000000e+00  0.00000000e+00  2.73398629e-06]","[[-8.99844523e-05  4.32596350e-04]
 [ 1.04947472e-06 -1.44550736e-03]]",[],0.0,0.0
1787306856.5942042,0.2735718562910944,-0.92117077913729,0.10636987419400998,"[ 3.60412894e-06 -1.05146358e-07  0.00000000e+00  0.00000000e+00
  0.00000000e+00 -2.10997866e-07 -1.05146358e-07  2.11252665e-06
  0.00000000e+00  0.00000000e+00  0.00000000e+00  3.71578975e-07
  0.00000000e+00  0.00000000e+00  0.00000000e+00  0.00000000e+00
  0.00000000e+00  0.00000000e+00  0.00000000e+00  0.00000000e+00
  0.00000000e+00  0.00000000e+00  0.00000000e+00  0.00000000e+00
  0.00000000e+00  0.00000000e+00  0.00000000e+00  0.00000000e+00
  0.00000000e+00  0.00000000e+00 -2.10997866e-07  3.71578975e-07
  0.00000000e+00  0.00000000e+00  0.00000000e+00  2.73398629e-06]","[[-8.99844523e-05  4.32596350e-04]
 [ 1.04947472e-06 -1.44550736e-03]]",[],0.0,0.0
1787306856.719858,0.26844348769321147,-0.9231126523735791,0.09109484362055431,"[ 3.26244104e-06 -9.19785411e-08  0.00000000e+00  0.00000000e+00
  0.00000000e+00 -1.94174895e-07 -9.19785411e-08  1.89990815e-06
  0.00000000e+00  0.00000000e+00  0.00000000e+00  3.38700392e-07
  0.00000000e+00  0.00000000e+00  0.00000000e+00  0.00000000e+00
  0.00000000e+00  0.00000000e+00  0.00000000e+00  0.00000000e+00
  0.00000000e+00  0.00000000e+00  0.00000000e+00  0.00000000e+00
  0.00000000e+00  0.00000000e+00  0.00000000e+00  0.00000000e+00
  0.00000000e+00  0.00000000e+00 -1.94174895e-07  3.38700392e-07
  0.00000000e+00  0.00000000e+00  0.00000000e+00  2.53884405e-06]","[[-8.11381363e-05  4.56267266e-04]
 [-1.38507116e-06 -1.30628225e-03]]",[],0.0,0.0
1787306857.1688645,0.26844348769321147,-0.9231126523735791,0.09109484362055431,"[ 3.26244104e-06 -9.19785411e-08  0.00000000e+00  0.00000000e+00
  0.00000000e+00 -1.94174895e-07 -9.19785411e-08  1.89990815e-06
  0.00000000e+00  0.00000000e+00  0.00000000e+00  3.38700392e-07
  0.00000000e+00  0.00000000e+00  0.00000000e+00  0.00000000e+00
  0.00000000e+00  0.00000000e+00  0.00000000e+00  0.00000000e+00
  0.00000000e+00  0.00000000e+00  0.00000000e+00  0.00000000e+00
  0.00000000e+00  0.00000000e+00  0.00000000e+00  0.00000000e+00
  0.00000000e+00  0.00000000e+00 -1.94174895e-07  3.38700392e-07
  0.00000000e+00  0.00000000e+00  0.00000000e+00  2.53884405e-06]","[[-8.11381363e-05  4.56267266e-04]
 [-1.38507116e-06 -1.30628225e-03]]",[],0.0,0.0
1787306857.378201,0.26366066389195913,-0.9249647588302786,0.08461406353467595,"[ 3.02183577e-06 -8.68292867e-08  0.00000000e+00  0.00000000e+00
  0.00000000e+00 -1.92757321e-07 -8.68292867e-08  1.72772040e-06
  0.00000000e+00  0.00000000e+00  0.00000000e+00  3.11002842e-07
  0.00000000e+00  0.00000000e+00  0.00000000e+00  0.00000000e+00
  0.00000000e+00  0.00000000e+00  0.00000000e+00  0.00000000e+00
  0.00000000e+00  0.00000000e+00  0.00000000e+00  0.00000000e+00
  0.00000000e+00  0.00000000e+00  0.00000000e+00  0.00000000e+00
  0.00000000e+00  0.00000000e+00 -1.92757321e-07  3.11002842e-07
  0.00000000e+00  0.00000000e+00  0.00000000e+00  2.69266321e-06]","[[-7.53953230e-05  4.01041962e-04]
 [ 4.14062982e-07 -1.19321020e-03]]",[],0.0,0.0
1787306857.5949988,0.26366066389195913,-0.9249647588302786,0.08461406353467595,"[ 3.02183577e-06 -8.68292867e-08  0.00000000e+00  0.00000000e+00
  0.00000000e+00 -1.92757321e-07 -8.68292867e-08  1.72772040e-06
  0.00000000e+00  0.00000000e+00  0.00000000e+00  3.11002842e-07
  0.00000000e+00  0.00000000e+00  0.00000000e+00  0.00000000e+00
  0.00000000e+00  0.00000000e+00  0.00000000e+00  0.00000000e+00
  0.00000000e+00  0.00000000e+00  0.00000000e+00  0.00000000e+00
  0.00000000e+00  0.00000000e+00  0.00000000e+00  0.00000000e+00
  0.00000000e+00  0.00000000e+00 -1.92757321e-07  3.11002842e-07
  0.00000000e+00  0.00000000e+00  0.00000000e+00  2.69266321e-06]","[[-7.53953230e-05  4.01041962e-04]
 [ 4.14062982e-07 -1.19321020e-03]]",[],0.0,0.0
1787306857.996611,0.2553309386123373,-0.926358099565941,0.07226514237759663,"[ 2.80831006e-06 -8.39168369e-08  0.00000000e+00  0.00000000e+00
  0.00000000e+00 -1.57347884e-07 -8.39168369e-08  1.58619538e-06
  0.00000000e+00  0.00000000e+00  0.00000000e+00  2.98729757e-07
  0.00000000e+00  0.00000000e+00  0.00000000e+00  0.00000000e+00
  0.00000000e+00  0.00000000e+00  0.00000000e+00  0.00000000e+00
  0.00000000e+00  0.00000000e+00  0.00000000e+00  0.00000000e+00
  0.00000000e+00  0.00000000e+00  0.00000000e+00  0.00000000e+00
  0.00000000e+00  0.00000000e+00 -1.57347884e-07  2.98729757e-07
  0.00000000e+00  0.00000000e+00  0.00000000e+00  2.50683362e-06]","[[-6.98534359e-05  3.75489928e-04]
 [-8.77967993e-07 -1.11652388e-03]]",[],0.0,0.0
1787306858.3504453,0.24783029366628898,-0.9278714844054476,0.062488563510499695,"[ 2.60095040e-06 -8.47937223e-08  0.00000000e+00  0.00000000e+00
  0.00000000e+00 -1.50726756e-07 -8.47937223e-08  1.46209131e-06
  0.00000000e+00  0.00000000e+00  0.00000000e+00  2.57976004e-07
  0.00000000e+00  0.00000000e+00  0.00000000e+00  0.00000000e+00
  0.00000000e+00  0.00000000e+00  0.00000000e+00  0.00000000e+00
  0.00000000e+00  0.00000000e+00  0.00000000e+00  0.00000000e+00
  0.00000000e+00  0.00000000e+00  0.00000000e+00  0.00000000e+00
  0.00000000e+00  0.00000000e+00 -1.50726756e-07  2.57976004e-07
  0.00000000e+00  0.00000000e+00  0.00000000e+00  2.34170848e-06]","[[-6.50284445e-05  2.80245818e-04]
 [ 2.20355264e-06 -1.00052817e-03]]",[],0.0,0.0
1787306858.3724072,0.24171283604485402,-0.9292985033187318,0.053273214660260144,"[ 2.44516179e-06 -8.47236859e-08  0.00000000e+00  0.00000000e+00
  0.00000000e+00 -1.18444441e-07 -8.47236859e-08  1.35948894e-06
  0.00000000e+00  0.00000000e+00  0.00000000e+00  2.48122723e-07
  0.00000000e+00  0.00000000e+00  0.00000000e+00  0.00000000e+00
  0.00000000e+00  0.00000000e+00  0.00000000e+00  0.00000000e+00
  0.00000000e+00  0.00000000e+00  0.00000000e+00  0.00000000e+00
  0.00000000e+00  0.00000000e+00  0.00000000e+00  0.00000000e+00
  0.00000000e+00  0.00000000e+00 -1.18444441e-07  2.48122723e-07
  0.00000000e+00  0.00000000e+00  0.00000000e+00  2.31648823e-06]","[[-6.09830933e-05  2.69939139e-04]
 [ 6.66667163e-07 -9.44052847e-04]]",[],0.0,0.0
1787306858.7923458,0.24171283604485402,-0.9292985033187318,0.053273214660260144,"[ 2.44516179e-06 -8.47236859e-08  0.00000000e+00  0.00000000e+00
  0.00000000e+00 -1.18444441e-07 -8.47236859e-08  1.35948894e-06
  0.00000000e+00  0.00000000e+00  0.00000000e+00  2.48122723e-07
  0.00000000e+00  0.00000000e+00  0.00000000e+00  0.00000000e+00
  0.00000000e+00  0.00000000e+00  0.00000000e+00  0.00000000e+00
  0.00000000e+00  0.00000000e+00  0.00000000e+00  0.00000000e+00
  0.00000000e+00  0.00000000e+00  0.00000000e+00  0.00000000e+00
  0.00000000e+00  0.00000000e+00 -1.18444441e-07  2.48122723e-07
  0.00000000e+00  0.00000000e+00  0.00000000e+00  2.31648823e-06]","[[-6.09830933e-05  2.69939139e-04]
 [ 6.66667163e-07 -9.44052847e-04]]",[],0.0,0.0
1787306859.432689,0.23650568049133422,-0.9308652366033152,0.04595837287631355,"[ 2.30464782e-06 -8.08991376e-08  0.00000000e+00  0.00000000e+00
  0.00000000e+00 -1.43411495e-07 -8.08991376e-08  1.27264654e-06
  0.00000000e+00  0.00000000e+00  0.00000000e+00  2.35238981e-07
  0.00000000e+00  0.00000000e+00  0.00000000e+00  0.00000000e+00
  0.00000000e+00  0.00000000e+00  0.00000000e+00  0.00000000e+00
  0.00000000e+00  0.00000000e+00  0.00000000e+00  0.00000000e+00
  0.00000000e+00  0.00000000e+00  0.00000000e+00  0.00000000e+00
  0.00000000e+00  0.00000000e+00 -1.43411495e-07  2.35238981e-07
  0.00000000e+00  0.00000000e+00  0.00000000e+00  2.44166085e-06]","[[-5.76165509e-05  2.68712721e-04]
 [ 2.02808151e-06 -8.87301506e-04]]",[],0.0,0.0
1787306860.0174425,0.2271214230470477,-0.9334422732077335,0.02413934191130717,"[ 2.26411624e-06 -7.36793960e-08  0.00000000e+00  0.00000000e+00
  0.00000000e+00 -8.26211133e-08 -7.36793960e-08  1.19664171e-06
  0.00000000e+00  0.00000000e+00  0.00000000e+00  2.12975171e-07
  0.00000000e+00  0.00000000e+00  0.00000000e+00  0.00000000e+00
  0.00000000e+00  0.00000000e+00  0.00000000e+00  0.00000000e+00
  0.00000000e+00  0.00000000e+00  0.00000000e+00  0.00000000e+00
  0.00000000e+00  0.00000000e+00  0.00000000e+00  0.00000000e+00
  0.00000000e+00  0.00000000e+00 -8.26211133e-08  2.12975171e-07
  0.00000000e+00  0.00000000e+00  0.00000000e+00  2.82297226e-06]","[[-5.66130773e-05  1.60111887e-04]
 [ 2.02420300e-06 -8.20815129e-04]]",[],0.0,0.0
1787306860.6419156,0.2199371150584371,-0.93551553613387,0.002245380343386394,"[ 2.19801273e-06 -7.11932325e-08  0.00000000e+00  0.00000000e+00
  0.00000000e+00 -9.00870099e-08 -7.11932325e-08  1.13065884e-06
  0.00000000e+00  0.00000000e+00  0.00000000e+00  1.92030759e-07
  0.00000000e+00  0.00000000e+00  0.00000000e+00  0.00000000e+00
  0.00000000e+00  0.00000000e+00  0.00000000e+00  0.00000000e+00
  0.00000000e+00  0.00000000e+00  0.00000000e+00  0.00000000e+00
  0.00000000e+00  0.00000000e+00  0.00000000e+00  0.00000000e+00
  0.00000000e+00  0.00000000e+00 -9.00870099e-08  1.92030759e-07
  0.00000000e+00  0.00000000e+00  0.00000000e+00  2.64841964e-06]","[[-5.49364675e-05  1.82967876e-04]
 [ 1.58132654e-06 -7.61132670e-04]]",[],0.0,0.0
1787306861.305962,0.21221082959830206,-0.9378854473589137,-0.019201727339301474,"[ 2.15752312e-06 -7.28959968e-08  0.00000000e+00  0.00000000e+00
  0.00000000e+00 -9.74322030e-08 -7.28959968e-08  1.07096376e-06
  0.00000000e+00  0.00000000e+00  0.00000000e+00  1.98648670e-07
  0.00000000e+00  0.00000000e+00  0.00000000e+00  0.00000000e+00
  0.00000000e+00  0.00000000e+00  0.00000000e+00  0.00000000e+00
  0.00000000e+00  0.00000000e+00  0.00000000e+00  0.00000000e+00
  0.00000000e+00  0.00000000e+00  0.00000000e+00  0.00000000e+00
  0.00000000e+00  0.00000000e+00 -9.74322030e-08  1.98648670e-07
  0.00000000e+00  0.00000000e+00  0.00000000e+00  2.80058188e-06]","[[-5.38826074e-05  1.13315974e-04]
 [ 4.22983578e-06 -7.44202567e-04]]",[],0.0,0.0
1787306861.3160245,0.20346761057188084,-0.9394052435341285,-0.037724265002728075,"[ 2.13636384e-06 -8.08950709e-08  0.00000000e+00  0.00000000e+00
  0.00000000e+00 -6.32194232e-08 -8.08950709e-08  1.01616169e-06
  0.00000000e+00  0.00000000e+00  0.00000000e+00  1.72597736e-07
  0.00000000e+00  0.00000000e+00  0.00000000e+00  0.00000000e+00
  0.00000000e+00  0.00000000e+00  0.00000000e+00  0.00000000e+00
  0.00000000e+00  0.00000000e+00  0.00000000e+00  0.00000000e+00
  0.00000000e+00  0.00000000e+00  0.00000000e+00  0.00000000e+00
  0.00000000e+00  0.00000000e+00 -6.32194232e-08  1.72597736e-07
  0.00000000e+00  0.00000000e+00  0.00000000e+00  2.82353054e-06]","[[-5.33758321e-05  6.12829174e-05]
 [ 4.28725410e-06 -6.78782336e-04]]",[],0.0,0.0
1787306861.8118513,0.20346761057188084,-0.9394052435341285,-0.037724265002728075,"[ 2.13636384e-06 -8.08950709e-08  0.00000000e+00  0.00000000e+00
  0.00000000e+00 -6.32194232e-08 -8.08950709e-08  1.01616169e-06
  0.00000000e+00  0.00000000e+00  0.00000000e+00  1.72597736e-07
  0.00000000e+00  0.00000000e+00  0.00000000e+00  0.00000000e+00
  0.00000000e+00  0.00000000e+00  0.00000000e+00  0.00000000e+00
  0.00000000e+00  0.00000000e+00  0.00000000e+00  0.00000000e+00
  0.00000000e+00  0.00000000e+00  0.00000000e+00  0.00000000e+00
  0.00000000e+00  0.00000000e+00 -6.32194232e-08  1.72597736e-07
  0.00000000e+00  0.00000000e+00  0.00000000e+00  2.82353054e-06]","[[-5.33758321e-05  6.12829174e-05]
 [ 4.28725410e-06 -6.78782336e-04]]",[],0.0,0.0
1787306862.003405,0.1958870700194862,-0.9410426740740041,-0.056214839064017585,"[ 2.05409965e-06 -8.69843172e-08  0.00000000e+00  0.00000000e+00
  0.00000000e+00 -7.81205202e-08 -8.69843172e-08  9.67369400e-07
  0.00000000e+00  0.00000000e+00  0.00000000e+00  1.66613912e-07
  0.00000000e+00  0.00000000e+00  0.00000000e+00  0.00000000e+00
  0.00000000e+00  0.00000000e+00  0.00000000e+00  0.00000000e+00
  0.00000000e+00  0.00000000e+00  0.00000000e+00  0.00000000e+00
  0.00000000e+00  0.00000000e+00  0.00000000e+00  0.00000000e+00
  0.00000000e+00  0.00000000e+00 -7.81205202e-08  1.66613912e-07
  0.00000000e+00  0.00000000e+00  0.00000000e+00  2.56516803e-06]","[[-5.13114019e-05  8.22916796e-05]
 [ 4.59126889e-06 -6.49579065e-04]]",[],0.0,0.0
1787306862.3518517,0.1958870700194862,-0.9410426740740041,-0.056214839064017585,"[ 2.05409965e-06 -8.69843172e-08  0.00000000e+00  0.00000000e+00
  0.00000000e+00 -7.81205202e-08 -8.69843172e-08  9.67369400e-07
  0.00000000e+00  0.00000000e+00  0.00000000e+00  1.66613912e-07
  0.00000000e+00  0.00000000e+00  0.00000000e+00  0.00000000e+00
  0.00000000e+00  0.00000000e+00  0.00000000e+00  0.00000000e+00
  0.00000000e+00  0.00000000e+00  0.00000000e+00  0.00000000e+00
  0.00000000e+00  0.00000000e+00  0.00000000e+00  0.00000000e+00
  0.00000000e+00  0.00000000e+00 -7.81205202e-08  1.66613912e-07
  0.00000000e+00  0.00000000e+00  0.00000000e+00  2.56516803e-06]","[[-5.13114019e-05  8.22916796e-05]
 [ 4.59126889e-06 -6.49579065e-04]]",[],0.0,0.0
1787306862.729732,0.19162587058634697,-0.9421753333467089,-0.0705287752924897,"[ 2.00203582e-06 -9.26719629e-08  0.00000000e+00  0.00000000e+00
  0.00000000e+00 -6.70941144e-08 -9.26719629e-08  9.24272206e-07
  0.00000000e+00  0.00000000e+00  0.00000000e+00  1.60980280e-07
  0.00000000e+00  0.00000000e+00  0.00000000e+00  0.00000000e+00
  0.00000000e+00  0.00000000e+00  0.00000000e+00  0.00000000e+00
  0.00000000e+00  0.00000000e+00  0.00000000e+00  0.00000000e+00
  0.00000000e+00  0.00000000e+00  0.00000000e+00  0.00000000e+00
  0.00000000e+00  0.00000000e+00 -6.70941144e-08  1.60980280e-07
  0.00000000e+00  0.00000000e+00  0.00000000e+00  2.60503948e-06]","[[-5.00597709e-05  7.79627038e-05]
 [ 4.35019021e-06 -6.22061327e-04]]",[],0.0,0.0
1787306863.2010338,0.18745212962679483,-0.9432338687340968,-0.07852044030018489,"[ 1.90787007e-06 -9.69072702e-08  0.00000000e+00  0.00000000e+00
  0.00000000e+00 -5.91819220e-08 -9.69072702e-08  8.83792602e-07
  0.00000000e+00  0.00000000e+00  0.00000000e+00  1.62878794e-07
  0.00000000e+00  0.00000000e+00  0.00000000e+00  0.00000000e+00
  0.00000000e+00  0.00000000e+00  0.00000000e+00  0.00000000e+00
  0.00000000e+00  0.00000000e+00  0.00000000e+00  0.00000000e+00
  0.00000000e+00  0.00000000e+00  0.00000000e+00  0.00000000e+00
  0.00000000e+00  0.00000000e+00 -5.91819220e-08  1.62878794e-07
  0.00000000e+00  0.00000000e+00  0.00000000e+00  2.27245212e-06]","[[-4.76550195e-05  4.87221543e-05]
 [ 4.97466905e-06 -6.08778618e-04]]",[],0.0,0.0
1787306863.5415866,0.1847095773036389,-0.9437248844333874,-0.0840488018732799,"[ 1.84825190e-06 -1.02456394e-07  0.00000000e+00  0.00000000e+00
  0.00000000e+00 -5.54584574e-08 -1.02456394e-07  8.47472335e-07
  0.00000000e+00  0.00000000e+00  0.00000000e+00  1.49755550e-07
  0.00000000e+00  0.00000000e+00  0.00000000e+00  0.00000000e+00
  0.00000000e+00  0.00000000e+00  0.00000000e+00  0.00000000e+00
  0.00000000e+00  0.00000000e+00  0.00000000e+00  0.00000000e+00
  0.00000000e+00  0.00000000e+00  0.00000000e+00  0.00000000e+00
  0.00000000e+00  0.00000000e+00 -5.54584574e-08  1.49755550e-07
  0.00000000e+00  0.00000000e+00  0.00000000e+00  2.43595977e-06]","[[-4.60959644e-05  2.76293180e-05]
 [ 5.57357070e-06 -5.70380741e-04]]",[],0.0,0.0
1787306864.113453,0.1809683652178589,-0.9441525516860398,-0.08930295182347958,"[ 1.76274549e-06 -1.03100808e-07  0.00000000e+00  0.00000000e+00
  0.00000000e+00 -6.56577557e-08 -1.03100808e-07  8.14201996e-07
  0.00000000e+00  0.00000000e+00  0.00000000e+00  1.47365748e-07
  0.00000000e+00  0.00000000e+00  0.00000000e+00  0.00000000e+00
  0.00000000e+00  0.00000000e+00  0.00000000e+00  0.00000000e+00
  0.00000000e+00  0.00000000e+00  0.00000000e+00  0.00000000e+00
  0.00000000e+00  0.00000000e+00  0.00000000e+00  0.00000000e+00
  0.00000000e+00  0.00000000e+00 -6.56577557e-08  1.47365748e-07
  0.00000000e+00  0.00000000e+00  0.00000000e+00  2.14585819e-06]","[[-4.39834979e-05  4.97311470e-05]
 [ 5.46610822e-06 -5.53321819e-04]]",[],0.0,0.0
1787306864.695005,0.17762016499913208,-0.9448020741766537,-0.10000926165315693,"[ 1.75053632e-06 -1.10143675e-07  0.00000000e+00  0.00000000e+00
  0.00000000e+00 -4.46851352e-08 -1.10143675e-07  7.83688054e-07
  0.00000000e+00  0.00000000e+00  0.00000000e+00  1.40066802e-07
  0.00000000e+00  0.00000000e+00  0.00000000e+00  0.00000000e+00
  0.00000000e+00  0.00000000e+00  0.00000000e+00  0.00000000e+00
  0.00000000e+00  0.00000000e+00  0.00000000e+00  0.00000000e+00
  0.00000000e+00  0.00000000e+00  0.00000000e+00  0.00000000e+00
  0.00000000e+00  0.00000000e+00 -4.46851352e-08  1.40066802e-07
  0.00000000e+00  0.00000000e+00  0.00000000e+00  2.55174111e-06]","[[-4.37074333e-05  1.86576349e-05]
 [ 5.52680603e-06 -5.28799561e-04]]",[],0.0,0.0
1787306865.1780539,0.17479154672728042,-0.9452765278060279,-0.1066511381102244,"[ 1.75041345e-06 -1.18829012e-07  0.00000000e+00  0.00000000e+00
  0.00000000e+00 -3.46416574e-08 -1.18829012e-07  7.56267798e-07
  0.00000000e+00  0.00000000e+00  0.00000000e+00  1.27965415e-07
  0.00000000e+00  0.00000000e+00  0.00000000e+00  0.00000000e+00
  0.00000000e+00  0.00000000e+00  0.00000000e+00  0.00000000e+00
  0.00000000e+00  0.00000000e+00  0.00000000e+00  0.00000000e+00
  0.00000000e+00  0.00000000e+00  0.00000000e+00  0.00000000e+00
  0.00000000e+00  0.00000000e+00 -3.46416574e-08  1.27965415e-07
  0.00000000e+00  0.00000000e+00  0.00000000e+00  2.61849080e-06]","[[-4.36412462e-05 -1.13702506e-05]
 [ 6.08919969e-06 -4.95740304e-04]]",[],0.0,0.0
1787306865.6794188,0.17300374668242444,-0.9456900693699316,-0.1102934076054911,"[ 1.71783041e-06 -1.24012859e-07  0.00000000e+00  0.00000000e+00
  0.00000000e+00 -4.70363373e-08 -1.24012859e-07  7.29559723e-07
  0.00000000e+00  0.00000000e+00  0.00000000e+00  1.28899845e-07
  0.00000000e+00  0.00000000e+00  0.00000000e+00  0.00000000e+00
  0.00000000e+00  0.00000000e+00  0.00000000e+00  0.00000000e+00
  0.00000000e+00  0.00000000e+00  0.00000000e+00  0.00000000e+00
  0.00000000e+00  0.00000000e+00  0.00000000e+00  0.00000000e+00
  0.00000000e+00  0.00000000e+00 -4.70363373e-08  1.28899845e-07
  0.00000000e+00  0.00000000e+00  0.00000000e+00  2.43734545e-06]","[[-4.28366937e-05  9.55469010e-06]
 [ 6.20044976e-06 -4.86322256e-04]]",[],0.0,0.0
1787306865.7137785,0.16975721644317504,-0.9461726528002593,-0.11624034206204215,"[ 1.69077276e-06 -1.30598196e-07  0.00000000e+00  0.00000000e+00
  0.00000000e+00 -5.05833777e-08 -1.30598196e-07  7.05426719e-07
  0.00000000e+00  0.00000000e+00  0.00000000e+00  1.20023968e-07
  0.00000000e+00  0.00000000e+00  0.00000000e+00  0.00000000e+00
  0.00000000e+00  0.00000000e+00  0.00000000e+00  0.00000000e+00
  0.00000000e+00  0.00000000e+00  0.00000000e+00  0.00000000e+00
  0.00000000e+00  0.00000000e+00  0.00000000e+00  0.00000000e+00
  0.00000000e+00  0.00000000e+00 -5.05833777e-08  1.20023968e-07
  0.00000000e+00  0.00000000e+00  0.00000000e+00  2.51625562e-06]","[[-4.21994881e-05  1.99285901e-05]
 [ 6.25567990e-06 -4.61796029e-04]]",[],0.0,0.0
1787306865.761759,0.16975721644317504,-0.9461726528002593,-0.11624034206204215,"[ 1.69077276e-06 -1.30598196e-07  0.00000000e+00  0.00000000e+00
  0.00000000e+00 -5.05833777e-08 -1.30598196e-07  7.05426719e-07
  0.00000000e+00  0.00000000e+00  0.00000000e+00  1.20023968e-07
  0.00000000e+00  0.00000000e+00  0.00000000e+00  0.00000000e+00
  0.00000000e+00  0.00000000e+00  0.00000000e+00  0.00000000e+00
  0.00000000e+00  0.00000000e+00  0.00000000e+00  0.00000000e+00
  0.00000000e+00  0.00000000e+00  0.00000000e+00  0.00000000e+00
  0.00000000e+00  0.00000000e+00 -5.05833777e-08  1.20023968e-07
  0.00000000e+00  0.00000000e+00  0.00000000e+00  2.51625562e-06]","[[-4.21994881e-05  1.99285901e-05]
 [ 6.25567990e-06 -4.61796029e-04]]",[],0.0,0.0
1787306865.8285918,0.16975721644317504,-0.9461726528002593,-0.11624034206204215,"[ 1.69077276e-06 -1.30598196e-07  0.00000000e+00  0.00000000e+00
  0.00000000e+00 -5.05833777e-08 -1.30598196e-07  7.05426719e-07
  0.00000000e+00  0.00000000e+00  0.00000000e+00  1.20023968e-07
  0.00000000e+00  0.00000000e+00  0.00000000e+00  0.00000000e+00
  0.00000000e+00  0.00000000e+00  0.00000000e+00  0.00000000e+00
  0.00000000e+00  0.00000000e+00  0.00000000e+00  0.00000000e+00
  0.00000000e+00  0.00000000e+00  0.00000000e+00  0.00000000e+00
  0.00000000e+00  0.00000000e+00 -5.05833777e-08  1.20023968e-07
  0.00000000e+00  0.00000000e+00  0.00000000e+00  2.51625562e-06]","[[-4.21994881e-05  1.99285901e-05]
 [ 6.25567990e-06 -4.61796029e-04]]",[],0.0,0.0
1787306865.8727677,0.16975721644317504,-0.9461726528002593,-0.11624034206204215,"[ 1.69077276e-06 -1.30598196e-07  0.00000000e+00  0.00000000e+00
  0.00000000e+00 -5.05833777e-08 -1.30598196e-07  7.05426719e-07
  0.00000000e+00  0.00000000e+00  0.00000000e+00  1.20023968e-07
  0.00000000e+00  0.00000000e+00  0.00000000e+00  0.00000000e+00
  0.00000000e+00  0.00000000e+00  0.00000000e+00  0.00000000e+00
  0.00000000e+00  0.00000000e+00  0.00000000e+00  0.00000000e+00
  0.00000000e+00  0.00000000e+00  0.00000000e+00  0.00000000e+00
  0.00000000e+00  0.00000000e+00 -5.05833777e-08  1.20023968e-07
  0.00000000e+00  0.00000000e+00  0.00000000e+00  2.51625562e-06]","[[-4.21994881e-05  1.99285901e-05]
 [ 6.25567990e-06 -4.61796029e-04]]",[],0.0,0.0
1787306865.9117842,0.16975721644317504,-0.9461726528002593,-0.11624034206204215,"[ 1.69077276e-06 -1.30598196e-07  0.00000000e+00  0.00000000e+00
  0.00000000e+00 -5.05833777e-08 -1.30598196e-07  7.05426719e-07
  0.00000000e+00  0.00000000e+00  0.00000000e+00  1.20023968e-07
  0.00000000e+00  0.00000000e+00  0.00000000e+00  0.00000000e+00
  0.00000000e+00  0.00000000e+00  0.00000000e+00  0.00000000e+00
  0.00000000e+00  0.00000000e+00  0.00000000e+00  0.00000000e+00
  0.00000000e+00  0.00000000e+00  0.00000000e+00  0.00000000e+00
  0.00000000e+00  0.00000000e+00 -5.05833777e-08  1.20023968e-07
  0.00000000e+00  0.00000000e+00  0.00000000e+00  2.51625562e-06]","[[-4.21994881e-05  1.99285901e-05]
 [ 6.25567990e-06 -4.61796029e-04]]",[],0.0,0.0
1787306865.9862857,0.16975721644317504,-0.9461726528002593,-0.11624034206204215,"[ 1.69077276e-06 -1.30598196e-07  0.00000000e+00  0.00000000e+00
  0.00000000e+00 -5.05833777e-08 -1.30598196e-07  7.05426719e-07
  0.00000000e+00  0.00000000e+00  0.00000000e+00  1.20023968e-07
  0.00000000e+00  0.00000000e+00  0.00000000e+00  0.00000000e+00
  0.00000000e+00  0.00000000e+00  0.00000000e+00  0.00000000e+00
  0.00000000e+00  0.00000000e+00  0.00000000e+00  0.00000000e+00
  0.00000000e+00  0.00000000e+00  0.00000000e+00  0.00000000e+00
  0.00000000e+00  0.00000000e+00 -5.05833777e-08  1.20023968e-07
  0.00000000e+00  0.00000000e+00  0.00000000e+00  2.51625562e-06]","[[-4.21994881e-05  1.99285901e-05]
 [ 6.25567990e-06 -4.61796029e-04]]",[],0.0,0.0
1787306866.0124276,0.16975721644317504,-0.9461726528002593,-0.11624034206204215,"[ 1.69077276e-06 -1.30598196e-07  0.00000000e+00  0.00000000e+00
  0.00000000e+00 -5.05833777e-08 -1.30598196e-07  7.05426719e-07
  0.00000000e+00  0.00000000e+00  0.00000000e+00  1.20023968e-07
  0.00000000e+00  0.00000000e+00  0.00000000e+00  0.00000000e+00
  0.00000000e+00  0.00000000e+00  0.00000000e+00  0.00000000e+00
  0.00000000e+00  0.00000000e+00  0.00000000e+00  0.00000000e+00
  0.00000000e+00  0.00000000e+00  0.00000000e+00  0.00000000e+00
  0.00000000e+00  0.00000000e+00 -5.05833777e-08  1.20023968e-07
  0.00000000e+00  0.00000000e+00  0.00000000e+00  2.51625562e-06]","[[-4.21994881e-05  1.99285901e-05]
 [ 6.25567990e-06 -4.61796029e-04]]",[],0.0,0.0
1787306866.076304,0.16975721644317504,-0.9461726528002593,-0.11624034206204215,"[ 1.69077276e-06 -1.30598196e-07  0.00000000e+00  0.00000000e+00
  0.00000000e+00 -5.05833777e-08 -1.30598196e-07  7.05426719e-07
  0.00000000e+00  0.00000000e+00  0.00000000e+00  1.20023968e-07
  0.00000000e+00  0.00000000e+00  0.00000000e+00  0.00000000e+00
  0.00000000e+00  0.00000000e+00  0.00000000e+00  0.00000000e+00
  0.00000000e+00  0.00000000e+00  0.00000000e+00  0.00000000e+00
  0.00000000e+00  0.00000000e+00  0.00000000e+00  0.00000000e+00
  0.00000000e+00  0.00000000e+00 -5.05833777e-08  1.20023968e-07
  0.00000000e+00  0.00000000e+00  0.00000000e+00  2.51625562e-06]","[[-4.21994881e-05  1.99285901e-05]
 [ 6.25567990e-06 -4.61796029e-04]]",[],0.0,0.0
1787306866.1213772,0.16975721644317504,-0.9461726528002593,-0.11624034206204215,"[ 1.69077276e-06 -1.30598196e-07  0.00000000e+00  0.00000000e+00
  0.00000000e+00 -5.05833777e-08 -1.30598196e-07  7.05426719e-07
  0.00000000e+00  0.00000000e+00  0.00000000e+00  1.20023968e-07
  0.00000000e+00  0.00000000e+00  0.00000000e+00  0.00000000e+00
  0.00000000e+00  0.00000000e+00  0.00000000e+00  0.00000000e+00
  0.00000000e+00  0.00000000e+00  0.00000000e+00  0.00000000e+00
  0.00000000e+00  0.00000000e+00  0.00000000e+00  0.00000000e+00
  0.00000000e+00  0.00000000e+00 -5.05833777e-08  1.20023968e-07
  0.00000000e+00  0.00000000e+00  0.00000000e+00  2.51625562e-06]","[[-4.21994881e-05  1.99285901e-05]
 [ 6.25567990e-06 -4.61796029e-04]]",[],0.0,0.0
1787306866.1785965,0.16975721644317504,-0.9461726528002593,-0.11624034206204215,"[ 1.69077276e-06 -1.30598196e-07  0.00000000e+00  0.00000000e+00
  0.00000000e+00 -5.05833777e-08 -1.30598196e-07  7.05426719e-07
  0.00000000e+00  0.00000000e+00  0.00000000e+00  1.20023968e-07
  0.00000000e+00  0.00000000e+00  0.00000000e+00  0.00000000e+00
  0.00000000e+00  0.00000000e+00  0.00000000e+00  0.00000000e+00
  0.00000000e+00  0.00000000e+00  0.00000000e+00  0.00000000e+00
  0.00000000e+00  0.00000000e+00  0.00000000e+00  0.00000000e+00
  0.00000000e+00  0.00000000e+00 -5.05833777e-08  1.20023968e-07
  0.00000000e+00  0.00000000e+00  0.00000000e+00  2.51625562e-06]","[[-4.21994881e-05  1.99285901e-05]
 [ 6.25567990e-06 -4.61796029e-04]]",[],0.0,0.0
1787306866.2124734,0.16975721644317504,-0.9461726528002593,-0.11624034206204215,"[ 1.69077276e-06 -1.30598196e-07  0.00000000e+00  0.00000000e+00
  0.00000000e+00 -5.05833777e-08 -1.30598196e-07  7.05426719e-07
  0.00000000e+00  0.00000000e+00  0.00000000e+00  1.20023968e-07
  0.00000000e+00  0.00000000e+00  0.00000000e+00  0.00000000e+00
  0.00000000e+00  0.00000000e+00  0.00000000e+00  0.00000000e+00
  0.00000000e+00  0.00000000e+00  0.00000000e+00  0.00000000e+00
  0.00000000e+00  0.00000000e+00  0.00000000e+00  0.00000000e+00
  0.00000000e+00  0.00000000e+00 -5.05833777e-08  1.20023968e-07
  0.00000000e+00  0.00000000e+00  0.00000000e+00  2.51625562e-06]","[[-4.21994881e-05  1.99285901e-05]
 [ 6.25567990e-06 -4.61796029e-04]]",[],0.0,0.0
1787306866.2883828,0.16975721644317504,-0.9461726528002593,-0.11624034206204215,"[ 1.69077276e-06 -1.30598196e-07  0.00000000e+00  0.00000000e+00
  0.00000000e+00 -5.05833777e-08 -1.30598196e-07  7.05426719e-07
  0.00000000e+00  0.00000000e+00  0.00000000e+00  1.20023968e-07
  0.00000000e+00  0.00000000e+00  0.00000000e+00  0.00000000e+00
  0.00000000e+00  0.00000000e+00  0.00000000e+00  0.00000000e+00
  0.00000000e+00  0.00000000e+00  0.00000000e+00  0.00000000e+00
  0.00000000e+00  0.00000000e+00  0.00000000e+00  0.00000000e+00
  0.00000000e+00  0.00000000e+00 -5.05833777e-08  1.20023968e-07
  0.00000000e+00  0.00000000e+00  0.00000000e+00  2.51625562e-06]","[[-4.21994881e-05  1.99285901e-05]
 [ 6.25567990e-06 -4.61796029e-04]]",[],0.0,0.0
1787306866.311996,0.16975721644317504,-0.9461726528002593,-0.11624034206204215,"[ 1.69077276e-06 -1.30598196e-07  0.00000000e+00  0.00000000e+00
  0.00000000e+00 -5.05833777e-08 -1.30598196e-07  7.05426719e-07
  0.00000000e+00  0.00000000e+00  0.00000000e+00  1.20023968e-07
  0.00000000e+00  0.00000000e+00  0.00000000e+00  0.00000000e+00
  0.00000000e+00  0.00000000e+00  0.00000000e+00  0.00000000e+00
  0.00000000e+00  0.00000000e+00  0.00000000e+00  0.00000000e+00
  0.00000000e+00  0.00000000e+00  0.00000000e+00  0.00000000e+00
  0.00000000e+00  0.00000000e+00 -5.05833777e-08  1.20023968e-07
  0.00000000e+00  0.00000000e+00  0.00000000e+00  2.51625562e-06]","[[-4.21994881e-05  1.99285901e-05]
 [ 6.25567990e-06 -4.61796029e-04]]",[],0.0,0.0
1787306866.3637145,0.16744441024128945,-0.9464277608889384,-0.11804401045140935,"[ 1.72586182e-06 -1.43089646e-07  0.00000000e+00  0.00000000e+00
  0.00000000e+00 -5.80263344e-08 -1.43089646e-07  6.84119201e-07
  0.00000000e+00  0.00000000e+00  0.00000000e+00  1.20474700e-07
  0.00000000e+00  0.00000000e+00  0.00000000e+00  0.00000000e+00
  0.00000000e+00  0.00000000e+00  0.00000000e+00  0.00000000e+00
  0.00000000e+00  0.00000000e+00  0.00000000e+00  0.00000000e+00
  0.00000000e+00  0.00000000e+00  0.00000000e+00  0.00000000e+00
  0.00000000e+00  0.00000000e+00 -5.80263344e-08  1.20474700e-07
  0.00000000e+00  0.00000000e+00  0.00000000e+00  2.76372176e-06]","[[-4.21994881e-05  1.99285901e-05]
 [ 6.25567990e-06 -4.61796029e-04]]",[],0.0,0.0
1787306866.4134407,0.16744441024128945,-0.9464277608889384,-0.11804401045140935,"[ 1.72586182e-06 -1.43089646e-07  0.00000000e+00  0.00000000e+00
  0.00000000e+00 -5.80263344e-08 -1.43089646e-07  6.84119201e-07
  0.00000000e+00  0.00000000e+00  0.00000000e+00  1.20474700e-07
  0.00000000e+00  0.00000000e+00  0.00000000e+00  0.00000000e+00
  0.00000000e+00  0.00000000e+00  0.00000000e+00  0.00000000e+00
  0.00000000e+00  0.00000000e+00  0.00000000e+00  0.00000000e+00
  0.00000000e+00  0.00000000e+00  0.00000000e+00  0.00000000e+00
  0.00000000e+00  0.00000000e+00 -5.80263344e-08  1.20474700e-07
  0.00000000e+00  0.00000000e+00  0.00000000e+00  2.76372176e-06]","[[-4.31841523e-05  4.76450318e-05]
 [ 6.16097280e-06 -4.54976443e-04]]",[],0.0,0.0
1787306866.468099,0.16744441024128945,-0.9464277608889384,-0.11804401045140935,"[ 1.72586182e-06 -1.43089646e-07  0.00000000e+00  0.00000000e+00
  0.00000000e+00 -5.80263344e-08 -1.43089646e-07  6.84119201e-07
  0.00000000e+00  0.00000000e+00  0.00000000e+00  1.20474700e-07
  0.00000000e+00  0.00000000e+00  0.00000000e+00  0.00000000e+00
  0.00000000e+00  0.00000000e+00  0.00000000e+00  0.00000000e+00
  0.00000000e+00  0.00000000e+00  0.00000000e+00  0.00000000e+00
  0.00000000e+00  0.00000000e+00  0.00000000e+00  0.00000000e+00
  0.00000000e+00  0.00000000e+00 -5.80263344e-08  1.20474700e-07
  0.00000000e+00  0.00000000e+00  0.00000000e+00  2.76372176e-06]","[[-4.31841523e-05  4.76450318e-05]
 [ 6.16097280e-06 -4.54976443e-04]]",[],0.0,0.0
1787306866.5123336,0.16744441024128945,-0.9464277608889384,-0.11804401045140935,"[ 1.72586182e-06 -1.43089646e-07  0.00000000e+00  0.00000000e+00
  0.00000000e+00 -5.80263344e-08 -1.43089646e-07  6.84119201e-07
  0.00000000e+00  0.00000000e+00  0.00000000e+00  1.20474700e-07
  0.00000000e+00  0.00000000e+00  0.00000000e+00  0.00000000e+00
  0.00000000e+00  0.00000000e+00  0.00000000e+00  0.00000000e+00
  0.00000000e+00  0.00000000e+00  0.00000000e+00  0.00000000e+00
  0.00000000e+00  0.00000000e+00  0.00000000e+00  0.00000000e+00
  0.00000000e+00  0.00000000e+00 -5.80263344e-08  1.20474700e-07
  0.00000000e+00  0.00000000e+00  0.00000000e+00  2.76372176e-06]","[[-4.31841523e-05  4.76450318e-05]
 [ 6.16097280e-06 -4.54976443e-04]]",[],0.0,0.0
1787306866.5617669,0.16744441024128945,-0.9464277608889384,-0.11804401045140935,"[ 1.72586182e-06 -1.43089646e-07  0.00000000e+00  0.00000000e+00
  0.00000000e+00 -5.80263344e-08 -1.43089646e-07  6.84119201e-07
  0.00000000e+00  0.00000000e+00  0.00000000e+00  1.20474700e-07
  0.00000000e+00  0.00000000e+00  0.00000000e+00  0.00000000e+00
  0.00000000e+00  0.00000000e+00  0.00000000e+00  0.00000000e+00
  0.00000000e+00  0.00000000e+00  0.00000000e+00  0.00000000e+00
  0.00000000e+00  0.00000000e+00  0.00000000e+00  0.00000000e+00
  0.00000000e+00  0.00000000e+00 -5.80263344e-08  1.20474700e-07
  0.00000000e+00  0.00000000e+00  0.00000000e+00  2.76372176e-06]","[[-4.31841523e-05  4.76450318e-05]
 [ 6.16097280e-06 -4.54976443e-04]]",[],0.0,0.0
1787306866.611653,0.16744441024128945,-0.9464277608889384,-0.11804401045140935,"[ 1.72586182e-06 -1.43089646e-07  0.00000000e+00  0.00000000e+00
  0.00000000e+00 -5.80263344e-08 -1.43089646e-07  6.84119201e-07
  0.00000000e+00  0.00000000e+00  0.00000000e+00  1.20474700e-07
  0.00000000e+00  0.00000000e+00  0.00000000e+00  0.00000000e+00
  0.00000000e+00  0.00000000e+00  0.00000000e+00  0.00000000e+00
  0.00000000e+00  0.00000000e+00  0.00000000e+00  0.00000000e+00
  0.00000000e+00  0.00000000e+00  0.00000000e+00  0.00000000e+00
  0.00000000e+00  0.00000000e+00 -5.80263344e-08  1.20474700e-07
  0.00000000e+00  0.00000000e+00  0.00000000e+00  2.76372176e-06]","[[-4.31841523e-05  4.76450318e-05]
 [ 6.16097280e-06 -4.54976443e-04]]",[],0.0,0.0
1787306866.6662111,0.16744441024128945,-0.9464277608889384,-0.11804401045140935,"[ 1.72586182e-06 -1.43089646e-07  0.00000000e+00  0.00000000e+00
  0.00000000e+00 -5.80263344e-08 -1.43089646e-07  6.84119201e-07
  0.00000000e+00  0.00000000e+00  0.00000000e+00  1.20474700e-07
  0.00000000e+00  0.00000000e+00  0.00000000e+00  0.00000000e+00
  0.00000000e+00  0.00000000e+00  0.00000000e+00  0.00000000e+00
  0.00000000e+00  0.00000000e+00  0.00000000e+00  0.00000000e+00
  0.00000000e+00  0.00000000e+00  0.00000000e+00  0.00000000e+00
  0.00000000e+00  0.00000000e+00 -5.80263344e-08  1.20474700e-07
  0.00000000e+00  0.00000000e+00  0.00000000e+00  2.76372176e-06]","[[-4.31841523e-05  4.76450318e-05]
 [ 6.16097280e-06 -4.54976443e-04]]",[],0.0,0.0
1787306866.7315927,0.16744441024128945,-0.9464277608889384,-0.11804401045140935,"[ 1.72586182e-06 -1.43089646e-07  0.00000000e+00  0.00000000e+00
  0.00000000e+00 -5.80263344e-08 -1.43089646e-07  6.84119201e-07
  0.00000000e+00  0.00000000e+00  0.00000000e+00  1.20474700e-07
  0.00000000e+00  0.00000000e+00  0.00000000e+00  0.00000000e+00
  0.00000000e+00  0.00000000e+00  0.00000000e+00  0.00000000e+00
  0.00000000e+00  0.00000000e+00  0.00000000e+00  0.00000000e+00
  0.00000000e+00  0.00000000e+00  0.00000000e+00  0.00000000e+00
  0.00000000e+00  0.00000000e+00 -5.80263344e-08  1.20474700e-07
  0.00000000e+00  0.00000000e+00  0.00000000e+00  2.76372176e-06]","[[-4.31841523e-05  4.76450318e-05]
 [ 6.16097280e-06 -4.54976443e-04]]",[],0.0,0.0
1787306866.7631001,0.16744441024128945,-0.9464277608889384,-0.11804401045140935,"[ 1.72586182e-06 -1.43089646e-07  0.00000000e+00  0.00000000e+00
  0.00000000e+00 -5.80263344e-08 -1.43089646e-07  6.84119201e-07
  0.00000000e+00  0.00000000e+00  0.00000000e+00  1.20474700e-07
  0.00000000e+00  0.00000000e+00  0.00000000e+00  0.00000000e+00
  0.00000000e+00  0.00000000e+00  0.00000000e+00  0.00000000e+00
  0.00000000e+00  0.00000000e+00  0.00000000e+00  0.00000000e+00
  0.00000000e+00  0.00000000e+00  0.00000000e+00  0.00000000e+00
  0.00000000e+00  0.00000000e+00 -5.80263344e-08  1.20474700e-07
  0.00000000e+00  0.00000000e+00  0.00000000e+00  2.76372176e-06]","[[-4.31841523e-05  4.76450318e-05]
 [ 6.16097280e-06 -4.54976443e-04]]",[],0.0,0.0
1787306866.8145564,0.16744441024128945,-0.9464277608889384,-0.11804401045140935,"[ 1.72586182e-06 -1.43089646e-07  0.00000000e+00  0.00000000e+00
  0.00000000e+00 -5.80263344e-08 -1.43089646e-07  6.84119201e-07
  0.00000000e+00  0.00000000e+00  0.00000000e+00  1.20474700e-07
  0.00000000e+00  0.00000000e+00  0.00000000e+00  0.00000000e+00
  0.00000000e+00  0.00000000e+00  0.00000000e+00  0.00000000e+00
  0.00000000e+00  0.00000000e+00  0.00000000e+00  0.00000000e+00
  0.00000000e+00  0.00000000e+00  0.00000000e+00  0.00000000e+00
  0.00000000e+00  0.00000000e+00 -5.80263344e-08  1.20474700e-07
  0.00000000e+00  0.00000000e+00  0.00000000e+00  2.76372176e-06]","[[-4.31841523e-05  4.76450318e-05]
 [ 6.16097280e-06 -4.54976443e-04]]",[],0.0,0.0
1787306866.8656619,0.16744441024128945,-0.9464277608889384,-0.11804401045140935,"[ 1.72586182e-06 -1.43089646e-07  0.00000000e+00  0.00000000e+00
  0.00000000e+00 -5.80263344e-08 -1.43089646e-07  6.84119201e-07
  0.00000000e+00  0.00000000e+00  0.00000000e+00  1.20474700e-07
  0.00000000e+00  0.00000000e+00  0.00000000e+00  0.00000000e+00
  0.00000000e+00  0.00000000e+00  0.00000000e+00  0.00000000e+00
  0.00000000e+00  0.00000000e+00  0.00000000e+00  0.00000000e+00
  0.00000000e+00  0.00000000e+00  0.00000000e+00  0.00000000e+00
  0.00000000e+00  0.00000000e+00 -5.80263344e-08  1.20474700e-07
  0.00000000e+00  0.00000000e+00  0.00000000e+00  2.76372176e-06]","[[-4.31841523e-05  4.76450318e-05]
 [ 6.16097280e-06 -4.54976443e-04]]",[],0.0,0.0
1787306866.9119463,0.16744441024128945,-0.9464277608889384,-0.11804401045140935,"[ 1.72586182e-06 -1.43089646e-07  0.00000000e+00  0.00000000e+00
  0.00000000e+00 -5.80263344e-08 -1.43089646e-07  6.84119201e-07
  0.00000000e+00  0.00000000e+00  0.00000000e+00  1.20474700e-07
  0.00000000e+00  0.00000000e+00  0.00000000e+00  0.00000000e+00
  0.00000000e+00  0.00000000e+00  0.00000000e+00  0.00000000e+00
  0.00000000e+00  0.00000000e+00  0.00000000e+00  0.00000000e+00
  0.00000000e+00  0.00000000e+00  0.00000000e+00  0.00000000e+00
  0.00000000e+00  0.00000000e+00 -5.80263344e-08  1.20474700e-07
  0.00000000e+00  0.00000000e+00  0.00000000e+00  2.76372176e-06]","[[-4.31841523e-05  4.76450318e-05]
 [ 6.16097280e-06 -4.54976443e-04]]",[],0.0,0.0
1787306866.9663079,0.16475904702768007,-0.9466192021334296,-0.11335754006999335,"[ 1.74169454e-06 -1.53345787e-07  0.00000000e+00  0.00000000e+00
  0.00000000e+00 -4.44830686e-08 -1.53345787e-07  6.63278152e-07
  0.00000000e+00  0.00000000e+00  0.00000000e+00  1.14071220e-07
  0.00000000e+00  0.00000000e+00  0.00000000e+00  0.00000000e+00
  0.00000000e+00  0.00000000e+00  0.00000000e+00  0.00000000e+00
  0.00000000e+00  0.00000000e+00  0.00000000e+00  0.00000000e+00
  0.00000000e+00  0.00000000e+00  0.00000000e+00  0.00000000e+00
  0.00000000e+00  0.00000000e+00 -4.44830686e-08  1.14071220e-07
  0.00000000e+00  0.00000000e+00  0.00000000e+00  2.64079301e-06]","[[-4.36121153e-05  2.74957023e-05]
 [ 6.34804083e-06 -4.36539638e-04]]",[],0.0,0.0
1787306867.0133836,0.16475904702768007,-0.9466192021334296,-0.11335754006999335,"[ 1.74169454e-06 -1.53345787e-07  0.00000000e+00  0.00000000e+00
  0.00000000e+00 -4.44830686e-08 -1.53345787e-07  6.63278152e-07
  0.00000000e+00  0.00000000e+00  0.00000000e+00  1.14071220e-07
  0.00000000e+00  0.00000000e+00  0.00000000e+00  0.00000000e+00
  0.00000000e+00  0.00000000e+00  0.00000000e+00  0.00000000e+00
  0.00000000e+00  0.00000000e+00  0.00000000e+00  0.00000000e+00
  0.00000000e+00  0.00000000e+00  0.00000000e+00  0.00000000e+00
  0.00000000e+00  0.00000000e+00 -4.44830686e-08  1.14071220e-07
  0.00000000e+00  0.00000000e+00  0.00000000e+00  2.64079301e-06]","[[-4.36121153e-05  2.74957023e-05]
 [ 6.34804083e-06 -4.36539638e-04]]",[],0.0,0.0
1787306867.0641873,0.16475904702768007,-0.9466192021334296,-0.11335754006999335,"[ 1.74169454e-06 -1.53345787e-07  0.00000000e+00  0.00000000e+00
  0.00000000e+00 -4.44830686e-08 -1.53345787e-07  6.63278152e-07
  0.00000000e+00  0.00000000e+00  0.00000000e+00  1.14071220e-07
  0.00000000e+00  0.00000000e+00  0.00000000e+00  0.00000000e+00
  0.00000000e+00  0.00000000e+00  0.00000000e+00  0.00000000e+00
  0.00000000e+00  0.00000000e+00  0.00000000e+00  0.00000000e+00
  0.00000000e+00  0.00000000e+00  0.00000000e+00  0.00000000e+00
  0.00000000e+00  0.00000000e+00 -4.44830686e-08  1.14071220e-07
  0.00000000e+00  0.00000000e+00  0.00000000e+00  2.64079301e-06]","[[-4.36121153e-05  2.74957023e-05]
 [ 6.34804083e-06 -4.36539638e-04]]",[],0.0,0.0
1787306867.1159673,0.16475904702768007,-0.9466192021334296,-0.11335754006999335,"[ 1.74169454e-06 -1.53345787e-07  0.00000000e+00  0.00000000e+00
  0.00000000e+00 -4.44830686e-08 -1.53345787e-07  6.63278152e-07
  0.00000000e+00  0.00000000e+00  0.00000000e+00  1.14071220e-07
  0.00000000e+00  0.00000000e+00  0.00000000e+00  0.00000000e+00
  0.00000000e+00  0.00000000e+00  0.00000000e+00  0.00000000e+00
  0.00000000e+00  0.00000000e+00  0.00000000e+00  0.00000000e+00
  0.00000000e+00  0.00000000e+00  0.00000000e+00  0.00000000e+00
  0.00000000e+00  0.00000000e+00 -4.44830686e-08  1.14071220e-07
  0.00000000e+00  0.00000000e+00  0.00000000e+00  2.64079301e-06]","[[-4.36121153e-05  2.74957023e-05]
 [ 6.34804083e-06 -4.36539638e-04]]",[],0.0,0.0
1787306867.1613889,0.16475904702768007,-0.9466192021334296,-0.11335754006999335,"[ 1.74169454e-06 -1.53345787e-07  0.00000000e+00  0.00000000e+00
  0.00000000e+00 -4.44830686e-08 -1.53345787e-07  6.63278152e-07
  0.00000000e+00  0.00000000e+00  0.00000000e+00  1.14071220e-07
  0.00000000e+00  0.00000000e+00  0.00000000e+00  0.00000000e+00
  0.00000000e+00  0.00000000e+00  0.00000000e+00  0.00000000e+00
  0.00000000e+00  0.00000000e+00  0.00000000e+00  0.00000000e+00
  0.00000000e+00  0.00000000e+00  0.00000000e+00  0.00000000e+00
  0.00000000e+00  0.00000000e+00 -4.44830686e-08  1.14071220e-07
  0.00000000e+00  0.00000000e+00  0.00000000e+00  2.64079301e-06]","[[-4.36121153e-05  2.74957023e-05]
 [ 6.34804083e-06 -4.36539638e-04]]",[],0.0,0.0
1787306867.21229,0.16475904702768007,-0.9466192021334296,-0.11335754006999335,"[ 1.74169454e-06 -1.53345787e-07  0.00000000e+00  0.00000000e+00
  0.00000000e+00 -4.44830686e-08 -1.53345787e-07  6.63278152e-07
  0.00000000e+00  0.00000000e+00  0.00000000e+00  1.14071220e-07
  0.00000000e+00  0.00000000e+00  0.00000000e+00  0.00000000e+00
  0.00000000e+00  0.00000000e+00  0.00000000e+00  0.00000000e+00
  0.00000000e+00  0.00000000e+00  0.00000000e+00  0.00000000e+00
  0.00000000e+00  0.00000000e+00  0.00000000e+00  0.00000000e+00
  0.00000000e+00  0.00000000e+00 -4.44830686e-08  1.14071220e-07
  0.00000000e+00  0.00000000e+00  0.00000000e+00  2.64079301e-06]","[[-4.36121153e-05  2.74957023e-05]
 [ 6.34804083e-06 -4.36539638e-04]]",[],0.0,0.0
1787306867.2614052,0.16475904702768007,-0.9466192021334296,-0.11335754006999335,"[ 1.74169454e-06 -1.53345787e-07  0.00000000e+00  0.00000000e+00
  0.00000000e+00 -4.44830686e-08 -1.53345787e-07  6.63278152e-07
  0.00000000e+00  0.00000000e+00  0.00000000e+00  1.14071220e-07
  0.00000000e+00  0.00000000e+00  0.00000000e+00  0.00000000e+00
  0.00000000e+00  0.00000000e+00  0.00000000e+00  0.00000000e+00
  0.00000000e+00  0.00000000e+00  0.00000000e+00  0.00000000e+00
  0.00000000e+00  0.00000000e+00  0.00000000e+00  0.00000000e+00
  0.00000000e+00  0.00000000e+00 -4.44830686e-08  1.14071220e-07
  0.00000000e+00  0.00000000e+00  0.00000000e+00  2.64079301e-06]","[[-4.36121153e-05  2.74957023e-05]
 [ 6.34804083e-06 -4.36539638e-04]]",[],0.0,0.0
1787306867.312404,0.16475904702768007,-0.9466192021334296,-0.11335754006999335,"[ 1.74169454e-06 -1.53345787e-07  0.00000000e+00  0.00000000e+00
  0.00000000e+00 -4.44830686e-08 -1.53345787e-07  6.63278152e-07
  0.00000000e+00  0.00000000e+00  0.00000000e+00  1.14071220e-07
  0.00000000e+00  0.00000000e+00  0.00000000e+00  0.00000000e+00
  0.00000000e+00  0.00000000e+00  0.00000000e+00  0.00000000e+00
  0.00000000e+00  0.00000000e+00  0.00000000e+00  0.00000000e+00
  0.00000000e+00  0.00000000e+00  0.00000000e+00  0.00000000e+00
  0.00000000e+00  0.00000000e+00 -4.44830686e-08  1.14071220e-07
  0.00000000e+00  0.00000000e+00  0.00000000e+00  2.64079301e-06]","[[-4.36121153e-05  2.74957023e-05]
 [ 6.34804083e-06 -4.36539638e-04]]",[],0.0,0.0
1787306867.3622594,0.16475904702768007,-0.9466192021334296,-0.11335754006999335,"[ 1.74169454e-06 -1.53345787e-07  0.00000000e+00  0.00000000e+00
  0.00000000e+00 -4.44830686e-08 -1.53345787e-07  6.63278152e-07
  0.00000000e+00  0.00000000e+00  0.00000000e+00  1.14071220e-07
  0.00000000e+00  0.00000000e+00  0.00000000e+00  0.00000000e+00
  0.00000000e+00  0.00000000e+00  0.00000000e+00  0.00000000e+00
  0.00000000e+00  0.00000000e+00  0.00000000e+00  0.00000000e+00
  0.00000000e+00  0.00000000e+00  0.00000000e+00  0.00000000e+00
  0.00000000e+00  0.00000000e+00 -4.44830686e-08  1.14071220e-07
  0.00000000e+00  0.00000000e+00  0.00000000e+00  2.64079301e-06]","[[-4.36121153e-05  2.74957023e-05]
 [ 6.34804083e-06 -4.36539638e-04]]",[],0.0,0.0
1787306867.411583,0.16475904702768007,-0.9466192021334296,-0.11335754006999335,"[ 1.74169454e-06 -1.53345787e-07  0.00000000e+00  0.00000000e+00
  0.00000000e+00 -4.44830686e-08 -1.53345787e-07  6.63278152e-07
  0.00000000e+00  0.00000000e+00  0.00000000e+00  1.14071220e-07
  0.00000000e+00  0.00000000e+00  0.00000000e+00  0.00000000e+00
  0.00000000e+00  0.00000000e+00  0.00000000e+00  0.00000000e+00
  0.00000000e+00  0.00000000e+00  0.00000000e+00  0.00000000e+00
  0.00000000e+00  0.00000000e+00  0.00000000e+00  0.00000000e+00
  0.00000000e+00  0.00000000e+00 -4.44830686e-08  1.14071220e-07
  0.00000000e+00  0.00000000e+00  0.00000000e+00  2.64079301e-06]","[[-4.36121153e-05  2.74957023e-05]
 [ 6.34804083e-06 -4.36539638e-04]]",[],0.0,0.0
1787306867.4625437,0.16475904702768007,-0.9466192021334296,-0.11335754006999335,"[ 1.74169454e-06 -1.53345787e-07  0.00000000e+00  0.00000000e+00
  0.00000000e+00 -4.44830686e-08 -1.53345787e-07  6.63278152e-07
  0.00000000e+00  0.00000000e+00  0.00000000e+00  1.14071220e-07
  0.00000000e+00  0.00000000e+00  0.00000000e+00  0.00000000e+00
  0.00000000e+00  0.00000000e+00  0.00000000e+00  0.00000000e+00
  0.00000000e+00  0.00000000e+00  0.00000000e+00  0.00000000e+00
  0.00000000e+00  0.00000000e+00  0.00000000e+00  0.00000000e+00
  0.00000000e+00  0.00000000e+00 -4.44830686e-08  1.14071220e-07
  0.00000000e+00  0.00000000e+00  0.00000000e+00  2.64079301e-06]","[[-4.36121153e-05  2.74957023e-05]
 [ 6.34804083e-06 -4.36539638e-04]]",[],0.0,0.0
1787306867.5162728,0.16475904702768007,-0.9466192021334296,-0.11335754006999335,"[ 1.74169454e-06 -1.53345787e-07  0.00000000e+00  0.00000000e+00
  0.00000000e+00 -4.44830686e-08 -1.53345787e-07  6.63278152e-07
  0.00000000e+00  0.00000000e+00  0.00000000e+00  1.14071220e-07
  0.00000000e+00  0.00000000e+00  0.00000000e+00  0.00000000e+00
  0.00000000e+00  0.00000000e+00  0.00000000e+00  0.00000000e+00
  0.00000000e+00  0.00000000e+00  0.00000000e+00  0.00000000e+00
  0.00000000e+00  0.00000000e+00  0.00000000e+00  0.00000000e+00
  0.00000000e+00  0.00000000e+00 -4.44830686e-08  1.14071220e-07
  0.00000000e+00  0.00000000e+00  0.00000000e+00  2.64079301e-06]","[[-4.36121153e-05  2.74957023e-05]
 [ 6.34804083e-06 -4.36539638e-04]]",[],0.0,0.0
1787306867.5623543,0.16475904702768007,-0.9466192021334296,-0.11335754006999335,"[ 1.74169454e-06 -1.53345787e-07  0.00000000e+00  0.00000000e+00
  0.00000000e+00 -4.44830686e-08 -1.53345787e-07  6.63278152e-07
  0.00000000e+00  0.00000000e+00  0.00000000e+00  1.14071220e-07
  0.00000000e+00  0.00000000e+00  0.00000000e+00  0.00000000e+00
  0.00000000e+00  0.00000000e+00  0.00000000e+00  0.00000000e+00
  0.00000000e+00  0.00000000e+00  0.00000000e+00  0.00000000e+00
  0.00000000e+00  0.00000000e+00  0.00000000e+00  0.00000000e+00
  0.00000000e+00  0.00000000e+00 -4.44830686e-08  1.14071220e-07
  0.00000000e+00  0.00000000e+00  0.00000000e+00  2.64079301e-06]","[[-4.36121153e-05  2.74957023e-05]
 [ 6.34804083e-06 -4.36539638e-04]]",[],0.0,0.0
1787306867.6113827,0.16475904702768007,-0.9466192021334296,-0.11335754006999335,"[ 1.74169454e-06 -1.53345787e-07  0.00000000e+00  0.00000000e+00
  0.00000000e+00 -4.44830686e-08 -1.53345787e-07  6.63278152e-07
  0.00000000e+00  0.00000000e+00  0.00000000e+00  1.14071220e-07
  0.00000000e+00  0.00000000e+00  0.00000000e+00  0.00000000e+00
  0.00000000e+00  0.00000000e+00  0.00000000e+00  0.00000000e+00
  0.00000000e+00  0.00000000e+00  0.00000000e+00  0.00000000e+00
  0.00000000e+00  0.00000000e+00  0.00000000e+00  0.00000000e+00
  0.00000000e+00  0.00000000e+00 -4.44830686e-08  1.14071220e-07
  0.00000000e+00  0.00000000e+00  0.00000000e+00  2.64079301e-06]","[[-4.36121153e-05  2.74957023e-05]
 [ 6.34804083e-06 -4.36539638e-04]]",[],0.0,0.0
1787306867.6621194,0.16291637955560126,-0.9468711399032523,-0.11951373464840875,"[ 1.77598190e-06 -1.63128704e-07  0.00000000e+00  0.00000000e+00
  0.00000000e+00 -4.71709442e-08 -1.63128704e-07  6.44076093e-07
  0.00000000e+00  0.00000000e+00  0.00000000e+00  1.11672316e-07
  0.00000000e+00  0.00000000e+00  0.00000000e+00  0.00000000e+00
  0.00000000e+00  0.00000000e+00  0.00000000e+00  0.00000000e+00
  0.00000000e+00  0.00000000e+00  0.00000000e+00  0.00000000e+00
  0.00000000e+00  0.00000000e+00  0.00000000e+00  0.00000000e+00
  0.00000000e+00  0.00000000e+00 -4.71709442e-08  1.11672316e-07
  0.00000000e+00  0.00000000e+00  0.00000000e+00  2.68777390e-06]","[[-4.43987407e-05  1.38985128e-05]
 [ 6.94621795e-06 -4.21425777e-04]]",[],0.0,0.0
1787306867.7123764,0.16291637955560126,-0.9468711399032523,-0.11951373464840875,"[ 1.77598190e-06 -1.63128704e-07  0.00000000e+00  0.00000000e+00
  0.00000000e+00 -4.71709442e-08 -1.63128704e-07  6.44076093e-07
  0.00000000e+00  0.00000000e+00  0.00000000e+00  1.11672316e-07
  0.00000000e+00  0.00000000e+00  0.00000000e+00  0.00000000e+00
  0.00000000e+00  0.00000000e+00  0.00000000e+00  0.00000000e+00
  0.00000000e+00  0.00000000e+00  0.00000000e+00  0.00000000e+00
  0.00000000e+00  0.00000000e+00  0.00000000e+00  0.00000000e+00
  0.00000000e+00  0.00000000e+00 -4.71709442e-08  1.11672316e-07
  0.00000000e+00  0.00000000e+00  0.00000000e+00  2.68777390e-06]","[[-4.43987407e-05  1.38985128e-05]
 [ 6.94621795e-06 -4.21425777e-04]]",[],0.0,0.0
1787306867.7648659,0.16291637955560126,-0.9468711399032523,-0.11951373464840875,"[ 1.77598190e-06 -1.63128704e-07  0.00000000e+00  0.00000000e+00
  0.00000000e+00 -4.71709442e-08 -1.63128704e-07  6.44076093e-07
  0.00000000e+00  0.00000000e+00  0.00000000e+00  1.11672316e-07
  0.00000000e+00  0.00000000e+00  0.00000000e+00  0.00000000e+00
  0.00000000e+00  0.00000000e+00  0.00000000e+00  0.00000000e+00
  0.00000000e+00  0.00000000e+00  0.00000000e+00  0.00000000e+00
  0.00000000e+00  0.00000000e+00  0.00000000e+00  0.00000000e+00
  0.00000000e+00  0.00000000e+00 -4.71709442e-08  1.11672316e-07
  0.00000000e+00  0.00000000e+00  0.00000000e+00  2.68777390e-06]","[[-4.43987407e-05  1.38985128e-05]
 [ 6.94621795e-06 -4.21425777e-04]]",[],0.0,0.0
1787306867.817649,0.16291637955560126,-0.9468711399032523,-0.11951373464840875,"[ 1.77598190e-06 -1.63128704e-07  0.00000000e+00  0.00000000e+00
  0.00000000e+00 -4.71709442e-08 -1.63128704e-07  6.44076093e-07
  0.00000000e+00  0.00000000e+00  0.00000000e+00  1.11672316e-07
  0.00000000e+00  0.00000000e+00  0.00000000e+00  0.00000000e+00
  0.00000000e+00  0.00000000e+00  0.00000000e+00  0.00000000e+00
  0.00000000e+00  0.00000000e+00  0.00000000e+00  0.00000000e+00
  0.00000000e+00  0.00000000e+00  0.00000000e+00  0.00000000e+00
  0.00000000e+00  0.00000000e+00 -4.71709442e-08  1.11672316e-07
  0.00000000e+00  0.00000000e+00  0.00000000e+00  2.68777390e-06]","[[-4.43987407e-05  1.38985128e-05]
 [ 6.94621795e-06 -4.21425777e-04]]",[],0.0,0.0
1787306867.8691401,0.16291637955560126,-0.9468711399032523,-0.11951373464840875,"[ 1.77598190e-06 -1.63128704e-07  0.00000000e+00  0.00000000e+00
  0.00000000e+00 -4.71709442e-08 -1.63128704e-07  6.44076093e-07
  0.00000000e+00  0.00000000e+00  0.00000000e+00  1.11672316e-07
  0.00000000e+00  0.00000000e+00  0.00000000e+00  0.00000000e+00
  0.00000000e+00  0.00000000e+00  0.00000000e+00  0.00000000e+00
  0.00000000e+00  0.00000000e+00  0.00000000e+00  0.00000000e+00
  0.00000000e+00  0.00000000e+00  0.00000000e+00  0.00000000e+00
  0.00000000e+00  0.00000000e+00 -4.71709442e-08  1.11672316e-07
  0.00000000e+00  0.00000000e+00  0.00000000e+00  2.68777390e-06]","[[-4.43987407e-05  1.38985128e-05]
 [ 6.94621795e-06 -4.21425777e-04]]",[],0.0,0.0
1787306867.9147484,0.16291637955560126,-0.9468711399032523,-0.11951373464840875,"[ 1.77598190e-06 -1.63128704e-07  0.00000000e+00  0.00000000e+00
  0.00000000e+00 -4.71709442e-08 -1.63128704e-07  6.44076093e-07
  0.00000000e+00  0.00000000e+00  0.00000000e+00  1.11672316e-07
  0.00000000e+00  0.00000000e+00  0.00000000e+00  0.00000000e+00
  0.00000000e+00  0.00000000e+00  0.00000000e+00  0.00000000e+00
  0.00000000e+00  0.00000000e+00  0.00000000e+00  0.00000000e+00
  0.00000000e+00  0.00000000e+00  0.00000000e+00  0.00000000e+00
  0.00000000e+00  0.00000000e+00 -4.71709442e-08  1.11672316e-07
  0.00000000e+00  0.00000000e+00  0.00000000e+00  2.68777390e-06]","[[-4.43987407e-05  1.38985128e-05]
 [ 6.94621795e-06 -4.21425777e-04]]",[],0.0,0.0
1787306867.961695,0.16291637955560126,-0.9468711399032523,-0.11951373464840875,"[ 1.77598190e-06 -1.63128704e-07  0.00000000e+00  0.00000000e+00
  0.00000000e+00 -4.71709442e-08 -1.63128704e-07  6.44076093e-07
  0.00000000e+00  0.00000000e+00  0.00000000e+00  1.11672316e-07
  0.00000000e+00  0.00000000e+00  0.00000000e+00  0.00000000e+00
  0.00000000e+00  0.00000000e+00  0.00000000e+00  0.00000000e+00
  0.00000000e+00  0.00000000e+00  0.00000000e+00  0.00000000e+00
  0.00000000e+00  0.00000000e+00  0.00000000e+00  0.00000000e+00
  0.00000000e+00  0.00000000e+00 -4.71709442e-08  1.11672316e-07
  0.00000000e+00  0.00000000e+00  0.00000000e+00  2.68777390e-06]","[[-4.43987407e-05  1.38985128e-05]
 [ 6.94621795e-06 -4.21425777e-04]]",[],0.0,0.0
1787306868.0120213,0.16291637955560126,-0.9468711399032523,-0.11951373464840875,"[ 1.77598190e-06 -1.63128704e-07  0.00000000e+00  0.00000000e+00
  0.00000000e+00 -4.71709442e-08 -1.63128704e-07  6.44076093e-07
  0.00000000e+00  0.00000000e+00  0.00000000e+00  1.11672316e-07
  0.00000000e+00  0.00000000e+00  0.00000000e+00  0.00000000e+00
  0.00000000e+00  0.00000000e+00  0.00000000e+00  0.00000000e+00
  0.00000000e+00  0.00000000e+00  0.00000000e+00  0.00000000e+00
  0.00000000e+00  0.00000000e+00  0.00000000e+00  0.00000000e+00
  0.00000000e+00  0.00000000e+00 -4.71709442e-08  1.11672316e-07
  0.00000000e+00  0.00000000e+00  0.00000000e+00  2.68777390e-06]","[[-4.43987407e-05  1.38985128e-05]
 [ 6.94621795e-06 -4.21425777e-04]]",[],0.0,0.0
1787306868.06226,0.16291637955560126,-0.9468711399032523,-0.11951373464840875,"[ 1.77598190e-06 -1.63128704e-07  0.00000000e+00  0.00000000e+00
  0.00000000e+00 -4.71709442e-08 -1.63128704e-07  6.44076093e-07
  0.00000000e+00  0.00000000e+00  0.00000000e+00  1.11672316e-07
  0.00000000e+00  0.00000000e+00  0.00000000e+00  0.00000000e+00
  0.00000000e+00  0.00000000e+00  0.00000000e+00  0.00000000e+00
  0.00000000e+00  0.00000000e+00  0.00000000e+00  0.00000000e+00
  0.00000000e+00  0.00000000e+00  0.00000000e+00  0.00000000e+00
  0.00000000e+00  0.00000000e+00 -4.71709442e-08  1.11672316e-07
  0.00000000e+00  0.00000000e+00  0.00000000e+00  2.68777390e-06]","[[-4.43987407e-05  1.38985128e-05]
 [ 6.94621795e-06 -4.21425777e-04]]",[],0.0,0.0
1787306868.111607,0.16291637955560126,-0.9468711399032523,-0.11951373464840875,"[ 1.77598190e-06 -1.63128704e-07  0.00000000e+00  0.00000000e+00
  0.00000000e+00 -4.71709442e-08 -1.63128704e-07  6.44076093e-07
  0.00000000e+00  0.00000000e+00  0.00000000e+00  1.11672316e-07
  0.00000000e+00  0.00000000e+00  0.00000000e+00  0.00000000e+00
  0.00000000e+00  0.00000000e+00  0.00000000e+00  0.00000000e+00
  0.00000000e+00  0.00000000e+00  0.00000000e+00  0.00000000e+00
  0.00000000e+00  0.00000000e+00  0.00000000e+00  0.00000000e+00
  0.00000000e+00  0.00000000e+00 -4.71709442e-08  1.11672316e-07
  0.00000000e+00  0.00000000e+00  0.00000000e+00  2.68777390e-06]","[[-4.43987407e-05  1.38985128e-05]
 [ 6.94621795e-06 -4.21425777e-04]]",[],0.0,0.0
1787306868.1937468,0.16291637955560126,-0.9468711399032523,-0.11951373464840875,"[ 1.77598190e-06 -1.63128704e-07  0.00000000e+00  0.00000000e+00
  0.00000000e+00 -4.71709442e-08 -1.63128704e-07  6.44076093e-07
  0.00000000e+00  0.00000000e+00  0.00000000e+00  1.11672316e-07
  0.00000000e+00  0.00000000e+00  0.00000000e+00  0.00000000e+00
  0.00000000e+00  0.00000000e+00  0.00000000e+00  0.00000000e+00
  0.00000000e+00  0.00000000e+00  0.00000000e+00  0.00000000e+00
  0.00000000e+00  0.00000000e+00  0.00000000e+00  0.00000000e+00
  0.00000000e+00  0.00000000e+00 -4.71709442e-08  1.11672316e-07
  0.00000000e+00  0.00000000e+00  0.00000000e+00  2.68777390e-06]","[[-4.43987407e-05  1.38985128e-05]
 [ 6.94621795e-06 -4.21425777e-04]]",[],0.0,0.0
1787306868.2156992,0.16291637955560126,-0.9468711399032523,-0.11951373464840875,"[ 1.77598190e-06 -1.63128704e-07  0.00000000e+00  0.00000000e+00
  0.00000000e+00 -4.71709442e-08 -1.63128704e-07  6.44076093e-07
  0.00000000e+00  0.00000000e+00  0.00000000e+00  1.11672316e-07
  0.00000000e+00  0.00000000e+00  0.00000000e+00  0.00000000e+00
  0.00000000e+00  0.00000000e+00  0.00000000e+00  0.00000000e+00
  0.00000000e+00  0.00000000e+00  0.00000000e+00  0.00000000e+00
  0.00000000e+00  0.00000000e+00  0.00000000e+00  0.00000000e+00
  0.00000000e+00  0.00000000e+00 -4.71709442e-08  1.11672316e-07
  0.00000000e+00  0.00000000e+00  0.00000000e+00  2.68777390e-06]","[[-4.43987407e-05  1.38985128e-05]
 [ 6.94621795e-06 -4.21425777e-04]]",[],0.0,0.0
1787306868.2648165,0.16030877911432836,-0.9471239535849778,-0.12454531509103627,"[ 1.78434525e-06 -1.70272615e-07  0.00000000e+00  0.00000000e+00
  0.00000000e+00 -3.92253486e-08 -1.70272615e-07  6.26627514e-07
  0.00000000e+00  0.00000000e+00  0.00000000e+00  1.12365651e-07
  0.00000000e+00  0.00000000e+00  0.00000000e+00  0.00000000e+00
  0.00000000e+00  0.00000000e+00  0.00000000e+00  0.00000000e+00
  0.00000000e+00  0.00000000e+00  0.00000000e+00  0.00000000e+00
  0.00000000e+00  0.00000000e+00  0.00000000e+00  0.00000000e+00
  0.00000000e+00  0.00000000e+00 -3.92253486e-08  1.12365651e-07
  0.00000000e+00  0.00000000e+00  0.00000000e+00  2.73359414e-06]","[[-4.46626719e-05  7.81753916e-06]
 [ 6.94281189e-06 -4.15480211e-04]]",[],0.0,0.0
1787306868.3179755,0.16030877911432836,-0.9471239535849778,-0.12454531509103627,"[ 1.78434525e-06 -1.70272615e-07  0.00000000e+00  0.00000000e+00
  0.00000000e+00 -3.92253486e-08 -1.70272615e-07  6.26627514e-07
  0.00000000e+00  0.00000000e+00  0.00000000e+00  1.12365651e-07
  0.00000000e+00  0.00000000e+00  0.00000000e+00  0.00000000e+00
  0.00000000e+00  0.00000000e+00  0.00000000e+00  0.00000000e+00
  0.00000000e+00  0.00000000e+00  0.00000000e+00  0.00000000e+00
  0.00000000e+00  0.00000000e+00  0.00000000e+00  0.00000000e+00
  0.00000000e+00  0.00000000e+00 -3.92253486e-08  1.12365651e-07
  0.00000000e+00  0.00000000e+00  0.00000000e+00  2.73359414e-06]","[[-4.46626719e-05  7.81753916e-06]
 [ 6.94281189e-06 -4.15480211e-04]]",[],0.0,0.0
1787306868.3645287,0.16030877911432836,-0.9471239535849778,-0.12454531509103627,"[ 1.78434525e-06 -1.70272615e-07  0.00000000e+00  0.00000000e+00
  0.00000000e+00 -3.92253486e-08 -1.70272615e-07  6.26627514e-07
  0.00000000e+00  0.00000000e+00  0.00000000e+00  1.12365651e-07
  0.00000000e+00  0.00000000e+00  0.00000000e+00  0.00000000e+00
  0.00000000e+00  0.00000000e+00  0.00000000e+00  0.00000000e+00
  0.00000000e+00  0.00000000e+00  0.00000000e+00  0.00000000e+00
  0.00000000e+00  0.00000000e+00  0.00000000e+00  0.00000000e+00
  0.00000000e+00  0.00000000e+00 -3.92253486e-08  1.12365651e-07
  0.00000000e+00  0.00000000e+00  0.00000000e+00  2.73359414e-06]","[[-4.46626719e-05  7.81753916e-06]
 [ 6.94281189e-06 -4.15480211e-04]]",[],0.0,0.0
1787306868.4141166,0.16030877911432836,-0.9471239535849778,-0.12454531509103627,"[ 1.78434525e-06 -1.70272615e-07  0.00000000e+00  0.00000000e+00
  0.00000000e+00 -3.92253486e-08 -1.70272615e-07  6.26627514e-07
  0.00000000e+00  0.00000000e+00  0.00000000e+00  1.12365651e-07
  0.00000000e+00  0.00000000e+00  0.00000000e+00  0.00000000e+00
  0.00000000e+00  0.00000000e+00  0.00000000e+00  0.00000000e+00
  0.00000000e+00  0.00000000e+00  0.00000000e+00  0.00000000e+00
  0.00000000e+00  0.00000000e+00  0.00000000e+00  0.00000000e+00
  0.00000000e+00  0.00000000e+00 -3.92253486e-08  1.12365651e-07
  0.00000000e+00  0.00000000e+00  0.00000000e+00  2.73359414e-06]","[[-4.46626719e-05  7.81753916e-06]
 [ 6.94281189e-06 -4.15480211e-04]]",[],0.0,0.0
1787306868.4624882,0.16030877911432836,-0.9471239535849778,-0.12454531509103627,"[ 1.78434525e-06 -1.70272615e-07  0.00000000e+00  0.00000000e+00
  0.00000000e+00 -3.92253486e-08 -1.70272615e-07  6.26627514e-07
  0.00000000e+00  0.00000000e+00  0.00000000e+00  1.12365651e-07
  0.00000000e+00  0.00000000e+00  0.00000000e+00  0.00000000e+00
  0.00000000e+00  0.00000000e+00  0.00000000e+00  0.00000000e+00
  0.00000000e+00  0.00000000e+00  0.00000000e+00  0.00000000e+00
  0.00000000e+00  0.00000000e+00  0.00000000e+00  0.00000000e+00
  0.00000000e+00  0.00000000e+00 -3.92253486e-08  1.12365651e-07
  0.00000000e+00  0.00000000e+00  0.00000000e+00  2.73359414e-06]","[[-4.46626719e-05  7.81753916e-06]
 [ 6.94281189e-06 -4.15480211e-04]]",[],0.0,0.0
1787306868.5304773,0.16030877911432836,-0.9471239535849778,-0.12454531509103627,"[ 1.78434525e-06 -1.70272615e-07  0.00000000e+00  0.00000000e+00
  0.00000000e+00 -3.92253486e-08 -1.70272615e-07  6.26627514e-07
  0.00000000e+00  0.00000000e+00  0.00000000e+00  1.12365651e-07
  0.00000000e+00  0.00000000e+00  0.00000000e+00  0.00000000e+00
  0.00000000e+00  0.00000000e+00  0.00000000e+00  0.00000000e+00
  0.00000000e+00  0.00000000e+00  0.00000000e+00  0.00000000e+00
  0.00000000e+00  0.00000000e+00  0.00000000e+00  0.00000000e+00
  0.00000000e+00  0.00000000e+00 -3.92253486e-08  1.12365651e-07
  0.00000000e+00  0.00000000e+00  0.00000000e+00  2.73359414e-06]","[[-4.46626719e-05  7.81753916e-06]
 [ 6.94281189e-06 -4.15480211e-04]]",[],0.0,0.0
1787306868.5668929,0.16030877911432836,-0.9471239535849778,-0.12454531509103627,"[ 1.78434525e-06 -1.70272615e-07  0.00000000e+00  0.00000000e+00
  0.00000000e+00 -3.92253486e-08 -1.70272615e-07  6.26627514e-07
  0.00000000e+00  0.00000000e+00  0.00000000e+00  1.12365651e-07
  0.00000000e+00  0.00000000e+00  0.00000000e+00  0.00000000e+00
  0.00000000e+00  0.00000000e+00  0.00000000e+00  0.00000000e+00
  0.00000000e+00  0.00000000e+00  0.00000000e+00  0.00000000e+00
  0.00000000e+00  0.00000000e+00  0.00000000e+00  0.00000000e+00
  0.00000000e+00  0.00000000e+00 -3.92253486e-08  1.12365651e-07
  0.00000000e+00  0.00000000e+00  0.00000000e+00  2.73359414e-06]","[[-4.46626719e-05  7.81753916e-06]
 [ 6.94281189e-06 -4.15480211e-04]]",[],0.0,0.0
1787306868.6120903,0.16030877911432836,-0.9471239535849778,-0.12454531509103627,"[ 1.78434525e-06 -1.70272615e-07  0.00000000e+00  0.00000000e+00
  0.00000000e+00 -3.92253486e-08 -1.70272615e-07  6.26627514e-07
  0.00000000e+00  0.00000000e+00  0.00000000e+00  1.12365651e-07
  0.00000000e+00  0.00000000e+00  0.00000000e+00  0.00000000e+00
  0.00000000e+00  0.00000000e+00  0.00000000e+00  0.00000000e+00
  0.00000000e+00  0.00000000e+00  0.00000000e+00  0.00000000e+00
  0.00000000e+00  0.00000000e+00  0.00000000e+00  0.00000000e+00
  0.00000000e+00  0.00000000e+00 -3.92253486e-08  1.12365651e-07
  0.00000000e+00  0.00000000e+00  0.00000000e+00  2.73359414e-06]","[[-4.46626719e-05  7.81753916e-06]
 [ 6.94281189e-06 -4.15480211e-04]]",[],0.0,0.0
1787306868.664223,0.16030877911432836,-0.9471239535849778,-0.12454531509103627,"[ 1.78434525e-06 -1.70272615e-07  0.00000000e+00  0.00000000e+00
  0.00000000e+00 -3.92253486e-08 -1.70272615e-07  6.26627514e-07
  0.00000000e+00  0.00000000e+00  0.00000000e+00  1.12365651e-07
  0.00000000e+00  0.00000000e+00  0.00000000e+00  0.00000000e+00
  0.00000000e+00  0.00000000e+00  0.00000000e+00  0.00000000e+00
  0.00000000e+00  0.00000000e+00  0.00000000e+00  0.00000000e+00
  0.00000000e+00  0.00000000e+00  0.00000000e+00  0.00000000e+00
  0.00000000e+00  0.00000000e+00 -3.92253486e-08  1.12365651e-07
  0.00000000e+00  0.00000000e+00  0.00000000e+00  2.73359414e-06]","[[-4.46626719e-05  7.81753916e-06]
 [ 6.94281189e-06 -4.15480211e-04]]",[],0.0,0.0
1787306868.7129967,0.16030877911432836,-0.9471239535849778,-0.12454531509103627,"[ 1.78434525e-06 -1.70272615e-07  0.00000000e+00  0.00000000e+00
  0.00000000e+00 -3.92253486e-08 -1.70272615e-07  6.26627514e-07
  0.00000000e+00  0.00000000e+00  0.00000000e+00  1.12365651e-07
  0.00000000e+00  0.00000000e+00  0.00000000e+00  0.00000000e+00
  0.00000000e+00  0.00000000e+00  0.00000000e+00  0.00000000e+00
  0.00000000e+00  0.00000000e+00  0.00000000e+00  0.00000000e+00
  0.00000000e+00  0.00000000e+00  0.00000000e+00  0.00000000e+00
  0.00000000e+00  0.00000000e+00 -3.92253486e-08  1.12365651e-07
  0.00000000e+00  0.00000000e+00  0.00000000e+00  2.73359414e-06]","[[-4.46626719e-05  7.81753916e-06]
 [ 6.94281189e-06 -4.15480211e-04]]",[],0.0,0.0
1787306868.763205,0.16030877911432836,-0.9471239535849778,-0.12454531509103627,"[ 1.78434525e-06 -1.70272615e-07  0.00000000e+00  0.00000000e+00
  0.00000000e+00 -3.92253486e-08 -1.70272615e-07  6.26627514e-07
  0.00000000e+00  0.00000000e+00  0.00000000e+00  1.12365651e-07
  0.00000000e+00  0.00000000e+00  0.00000000e+00  0.00000000e+00
  0.00000000e+00  0.00000000e+00  0.00000000e+00  0.00000000e+00
  0.00000000e+00  0.00000000e+00  0.00000000e+00  0.00000000e+00
  0.00000000e+00  0.00000000e+00  0.00000000e+00  0.00000000e+00
  0.00000000e+00  0.00000000e+00 -3.92253486e-08  1.12365651e-07
  0.00000000e+00  0.00000000e+00  0.00000000e+00  2.73359414e-06]","[[-4.46626719e-05  7.81753916e-06]
 [ 6.94281189e-06 -4.15480211e-04]]",[],0.0,0.0
1787306868.8332295,0.16030877911432836,-0.9471239535849778,-0.12454531509103627,"[ 1.78434525e-06 -1.70272615e-07  0.00000000e+00  0.00000000e+00
  0.00000000e+00 -3.92253486e-08 -1.70272615e-07  6.26627514e-07
  0.00000000e+00  0.00000000e+00  0.00000000e+00  1.12365651e-07
  0.00000000e+00  0.00000000e+00  0.00000000e+00  0.00000000e+00
  0.00000000e+00  0.00000000e+00  0.00000000e+00  0.00000000e+00
  0.00000000e+00  0.00000000e+00  0.00000000e+00  0.00000000e+00
  0.00000000e+00  0.00000000e+00  0.00000000e+00  0.00000000e+00
  0.00000000e+00  0.00000000e+00 -3.92253486e-08  1.12365651e-07
  0.00000000e+00  0.00000000e+00  0.00000000e+00  2.73359414e-06]","[[-4.46626719e-05  7.81753916e-06]
 [ 6.94281189e-06 -4.15480211e-04]]",[],0.0,0.0
1787306868.8702426,0.16030877911432836,-0.9471239535849778,-0.12454531509103627,"[ 1.78434525e-06 -1.70272615e-07  0.00000000e+00  0.00000000e+00
  0.00000000e+00 -3.92253486e-08 -1.70272615e-07  6.26627514e-07
  0.00000000e+00  0.00000000e+00  0.00000000e+00  1.12365651e-07
  0.00000000e+00  0.00000000e+00  0.00000000e+00  0.00000000e+00
  0.00000000e+00  0.00000000e+00  0.00000000e+00  0.00000000e+00
  0.00000000e+00  0.00000000e+00  0.00000000e+00  0.00000000e+00
  0.00000000e+00  0.00000000e+00  0.00000000e+00  0.00000000e+00
  0.00000000e+00  0.00000000e+00 -3.92253486e-08  1.12365651e-07
  0.00000000e+00  0.00000000e+00  0.00000000e+00  2.73359414e-06]","[[-4.46626719e-05  7.81753916e-06]
 [ 6.94281189e-06 -4.15480211e-04]]",[],0.0,0.0
1787306868.9483314,0.16030877911432836,-0.9471239535849778,-0.12454531509103627,"[ 1.78434525e-06 -1.70272615e-07  0.00000000e+00  0.00000000e+00
  0.00000000e+00 -3.92253486e-08 -1.70272615e-07  6.26627514e-07
  0.00000000e+00  0.00000000e+00  0.00000000e+00  1.12365651e-07
  0.00000000e+00  0.00000000e+00  0.00000000e+00  0.00000000e+00
  0.00000000e+00  0.00000000e+00  0.00000000e+00  0.00000000e+00
  0.00000000e+00  0.00000000e+00  0.00000000e+00  0.00000000e+00
  0.00000000e+00  0.00000000e+00  0.00000000e+00  0.00000000e+00
  0.00000000e+00  0.00000000e+00 -3.92253486e-08  1.12365651e-07
  0.00000000e+00  0.00000000e+00  0.00000000e+00  2.73359414e-06]","[[-4.46626719e-05  7.81753916e-06]
 [ 6.94281189e-06 -4.15480211e-04]]",[],0.0,0.0
1787306869.0187216,0.16030877911432836,-0.9471239535849778,-0.12454531509103627,"[ 1.78434525e-06 -1.70272615e-07  0.00000000e+00  0.00000000e+00
  0.00000000e+00 -3.92253486e-08 -1.70272615e-07  6.26627514e-07
  0.00000000e+00  0.00000000e+00  0.00000000e+00  1.12365651e-07
  0.00000000e+00  0.00000000e+00  0.00000000e+00  0.00000000e+00
  0.00000000e+00  0.00000000e+00  0.00000000e+00  0.00000000e+00
  0.00000000e+00  0.00000000e+00  0.00000000e+00  0.00000000e+00
  0.00000000e+00  0.00000000e+00  0.00000000e+00  0.00000000e+00
  0.00000000e+00  0.00000000e+00 -3.92253486e-08  1.12365651e-07
  0.00000000e+00  0.00000000e+00  0.00000000e+00  2.73359414e-06]","[[-4.46626719e-05  7.81753916e-06]
 [ 6.94281189e-06 -4.15480211e-04]]",[],0.0,0.0
1787306869.0620513,0.16030877911432836,-0.9471239535849778,-0.12454531509103627,"[ 1.78434525e-06 -1.70272615e-07  0.00000000e+00  0.00000000e+00
  0.00000000e+00 -3.92253486e-08 -1.70272615e-07  6.26627514e-07
  0.00000000e+00  0.00000000e+00  0.00000000e+00  1.12365651e-07
  0.00000000e+00  0.00000000e+00  0.00000000e+00  0.00000000e+00
  0.00000000e+00  0.00000000e+00  0.00000000e+00  0.00000000e+00
  0.00000000e+00  0.00000000e+00  0.00000000e+00  0.00000000e+00
  0.00000000e+00  0.00000000e+00  0.00000000e+00  0.00000000e+00
  0.00000000e+00  0.00000000e+00 -3.92253486e-08  1.12365651e-07
  0.00000000e+00  0.00000000e+00  0.00000000e+00  2.73359414e-06]","[[-4.46626719e-05  7.81753916e-06]
 [ 6.94281189e-06 -4.15480211e-04]]",[],0.0,0.0
1787306869.1316977,0.16030877911432836,-0.9471239535849778,-0.12454531509103627,"[ 1.78434525e-06 -1.70272615e-07  0.00000000e+00  0.00000000e+00
  0.00000000e+00 -3.92253486e-08 -1.70272615e-07  6.26627514e-07
  0.00000000e+00  0.00000000e+00  0.00000000e+00  1.12365651e-07
  0.00000000e+00  0.00000000e+00  0.00000000e+00  0.00000000e+00
  0.00000000e+00  0.00000000e+00  0.00000000e+00  0.00000000e+00
  0.00000000e+00  0.00000000e+00  0.00000000e+00  0.00000000e+00
  0.00000000e+00  0.00000000e+00  0.00000000e+00  0.00000000e+00
  0.00000000e+00  0.00000000e+00 -3.92253486e-08  1.12365651e-07
  0.00000000e+00  0.00000000e+00  0.00000000e+00  2.73359414e-06]","[[-4.46626719e-05  7.81753916e-06]
 [ 6.94281189e-06 -4.15480211e-04]]",[],0.0,0.0
1787306869.1653302,0.16030877911432836,-0.9471239535849778,-0.12454531509103627,"[ 1.78434525e-06 -1.70272615e-07  0.00000000e+00  0.00000000e+00
  0.00000000e+00 -3.92253486e-08 -1.70272615e-07  6.26627514e-07
  0.00000000e+00  0.00000000e+00  0.00000000e+00  1.12365651e-07
  0.00000000e+00  0.00000000e+00  0.00000000e+00  0.00000000e+00
  0.00000000e+00  0.00000000e+00  0.00000000e+00  0.00000000e+00
  0.00000000e+00  0.00000000e+00  0.00000000e+00  0.00000000e+00
  0.00000000e+00  0.00000000e+00  0.00000000e+00  0.00000000e+00
  0.00000000e+00  0.00000000e+00 -3.92253486e-08  1.12365651e-07
  0.00000000e+00  0.00000000e+00  0.00000000e+00  2.73359414e-06]","[[-4.46626719e-05  7.81753916e-06]
 [ 6.94281189e-06 -4.15480211e-04]]",[],0.0,0.0
1787306869.228731,0.15793195859378256,-0.9472750244700632,-0.12966484292085445,"[ 1.94487653e-06 -1.97377656e-07  0.00000000e+00  0.00000000e+00
  0.00000000e+00 -3.85748158e-08 -1.97377656e-07  6.12459064e-07
  0.00000000e+00  0.00000000e+00  0.00000000e+00  1.04388542e-07
  0.00000000e+00  0.00000000e+00  0.00000000e+00  0.00000000e+00
  0.00000000e+00  0.00000000e+00  0.00000000e+00  0.00000000e+00
  0.00000000e+00  0.00000000e+00  0.00000000e+00  0.00000000e+00
  0.00000000e+00  0.00000000e+00  0.00000000e+00  0.00000000e+00
  0.00000000e+00  0.00000000e+00 -3.85748158e-08  1.04388542e-07
  0.00000000e+00  0.00000000e+00  0.00000000e+00  2.92824495e-06]","[[-4.87076880e-05  1.10857708e-06]
 [ 7.63955383e-06 -3.94547301e-04]]",[],0.0,0.0
1787306869.2726696,0.15793195859378256,-0.9472750244700632,-0.12966484292085445,"[ 1.94487653e-06 -1.97377656e-07  0.00000000e+00  0.00000000e+00
  0.00000000e+00 -3.85748158e-08 -1.97377656e-07  6.12459064e-07
  0.00000000e+00  0.00000000e+00  0.00000000e+00  1.04388542e-07
  0.00000000e+00  0.00000000e+00  0.00000000e+00  0.00000000e+00
  0.00000000e+00  0.00000000e+00  0.00000000e+00  0.00000000e+00
  0.00000000e+00  0.00000000e+00  0.00000000e+00  0.00000000e+00
  0.00000000e+00  0.00000000e+00  0.00000000e+00  0.00000000e+00
  0.00000000e+00  0.00000000e+00 -3.85748158e-08  1.04388542e-07
  0.00000000e+00  0.00000000e+00  0.00000000e+00  2.92824495e-06]","[[-4.87076880e-05  1.10857708e-06]
 [ 7.63955383e-06 -3.94547301e-04]]",[],0.0,0.0
1787306869.7456083,0.15793195859378256,-0.9472750244700632,-0.12966484292085445,"[ 1.94487653e-06 -1.97377656e-07  0.00000000e+00  0.00000000e+00
  0.00000000e+00 -3.85748158e-08 -1.97377656e-07  6.12459064e-07
  0.00000000e+00  0.00000000e+00  0.00000000e+00  1.04388542e-07
  0.00000000e+00  0.00000000e+00  0.00000000e+00  0.00000000e+00
  0.00000000e+00  0.00000000e+00  0.00000000e+00  0.00000000e+00
  0.00000000e+00  0.00000000e+00  0.00000000e+00  0.00000000e+00
  0.00000000e+00  0.00000000e+00  0.00000000e+00  0.00000000e+00
  0.00000000e+00  0.00000000e+00 -3.85748158e-08  1.04388542e-07
  0.00000000e+00  0.00000000e+00  0.00000000e+00  2.92824495e-06]","[[-4.87076880e-05  1.10857708e-06]
 [ 7.63955383e-06 -3.94547301e-04]]",[],0.0,0.0
1787306869.7629104,0.15539567417802064,-0.9475010472348009,-0.13632304515910665,"[ 1.90219045e-06 -1.98597537e-07  0.00000000e+00  0.00000000e+00
  0.00000000e+00 -5.85852347e-08 -1.98597537e-07  5.95430850e-07
  0.00000000e+00  0.00000000e+00  0.00000000e+00  1.05479976e-07
  0.00000000e+00  0.00000000e+00  0.00000000e+00  0.00000000e+00
  0.00000000e+00  0.00000000e+00  0.00000000e+00  0.00000000e+00
  0.00000000e+00  0.00000000e+00  0.00000000e+00  0.00000000e+00
  0.00000000e+00  0.00000000e+00  0.00000000e+00  0.00000000e+00
  0.00000000e+00  0.00000000e+00 -5.85852347e-08  1.05479976e-07
  0.00000000e+00  0.00000000e+00  0.00000000e+00  2.55209893e-06]","[[-4.76368236e-05  3.26626619e-05]
 [ 7.68632156e-06 -3.88617021e-04]]",[],0.0,0.0
1787306869.8621566,0.15539567417802064,-0.9475010472348009,-0.13632304515910665,"[ 1.90219045e-06 -1.98597537e-07  0.00000000e+00  0.00000000e+00
  0.00000000e+00 -5.85852347e-08 -1.98597537e-07  5.95430850e-07
  0.00000000e+00  0.00000000e+00  0.00000000e+00  1.05479976e-07
  0.00000000e+00  0.00000000e+00  0.00000000e+00  0.00000000e+00
  0.00000000e+00  0.00000000e+00  0.00000000e+00  0.00000000e+00
  0.00000000e+00  0.00000000e+00  0.00000000e+00  0.00000000e+00
  0.00000000e+00  0.00000000e+00  0.00000000e+00  0.00000000e+00
  0.00000000e+00  0.00000000e+00 -5.85852347e-08  1.05479976e-07
  0.00000000e+00  0.00000000e+00  0.00000000e+00  2.55209893e-06]","[[-4.76368236e-05  3.26626619e-05]
 [ 7.68632156e-06 -3.88617021e-04]]",[],0.0,0.0
1787306869.918804,0.15539567417802064,-0.9475010472348009,-0.13632304515910665,"[ 1.90219045e-06 -1.98597537e-07  0.00000000e+00  0.00000000e+00
  0.00000000e+00 -5.85852347e-08 -1.98597537e-07  5.95430850e-07
  0.00000000e+00  0.00000000e+00  0.00000000e+00  1.05479976e-07
  0.00000000e+00  0.00000000e+00  0.00000000e+00  0.00000000e+00
  0.00000000e+00  0.00000000e+00  0.00000000e+00  0.00000000e+00
  0.00000000e+00  0.00000000e+00  0.00000000e+00  0.00000000e+00
  0.00000000e+00  0.00000000e+00  0.00000000e+00  0.00000000e+00
  0.00000000e+00  0.00000000e+00 -5.85852347e-08  1.05479976e-07
  0.00000000e+00  0.00000000e+00  0.00000000e+00  2.55209893e-06]","[[-4.76368236e-05  3.26626619e-05]
 [ 7.68632156e-06 -3.88617021e-04]]",[],0.0,0.0
1787306869.964114,0.15539567417802064,-0.9475010472348009,-0.13632304515910665,"[ 1.90219045e-06 -1.98597537e-07  0.00000000e+00  0.00000000e+00
  0.00000000e+00 -5.85852347e-08 -1.98597537e-07  5.95430850e-07
  0.00000000e+00  0.00000000e+00  0.00000000e+00  1.05479976e-07
  0.00000000e+00  0.00000000e+00  0.00000000e+00  0.00000000e+00
  0.00000000e+00  0.00000000e+00  0.00000000e+00  0.00000000e+00
  0.00000000e+00  0.00000000e+00  0.00000000e+00  0.00000000e+00
  0.00000000e+00  0.00000000e+00  0.00000000e+00  0.00000000e+00
  0.00000000e+00  0.00000000e+00 -5.85852347e-08  1.05479976e-07
  0.00000000e+00  0.00000000e+00  0.00000000e+00  2.55209893e-06]","[[-4.76368236e-05  3.26626619e-05]
 [ 7.68632156e-06 -3.88617021e-04]]",[],0.0,0.0
1787306870.013438,0.15539567417802064,-0.9475010472348009,-0.13632304515910665,"[ 1.90219045e-06 -1.98597537e-07  0.00000000e+00  0.00000000e+00
  0.00000000e+00 -5.85852347e-08 -1.98597537e-07  5.95430850e-07
  0.00000000e+00  0.00000000e+00  0.00000000e+00  1.05479976e-07
  0.00000000e+00  0.00000000e+00  0.00000000e+00  0.00000000e+00
  0.00000000e+00  0.00000000e+00  0.00000000e+00  0.00000000e+00
  0.00000000e+00  0.00000000e+00  0.00000000e+00  0.00000000e+00
  0.00000000e+00  0.00000000e+00  0.00000000e+00  0.00000000e+00
  0.00000000e+00  0.00000000e+00 -5.85852347e-08  1.05479976e-07
  0.00000000e+00  0.00000000e+00  0.00000000e+00  2.55209893e-06]","[[-4.76368236e-05  3.26626619e-05]
 [ 7.68632156e-06 -3.88617021e-04]]",[],0.0,0.0
1787306870.0822222,0.15539567417802064,-0.9475010472348009,-0.13632304515910665,"[ 1.90219045e-06 -1.98597537e-07  0.00000000e+00  0.00000000e+00
  0.00000000e+00 -5.85852347e-08 -1.98597537e-07  5.95430850e-07
  0.00000000e+00  0.00000000e+00  0.00000000e+00  1.05479976e-07
  0.00000000e+00  0.00000000e+00  0.00000000e+00  0.00000000e+00
  0.00000000e+00  0.00000000e+00  0.00000000e+00  0.00000000e+00
  0.00000000e+00  0.00000000e+00  0.00000000e+00  0.00000000e+00
  0.00000000e+00  0.00000000e+00  0.00000000e+00  0.00000000e+00
  0.00000000e+00  0.00000000e+00 -5.85852347e-08  1.05479976e-07
  0.00000000e+00  0.00000000e+00  0.00000000e+00  2.55209893e-06]","[[-4.76368236e-05  3.26626619e-05]
 [ 7.68632156e-06 -3.88617021e-04]]",[],0.0,0.0
1787306870.1142125,0.15539567417802064,-0.9475010472348009,-0.13632304515910665,"[ 1.90219045e-06 -1.98597537e-07  0.00000000e+00  0.00000000e+00
  0.00000000e+00 -5.85852347e-08 -1.98597537e-07  5.95430850e-07
  0.00000000e+00  0.00000000e+00  0.00000000e+00  1.05479976e-07
  0.00000000e+00  0.00000000e+00  0.00000000e+00  0.00000000e+00
  0.00000000e+00  0.00000000e+00  0.00000000e+00  0.00000000e+00
  0.00000000e+00  0.00000000e+00  0.00000000e+00  0.00000000e+00
  0.00000000e+00  0.00000000e+00  0.00000000e+00  0.00000000e+00
  0.00000000e+00  0.00000000e+00 -5.85852347e-08  1.05479976e-07
  0.00000000e+00  0.00000000e+00  0.00000000e+00  2.55209893e-06]","[[-4.76368236e-05  3.26626619e-05]
 [ 7.68632156e-06 -3.88617021e-04]]",[],0.0,0.0
1787306870.16907,0.15539567417802064,-0.9475010472348009,-0.13632304515910665,"[ 1.90219045e-06 -1.98597537e-07  0.00000000e+00  0.00000000e+00
  0.00000000e+00 -5.85852347e-08 -1.98597537e-07  5.95430850e-07
  0.00000000e+00  0.00000000e+00  0.00000000e+00  1.05479976e-07
  0.00000000e+00  0.00000000e+00  0.00000000e+00  0.00000000e+00
  0.00000000e+00  0.00000000e+00  0.00000000e+00  0.00000000e+00
  0.00000000e+00  0.00000000e+00  0.00000000e+00  0.00000000e+00
  0.00000000e+00  0.00000000e+00  0.00000000e+00  0.00000000e+00
  0.00000000e+00  0.00000000e+00 -5.85852347e-08  1.05479976e-07
  0.00000000e+00  0.00000000e+00  0.00000000e+00  2.55209893e-06]","[[-4.76368236e-05  3.26626619e-05]
 [ 7.68632156e-06 -3.88617021e-04]]",[],0.0,0.0
1787306870.2707708,0.15539567417802064,-0.9475010472348009,-0.13632304515910665,"[ 1.90219045e-06 -1.98597537e-07  0.00000000e+00  0.00000000e+00
  0.00000000e+00 -5.85852347e-08 -1.98597537e-07  5.95430850e-07
  0.00000000e+00  0.00000000e+00  0.00000000e+00  1.05479976e-07
  0.00000000e+00  0.00000000e+00  0.00000000e+00  0.00000000e+00
  0.00000000e+00  0.00000000e+00  0.00000000e+00  0.00000000e+00
  0.00000000e+00  0.00000000e+00  0.00000000e+00  0.00000000e+00
  0.00000000e+00  0.00000000e+00  0.00000000e+00  0.00000000e+00
  0.00000000e+00  0.00000000e+00 -5.85852347e-08  1.05479976e-07
  0.00000000e+00  0.00000000e+00  0.00000000e+00  2.55209893e-06]","[[-4.76368236e-05  3.26626619e-05]
 [ 7.68632156e-06 -3.88617021e-04]]",[],0.0,0.0
1787306870.32912,0.15539567417802064,-0.9475010472348009,-0.13632304515910665,"[ 1.90219045e-06 -1.98597537e-07  0.00000000e+00  0.00000000e+00
  0.00000000e+00 -5.85852347e-08 -1.98597537e-07  5.95430850e-07
  0.00000000e+00  0.00000000e+00  0.00000000e+00  1.05479976e-07
  0.00000000e+00  0.00000000e+00  0.00000000e+00  0.00000000e+00
  0.00000000e+00  0.00000000e+00  0.00000000e+00  0.00000000e+00
  0.00000000e+00  0.00000000e+00  0.00000000e+00  0.00000000e+00
  0.00000000e+00  0.00000000e+00  0.00000000e+00  0.00000000e+00
  0.00000000e+00  0.00000000e+00 -5.85852347e-08  1.05479976e-07
  0.00000000e+00  0.00000000e+00  0.00000000e+00  2.55209893e-06]","[[-4.76368236e-05  3.26626619e-05]
 [ 7.68632156e-06 -3.88617021e-04]]",[],0.0,0.0
1787306870.3956964,0.15539567417802064,-0.9475010472348009,-0.13632304515910665,"[ 1.90219045e-06 -1.98597537e-07  0.00000000e+00  0.00000000e+00
  0.00000000e+00 -5.85852347e-08 -1.98597537e-07  5.95430850e-07
  0.00000000e+00  0.00000000e+00  0.00000000e+00  1.05479976e-07
  0.00000000e+00  0.00000000e+00  0.00000000e+00  0.00000000e+00
  0.00000000e+00  0.00000000e+00  0.00000000e+00  0.00000000e+00
  0.00000000e+00  0.00000000e+00  0.00000000e+00  0.00000000e+00
  0.00000000e+00  0.00000000e+00  0.00000000e+00  0.00000000e+00
  0.00000000e+00  0.00000000e+00 -5.85852347e-08  1.05479976e-07
  0.00000000e+00  0.00000000e+00  0.00000000e+00  2.55209893e-06]","[[-4.76368236e-05  3.26626619e-05]
 [ 7.68632156e-06 -3.88617021e-04]]",[],0.0,0.0
1787306870.4906182,0.15539567417802064,-0.9475010472348009,-0.13632304515910665,"[ 1.90219045e-06 -1.98597537e-07  0.00000000e+00  0.00000000e+00
  0.00000000e+00 -5.85852347e-08 -1.98597537e-07  5.95430850e-07
  0.00000000e+00  0.00000000e+00  0.00000000e+00  1.05479976e-07
  0.00000000e+00  0.00000000e+00  0.00000000e+00  0.00000000e+00
  0.00000000e+00  0.00000000e+00  0.00000000e+00  0.00000000e+00
  0.00000000e+00  0.00000000e+00  0.00000000e+00  0.00000000e+00
  0.00000000e+00  0.00000000e+00  0.00000000e+00  0.00000000e+00
  0.00000000e+00  0.00000000e+00 -5.85852347e-08  1.05479976e-07
  0.00000000e+00  0.00000000e+00  0.00000000e+00  2.55209893e-06]","[[-4.76368236e-05  3.26626619e-05]
 [ 7.68632156e-06 -3.88617021e-04]]",[],0.0,0.0
1787306870.7267177,0.15539567417802064,-0.9475010472348009,-0.13632304515910665,"[ 1.90219045e-06 -1.98597537e-07  0.00000000e+00  0.00000000e+00
  0.00000000e+00 -5.85852347e-08 -1.98597537e-07  5.95430850e-07
  0.00000000e+00  0.00000000e+00  0.00000000e+00  1.05479976e-07
  0.00000000e+00  0.00000000e+00  0.00000000e+00  0.00000000e+00
  0.00000000e+00  0.00000000e+00  0.00000000e+00  0.00000000e+00
  0.00000000e+00  0.00000000e+00  0.00000000e+00  0.00000000e+00
  0.00000000e+00  0.00000000e+00  0.00000000e+00  0.00000000e+00
  0.00000000e+00  0.00000000e+00 -5.85852347e-08  1.05479976e-07
  0.00000000e+00  0.00000000e+00  0.00000000e+00  2.55209893e-06]","[[-4.76368236e-05  3.26626619e-05]
 [ 7.68632156e-06 -3.88617021e-04]]",[],0.0,0.0
1787306870.8990805,0.1520918257894861,-0.9475916379632707,-0.13962872176017307,"[ 2.06613655e-06 -2.29390367e-07  0.00000000e+00  0.00000000e+00
  0.00000000e+00 -2.27609690e-08 -2.29390367e-07  5.84607537e-07
  0.00000000e+00  0.00000000e+00  0.00000000e+00  9.50378447e-08
  0.00000000e+00  0.00000000e+00  0.00000000e+00  0.00000000e+00
  0.00000000e+00  0.00000000e+00  0.00000000e+00  0.00000000e+00
  0.00000000e+00  0.00000000e+00  0.00000000e+00  0.00000000e+00
  0.00000000e+00  0.00000000e+00  0.00000000e+00  0.00000000e+00
  0.00000000e+00  0.00000000e+00 -2.27609690e-08  9.50378447e-08
  0.00000000e+00  0.00000000e+00  0.00000000e+00  3.04261637e-06]","[[-5.19179805e-05  9.31393396e-07]
 [ 7.93116560e-06 -3.69583943e-04]]",[],0.0,0.0
1787306871.3258078,0.1520918257894861,-0.9475916379632707,-0.13962872176017307,"[ 2.06613655e-06 -2.29390367e-07  0.00000000e+00  0.00000000e+00
  0.00000000e+00 -2.27609690e-08 -2.29390367e-07  5.84607537e-07
  0.00000000e+00  0.00000000e+00  0.00000000e+00  9.50378447e-08
  0.00000000e+00  0.00000000e+00  0.00000000e+00  0.00000000e+00
  0.00000000e+00  0.00000000e+00  0.00000000e+00  0.00000000e+00
  0.00000000e+00  0.00000000e+00  0.00000000e+00  0.00000000e+00
  0.00000000e+00  0.00000000e+00  0.00000000e+00  0.00000000e+00
  0.00000000e+00  0.00000000e+00 -2.27609690e-08  9.50378447e-08
  0.00000000e+00  0.00000000e+00  0.00000000e+00  3.04261637e-06]","[[-5.19179805e-05  9.31393396e-07]
 [ 7.93116560e-06 -3.69583943e-04]]",[],0.0,0.0
1787306871.508752,0.14972323064060158,-0.9476339609819621,-0.1434617678006487,"[ 2.03198638e-06 -2.32549013e-07  0.00000000e+00  0.00000000e+00
  0.00000000e+00 -3.47934974e-08 -2.32549013e-07  5.71009286e-07
  0.00000000e+00  0.00000000e+00  0.00000000e+00  9.57850157e-08
  0.00000000e+00  0.00000000e+00  0.00000000e+00  0.00000000e+00
  0.00000000e+00  0.00000000e+00  0.00000000e+00  0.00000000e+00
  0.00000000e+00  0.00000000e+00  0.00000000e+00  0.00000000e+00
  0.00000000e+00  0.00000000e+00  0.00000000e+00  0.00000000e+00
  0.00000000e+00  0.00000000e+00 -3.47934974e-08  9.57850157e-08
  0.00000000e+00  0.00000000e+00  0.00000000e+00  2.77823517e-06]","[[-5.10827290e-05  2.26243772e-05]
 [ 7.98105660e-06 -3.65215231e-04]]",[],0.0,0.0
1787306871.513636,0.14972323064060158,-0.9476339609819621,-0.1434617678006487,"[ 2.03198638e-06 -2.32549013e-07  0.00000000e+00  0.00000000e+00
  0.00000000e+00 -3.47934974e-08 -2.32549013e-07  5.71009286e-07
  0.00000000e+00  0.00000000e+00  0.00000000e+00  9.57850157e-08
  0.00000000e+00  0.00000000e+00  0.00000000e+00  0.00000000e+00
  0.00000000e+00  0.00000000e+00  0.00000000e+00  0.00000000e+00
  0.00000000e+00  0.00000000e+00  0.00000000e+00  0.00000000e+00
  0.00000000e+00  0.00000000e+00  0.00000000e+00  0.00000000e+00
  0.00000000e+00  0.00000000e+00 -3.47934974e-08  9.57850157e-08
  0.00000000e+00  0.00000000e+00  0.00000000e+00  2.77823517e-06]","[[-5.10827290e-05  2.26243772e-05]
 [ 7.98105660e-06 -3.65215231e-04]]",[],0.0,0.0
1787306871.5631094,0.14972323064060158,-0.9476339609819621,-0.1434617678006487,"[ 2.03198638e-06 -2.32549013e-07  0.00000000e+00  0.00000000e+00
  0.00000000e+00 -3.47934974e-08 -2.32549013e-07  5.71009286e-07
  0.00000000e+00  0.00000000e+00  0.00000000e+00  9.57850157e-08
  0.00000000e+00  0.00000000e+00  0.00000000e+00  0.00000000e+00
  0.00000000e+00  0.00000000e+00  0.00000000e+00  0.00000000e+00
  0.00000000e+00  0.00000000e+00  0.00000000e+00  0.00000000e+00
  0.00000000e+00  0.00000000e+00  0.00000000e+00  0.00000000e+00
  0.00000000e+00  0.00000000e+00 -3.47934974e-08  9.57850157e-08
  0.00000000e+00  0.00000000e+00  0.00000000e+00  2.77823517e-06]","[[-5.10827290e-05  2.26243772e-05]
 [ 7.98105660e-06 -3.65215231e-04]]",[],0.0,0.0
1787306871.6238887,0.14972323064060158,-0.9476339609819621,-0.1434617678006487,"[ 2.03198638e-06 -2.32549013e-07  0.00000000e+00  0.00000000e+00
  0.00000000e+00 -3.47934974e-08 -2.32549013e-07  5.71009286e-07
  0.00000000e+00  0.00000000e+00  0.00000000e+00  9.57850157e-08
  0.00000000e+00  0.00000000e+00  0.00000000e+00  0.00000000e+00
  0.00000000e+00  0.00000000e+00  0.00000000e+00  0.00000000e+00
  0.00000000e+00  0.00000000e+00  0.00000000e+00  0.00000000e+00
  0.00000000e+00  0.00000000e+00  0.00000000e+00  0.00000000e+00
  0.00000000e+00  0.00000000e+00 -3.47934974e-08  9.57850157e-08
  0.00000000e+00  0.00000000e+00  0.00000000e+00  2.77823517e-06]","[[-5.10827290e-05  2.26243772e-05]
 [ 7.98105660e-06 -3.65215231e-04]]",[],0.0,0.0
1787306871.6645706,0.14972323064060158,-0.9476339609819621,-0.1434617678006487,"[ 2.03198638e-06 -2.32549013e-07  0.00000000e+00  0.00000000e+00
  0.00000000e+00 -3.47934974e-08 -2.32549013e-07  5.71009286e-07
  0.00000000e+00  0.00000000e+00  0.00000000e+00  9.57850157e-08
  0.00000000e+00  0.00000000e+00  0.00000000e+00  0.00000000e+00
  0.00000000e+00  0.00000000e+00  0.00000000e+00  0.00000000e+00
  0.00000000e+00  0.00000000e+00  0.00000000e+00  0.00000000e+00
  0.00000000e+00  0.00000000e+00  0.00000000e+00  0.00000000e+00
  0.00000000e+00  0.00000000e+00 -3.47934974e-08  9.57850157e-08
  0.00000000e+00  0.00000000e+00  0.00000000e+00  2.77823517e-06]","[[-5.10827290e-05  2.26243772e-05]
 [ 7.98105660e-06 -3.65215231e-04]]",[],0.0,0.0
1787306871.7205763,0.14972323064060158,-0.9476339609819621,-0.1434617678006487,"[ 2.03198638e-06 -2.32549013e-07  0.00000000e+00  0.00000000e+00
  0.00000000e+00 -3.47934974e-08 -2.32549013e-07  5.71009286e-07
  0.00000000e+00  0.00000000e+00  0.00000000e+00  9.57850157e-08
  0.00000000e+00  0.00000000e+00  0.00000000e+00  0.00000000e+00
  0.00000000e+00  0.00000000e+00  0.00000000e+00  0.00000000e+00
  0.00000000e+00  0.00000000e+00  0.00000000e+00  0.00000000e+00
  0.00000000e+00  0.00000000e+00  0.00000000e+00  0.00000000e+00
  0.00000000e+00  0.00000000e+00 -3.47934974e-08  9.57850157e-08
  0.00000000e+00  0.00000000e+00  0.00000000e+00  2.77823517e-06]","[[-5.10827290e-05  2.26243772e-05]
 [ 7.98105660e-06 -3.65215231e-04]]",[],0.0,0.0
1787306871.762796,0.14972323064060158,-0.9476339609819621,-0.1434617678006487,"[ 2.03198638e-06 -2.32549013e-07  0.00000000e+00  0.00000000e+00
  0.00000000e+00 -3.47934974e-08 -2.32549013e-07  5.71009286e-07
  0.00000000e+00  0.00000000e+00  0.00000000e+00  9.57850157e-08
  0.00000000e+00  0.00000000e+00  0.00000000e+00  0.00000000e+00
  0.00000000e+00  0.00000000e+00  0.00000000e+00  0.00000000e+00
  0.00000000e+00  0.00000000e+00  0.00000000e+00  0.00000000e+00
  0.00000000e+00  0.00000000e+00  0.00000000e+00  0.00000000e+00
  0.00000000e+00  0.00000000e+00 -3.47934974e-08  9.57850157e-08
  0.00000000e+00  0.00000000e+00  0.00000000e+00  2.77823517e-06]","[[-5.10827290e-05  2.26243772e-05]
 [ 7.98105660e-06 -3.65215231e-04]]",[],0.0,0.0
1787306871.816736,0.14972323064060158,-0.9476339609819621,-0.1434617678006487,"[ 2.03198638e-06 -2.32549013e-07  0.00000000e+00  0.00000000e+00
  0.00000000e+00 -3.47934974e-08 -2.32549013e-07  5.71009286e-07
  0.00000000e+00  0.00000000e+00  0.00000000e+00  9.57850157e-08
  0.00000000e+00  0.00000000e+00  0.00000000e+00  0.00000000e+00
  0.00000000e+00  0.00000000e+00  0.00000000e+00  0.00000000e+00
  0.00000000e+00  0.00000000e+00  0.00000000e+00  0.00000000e+00
  0.00000000e+00  0.00000000e+00  0.00000000e+00  0.00000000e+00
  0.00000000e+00  0.00000000e+00 -3.47934974e-08  9.57850157e-08
  0.00000000e+00  0.00000000e+00  0.00000000e+00  2.77823517e-06]","[[-5.10827290e-05  2.26243772e-05]
 [ 7.98105660e-06 -3.65215231e-04]]",[],0.0,0.0
1787306871.862416,0.14972323064060158,-0.9476339609819621,-0.1434617678006487,"[ 2.03198638e-06 -2.32549013e-07  0.00000000e+00  0.00000000e+00
  0.00000000e+00 -3.47934974e-08 -2.32549013e-07  5.71009286e-07
  0.00000000e+00  0.00000000e+00  0.00000000e+00  9.57850157e-08
  0.00000000e+00  0.00000000e+00  0.00000000e+00  0.00000000e+00
  0.00000000e+00  0.00000000e+00  0.00000000e+00  0.00000000e+00
  0.00000000e+00  0.00000000e+00  0.00000000e+00  0.00000000e+00
  0.00000000e+00  0.00000000e+00  0.00000000e+00  0.00000000e+00
  0.00000000e+00  0.00000000e+00 -3.47934974e-08  9.57850157e-08
  0.00000000e+00  0.00000000e+00  0.00000000e+00  2.77823517e-06]","[[-5.10827290e-05  2.26243772e-05]
 [ 7.98105660e-06 -3.65215231e-04]]",[],0.0,0.0
1787306871.913125,0.14972323064060158,-0.9476339609819621,-0.1434617678006487,"[ 2.03198638e-06 -2.32549013e-07  0.00000000e+00  0.00000000e+00
  0.00000000e+00 -3.47934974e-08 -2.32549013e-07  5.71009286e-07
  0.00000000e+00  0.00000000e+00  0.00000000e+00  9.57850157e-08
  0.00000000e+00  0.00000000e+00  0.00000000e+00  0.00000000e+00
  0.00000000e+00  0.00000000e+00  0.00000000e+00  0.00000000e+00
  0.00000000e+00  0.00000000e+00  0.00000000e+00  0.00000000e+00
  0.00000000e+00  0.00000000e+00  0.00000000e+00  0.00000000e+00
  0.00000000e+00  0.00000000e+00 -3.47934974e-08  9.57850157e-08
  0.00000000e+00  0.00000000e+00  0.00000000e+00  2.77823517e-06]","[[-5.10827290e-05  2.26243772e-05]
 [ 7.98105660e-06 -3.65215231e-04]]",[],0.0,0.0
1787306871.9697554,0.14972323064060158,-0.9476339609819621,-0.1434617678006487,"[ 2.03198638e-06 -2.32549013e-07  0.00000000e+00  0.00000000e+00
  0.00000000e+00 -3.47934974e-08 -2.32549013e-07  5.71009286e-07
  0.00000000e+00  0.00000000e+00  0.00000000e+00  9.57850157e-08
  0.00000000e+00  0.00000000e+00  0.00000000e+00  0.00000000e+00
  0.00000000e+00  0.00000000e+00  0.00000000e+00  0.00000000e+00
  0.00000000e+00  0.00000000e+00  0.00000000e+00  0.00000000e+00
  0.00000000e+00  0.00000000e+00  0.00000000e+00  0.00000000e+00
  0.00000000e+00  0.00000000e+00 -3.47934974e-08  9.57850157e-08
  0.00000000e+00  0.00000000e+00  0.00000000e+00  2.77823517e-06]","[[-5.10827290e-05  2.26243772e-05]
 [ 7.98105660e-06 -3.65215231e-04]]",[],0.0,0.0
1787306872.0125198,0.14972323064060158,-0.9476339609819621,-0.1434617678006487,"[ 2.03198638e-06 -2.32549013e-07  0.00000000e+00  0.00000000e+00
  0.00000000e+00 -3.47934974e-08 -2.32549013e-07  5.71009286e-07
  0.00000000e+00  0.00000000e+00  0.00000000e+00  9.57850157e-08
  0.00000000e+00  0.00000000e+00  0.00000000e+00  0.00000000e+00
  0.00000000e+00  0.00000000e+00  0.00000000e+00  0.00000000e+00
  0.00000000e+00  0.00000000e+00  0.00000000e+00  0.00000000e+00
  0.00000000e+00  0.00000000e+00  0.00000000e+00  0.00000000e+00
  0.00000000e+00  0.00000000e+00 -3.47934974e-08  9.57850157e-08
  0.00000000e+00  0.00000000e+00  0.00000000e+00  2.77823517e-06]","[[-5.10827290e-05  2.26243772e-05]
 [ 7.98105660e-06 -3.65215231e-04]]",[],0.0,0.0
1787306872.0628922,0.14972323064060158,-0.9476339609819621,-0.1434617678006487,"[ 2.03198638e-06 -2.32549013e-07  0.00000000e+00  0.00000000e+00
  0.00000000e+00 -3.47934974e-08 -2.32549013e-07  5.71009286e-07
  0.00000000e+00  0.00000000e+00  0.00000000e+00  9.57850157e-08
  0.00000000e+00  0.00000000e+00  0.00000000e+00  0.00000000e+00
  0.00000000e+00  0.00000000e+00  0.00000000e+00  0.00000000e+00
  0.00000000e+00  0.00000000e+00  0.00000000e+00  0.00000000e+00
  0.00000000e+00  0.00000000e+00  0.00000000e+00  0.00000000e+00
  0.00000000e+00  0.00000000e+00 -3.47934974e-08  9.57850157e-08
  0.00000000e+00  0.00000000e+00  0.00000000e+00  2.77823517e-06]","[[-5.10827290e-05  2.26243772e-05]
 [ 7.98105660e-06 -3.65215231e-04]]",[],0.0,0.0
1787306872.1128688,0.14770405126580122,-0.9477687516429254,-0.14311838373943875,"[ 2.05746268e-06 -2.43019072e-07  0.00000000e+00  0.00000000e+00
  0.00000000e+00 -6.67498398e-08 -2.43019072e-07  5.58679022e-07
  0.00000000e+00  0.00000000e+00  0.00000000e+00  9.73132670e-08
  0.00000000e+00  0.00000000e+00  0.00000000e+00  0.00000000e+00
  0.00000000e+00  0.00000000e+00  0.00000000e+00  0.00000000e+00
  0.00000000e+00  0.00000000e+00  0.00000000e+00  0.00000000e+00
  0.00000000e+00  0.00000000e+00  0.00000000e+00  0.00000000e+00
  0.00000000e+00  0.00000000e+00 -6.67498398e-08  9.73132670e-08
  0.00000000e+00  0.00000000e+00  0.00000000e+00  2.79675714e-06]","[[-5.16365878e-05  4.73066895e-05]
 [ 8.67401490e-06 -3.56652848e-04]]",[],0.0,0.0
1787306872.1877632,0.14770405126580122,-0.9477687516429254,-0.14311838373943875,"[ 2.05746268e-06 -2.43019072e-07  0.00000000e+00  0.00000000e+00
  0.00000000e+00 -6.67498398e-08 -2.43019072e-07  5.58679022e-07
  0.00000000e+00  0.00000000e+00  0.00000000e+00  9.73132670e-08
  0.00000000e+00  0.00000000e+00  0.00000000e+00  0.00000000e+00
  0.00000000e+00  0.00000000e+00  0.00000000e+00  0.00000000e+00
  0.00000000e+00  0.00000000e+00  0.00000000e+00  0.00000000e+00
  0.00000000e+00  0.00000000e+00  0.00000000e+00  0.00000000e+00
  0.00000000e+00  0.00000000e+00 -6.67498398e-08  9.73132670e-08
  0.00000000e+00  0.00000000e+00  0.00000000e+00  2.79675714e-06]","[[-5.16365878e-05  4.73066895e-05]
 [ 8.67401490e-06 -3.56652848e-04]]",[],0.0,0.0
1787306872.229883,0.14770405126580122,-0.9477687516429254,-0.14311838373943875,"[ 2.05746268e-06 -2.43019072e-07  0.00000000e+00  0.00000000e+00
  0.00000000e+00 -6.67498398e-08 -2.43019072e-07  5.58679022e-07
  0.00000000e+00  0.00000000e+00  0.00000000e+00  9.73132670e-08
  0.00000000e+00  0.00000000e+00  0.00000000e+00  0.00000000e+00
  0.00000000e+00  0.00000000e+00  0.00000000e+00  0.00000000e+00
  0.00000000e+00  0.00000000e+00  0.00000000e+00  0.00000000e+00
  0.00000000e+00  0.00000000e+00  0.00000000e+00  0.00000000e+00
  0.00000000e+00  0.00000000e+00 -6.67498398e-08  9.73132670e-08
  0.00000000e+00  0.00000000e+00  0.00000000e+00  2.79675714e-06]","[[-5.16365878e-05  4.73066895e-05]
 [ 8.67401490e-06 -3.56652848e-04]]",[],0.0,0.0
1787306872.2727346,0.14770405126580122,-0.9477687516429254,-0.14311838373943875,"[ 2.05746268e-06 -2.43019072e-07  0.00000000e+00  0.00000000e+00
  0.00000000e+00 -6.67498398e-08 -2.43019072e-07  5.58679022e-07
  0.00000000e+00  0.00000000e+00  0.00000000e+00  9.73132670e-08
  0.00000000e+00  0.00000000e+00  0.00000000e+00  0.00000000e+00
  0.00000000e+00  0.00000000e+00  0.00000000e+00  0.00000000e+00
  0.00000000e+00  0.00000000e+00  0.00000000e+00  0.00000000e+00
  0.00000000e+00  0.00000000e+00  0.00000000e+00  0.00000000e+00
  0.00000000e+00  0.00000000e+00 -6.67498398e-08  9.73132670e-08
  0.00000000e+00  0.00000000e+00  0.00000000e+00  2.79675714e-06]","[[-5.16365878e-05  4.73066895e-05]
 [ 8.67401490e-06 -3.56652848e-04]]",[],0.0,0.0
1787306872.3446102,0.14770405126580122,-0.9477687516429254,-0.14311838373943875,"[ 2.05746268e-06 -2.43019072e-07  0.00000000e+00  0.00000000e+00
  0.00000000e+00 -6.67498398e-08 -2.43019072e-07  5.58679022e-07
  0.00000000e+00  0.00000000e+00  0.00000000e+00  9.73132670e-08
  0.00000000e+00  0.00000000e+00  0.00000000e+00  0.00000000e+00
  0.00000000e+00  0.00000000e+00  0.00000000e+00  0.00000000e+00
  0.00000000e+00  0.00000000e+00  0.00000000e+00  0.00000000e+00
  0.00000000e+00  0.00000000e+00  0.00000000e+00  0.00000000e+00
  0.00000000e+00  0.00000000e+00 -6.67498398e-08  9.73132670e-08
  0.00000000e+00  0.00000000e+00  0.00000000e+00  2.79675714e-06]","[[-5.16365878e-05  4.73066895e-05]
 [ 8.67401490e-06 -3.56652848e-04]]",[],0.0,0.0
1787306872.3619812,0.14770405126580122,-0.9477687516429254,-0.14311838373943875,"[ 2.05746268e-06 -2.43019072e-07  0.00000000e+00  0.00000000e+00
  0.00000000e+00 -6.67498398e-08 -2.43019072e-07  5.58679022e-07
  0.00000000e+00  0.00000000e+00  0.00000000e+00  9.73132670e-08
  0.00000000e+00  0.00000000e+00  0.00000000e+00  0.00000000e+00
  0.00000000e+00  0.00000000e+00  0.00000000e+00  0.00000000e+00
  0.00000000e+00  0.00000000e+00  0.00000000e+00  0.00000000e+00
  0.00000000e+00  0.00000000e+00  0.00000000e+00  0.00000000e+00
  0.00000000e+00  0.00000000e+00 -6.67498398e-08  9.73132670e-08
  0.00000000e+00  0.00000000e+00  0.00000000e+00  2.79675714e-06]","[[-5.16365878e-05  4.73066895e-05]
 [ 8.67401490e-06 -3.56652848e-04]]",[],0.0,0.0
1787306872.4113593,0.14770405126580122,-0.9477687516429254,-0.14311838373943875,"[ 2.05746268e-06 -2.43019072e-07  0.00000000e+00  0.00000000e+00
  0.00000000e+00 -6.67498398e-08 -2.43019072e-07  5.58679022e-07
  0.00000000e+00  0.00000000e+00  0.00000000e+00  9.73132670e-08
  0.00000000e+00  0.00000000e+00  0.00000000e+00  0.00000000e+00
  0.00000000e+00  0.00000000e+00  0.00000000e+00  0.00000000e+00
  0.00000000e+00  0.00000000e+00  0.00000000e+00  0.00000000e+00
  0.00000000e+00  0.00000000e+00  0.00000000e+00  0.00000000e+00
  0.00000000e+00  0.00000000e+00 -6.67498398e-08  9.73132670e-08
  0.00000000e+00  0.00000000e+00  0.00000000e+00  2.79675714e-06]","[[-5.16365878e-05  4.73066895e-05]
 [ 8.67401490e-06 -3.56652848e-04]]",[],0.0,0.0
1787306872.4787574,0.14770405126580122,-0.9477687516429254,-0.14311838373943875,"[ 2.05746268e-06 -2.43019072e-07  0.00000000e+00  0.00000000e+00
  0.00000000e+00 -6.67498398e-08 -2.43019072e-07  5.58679022e-07
  0.00000000e+00  0.00000000e+00  0.00000000e+00  9.73132670e-08
  0.00000000e+00  0.00000000e+00  0.00000000e+00  0.00000000e+00
  0.00000000e+00  0.00000000e+00  0.00000000e+00  0.00000000e+00
  0.00000000e+00  0.00000000e+00  0.00000000e+00  0.00000000e+00
  0.00000000e+00  0.00000000e+00  0.00000000e+00  0.00000000e+00
  0.00000000e+00  0.00000000e+00 -6.67498398e-08  9.73132670e-08
  0.00000000e+00  0.00000000e+00  0.00000000e+00  2.79675714e-06]","[[-5.16365878e-05  4.73066895e-05]
 [ 8.67401490e-06 -3.56652848e-04]]",[],0.0,0.0
1787306872.5291727,0.14770405126580122,-0.9477687516429254,-0.14311838373943875,"[ 2.05746268e-06 -2.43019072e-07  0.00000000e+00  0.00000000e+00
  0.00000000e+00 -6.67498398e-08 -2.43019072e-07  5.58679022e-07
  0.00000000e+00  0.00000000e+00  0.00000000e+00  9.73132670e-08
  0.00000000e+00  0.00000000e+00  0.00000000e+00  0.00000000e+00
  0.00000000e+00  0.00000000e+00  0.00000000e+00  0.00000000e+00
  0.00000000e+00  0.00000000e+00  0.00000000e+00  0.00000000e+00
  0.00000000e+00  0.00000000e+00  0.00000000e+00  0.00000000e+00
  0.00000000e+00  0.00000000e+00 -6.67498398e-08  9.73132670e-08
  0.00000000e+00  0.00000000e+00  0.00000000e+00  2.79675714e-06]","[[-5.16365878e-05  4.73066895e-05]
 [ 8.67401490e-06 -3.56652848e-04]]",[],0.0,0.0
1787306872.5655003,0.14770405126580122,-0.9477687516429254,-0.14311838373943875,"[ 2.05746268e-06 -2.43019072e-07  0.00000000e+00  0.00000000e+00
  0.00000000e+00 -6.67498398e-08 -2.43019072e-07  5.58679022e-07
  0.00000000e+00  0.00000000e+00  0.00000000e+00  9.73132670e-08
  0.00000000e+00  0.00000000e+00  0.00000000e+00  0.00000000e+00
  0.00000000e+00  0.00000000e+00  0.00000000e+00  0.00000000e+00
  0.00000000e+00  0.00000000e+00  0.00000000e+00  0.00000000e+00
  0.00000000e+00  0.00000000e+00  0.00000000e+00  0.00000000e+00
  0.00000000e+00  0.00000000e+00 -6.67498398e-08  9.73132670e-08
  0.00000000e+00  0.00000000e+00  0.00000000e+00  2.79675714e-06]","[[-5.16365878e-05  4.73066895e-05]
 [ 8.67401490e-06 -3.56652848e-04]]",[],0.0,0.0
1787306872.611674,0.14770405126580122,-0.9477687516429254,-0.14311838373943875,"[ 2.05746268e-06 -2.43019072e-07  0.00000000e+00  0.00000000e+00
  0.00000000e+00 -6.67498398e-08 -2.43019072e-07  5.58679022e-07
  0.00000000e+00  0.00000000e+00  0.00000000e+00  9.73132670e-08
  0.00000000e+00  0.00000000e+00  0.00000000e+00  0.00000000e+00
  0.00000000e+00  0.00000000e+00  0.00000000e+00  0.00000000e+00
  0.00000000e+00  0.00000000e+00  0.00000000e+00  0.00000000e+00
  0.00000000e+00  0.00000000e+00  0.00000000e+00  0.00000000e+00
  0.00000000e+00  0.00000000e+00 -6.67498398e-08  9.73132670e-08
  0.00000000e+00  0.00000000e+00  0.00000000e+00  2.79675714e-06]","[[-5.16365878e-05  4.73066895e-05]
 [ 8.67401490e-06 -3.56652848e-04]]",[],0.0,0.0
1787306872.6631832,0.14770405126580122,-0.9477687516429254,-0.14311838373943875,"[ 2.05746268e-06 -2.43019072e-07  0.00000000e+00  0.00000000e+00
  0.00000000e+00 -6.67498398e-08 -2.43019072e-07  5.58679022e-07
  0.00000000e+00  0.00000000e+00  0.00000000e+00  9.73132670e-08
  0.00000000e+00  0.00000000e+00  0.00000000e+00  0.00000000e+00
  0.00000000e+00  0.00000000e+00  0.00000000e+00  0.00000000e+00
  0.00000000e+00  0.00000000e+00  0.00000000e+00  0.00000000e+00
  0.00000000e+00  0.00000000e+00  0.00000000e+00  0.00000000e+00
  0.00000000e+00  0.00000000e+00 -6.67498398e-08  9.73132670e-08
  0.00000000e+00  0.00000000e+00  0.00000000e+00  2.79675714e-06]","[[-5.16365878e-05  4.73066895e-05]
 [ 8.67401490e-06 -3.56652848e-04]]",[],0.0,0.0
1787306872.720599,0.14770405126580122,-0.9477687516429254,-0.14311838373943875,"[ 2.05746268e-06 -2.43019072e-07  0.00000000e+00  0.00000000e+00
  0.00000000e+00 -6.67498398e-08 -2.43019072e-07  5.58679022e-07
  0.00000000e+00  0.00000000e+00  0.00000000e+00  9.73132670e-08
  0.00000000e+00  0.00000000e+00  0.00000000e+00  0.00000000e+00
  0.00000000e+00  0.00000000e+00  0.00000000e+00  0.00000000e+00
  0.00000000e+00  0.00000000e+00  0.00000000e+00  0.00000000e+00
  0.00000000e+00  0.00000000e+00  0.00000000e+00  0.00000000e+00
  0.00000000e+00  0.00000000e+00 -6.67498398e-08  9.73132670e-08
  0.00000000e+00  0.00000000e+00  0.00000000e+00  2.79675714e-06]","[[-5.16365878e-05  4.73066895e-05]
 [ 8.67401490e-06 -3.56652848e-04]]",[],0.0,0.0
1787306872.7627177,0.14770405126580122,-0.9477687516429254,-0.14311838373943875,"[ 2.05746268e-06 -2.43019072e-07  0.00000000e+00  0.00000000e+00
  0.00000000e+00 -6.67498398e-08 -2.43019072e-07  5.58679022e-07
  0.00000000e+00  0.00000000e+00  0.00000000e+00  9.73132670e-08
  0.00000000e+00  0.00000000e+00  0.00000000e+00  0.00000000e+00
  0.00000000e+00  0.00000000e+00  0.00000000e+00  0.00000000e+00
  0.00000000e+00  0.00000000e+00  0.00000000e+00  0.00000000e+00
  0.00000000e+00  0.00000000e+00  0.00000000e+00  0.00000000e+00
  0.00000000e+00  0.00000000e+00 -6.67498398e-08  9.73132670e-08
  0.00000000e+00  0.00000000e+00  0.00000000e+00  2.79675714e-06]","[[-5.16365878e-05  4.73066895e-05]
 [ 8.67401490e-06 -3.56652848e-04]]",[],0.0,0.0
1787306872.812448,0.14770405126580122,-0.9477687516429254,-0.14311838373943875,"[ 2.05746268e-06 -2.43019072e-07  0.00000000e+00  0.00000000e+00
  0.00000000e+00 -6.67498398e-08 -2.43019072e-07  5.58679022e-07
  0.00000000e+00  0.00000000e+00  0.00000000e+00  9.73132670e-08
  0.00000000e+00  0.00000000e+00  0.00000000e+00  0.00000000e+00
  0.00000000e+00  0.00000000e+00  0.00000000e+00  0.00000000e+00
  0.00000000e+00  0.00000000e+00  0.00000000e+00  0.00000000e+00
  0.00000000e+00  0.00000000e+00  0.00000000e+00  0.00000000e+00
  0.00000000e+00  0.00000000e+00 -6.67498398e-08  9.73132670e-08
  0.00000000e+00  0.00000000e+00  0.00000000e+00  2.79675714e-06]","[[-5.16365878e-05  4.73066895e-05]
 [ 8.67401490e-06 -3.56652848e-04]]",[],0.0,0.0
1787306872.8999462,0.14770405126580122,-0.9477687516429254,-0.14311838373943875,"[ 2.05746268e-06 -2.43019072e-07  0.00000000e+00  0.00000000e+00
  0.00000000e+00 -6.67498398e-08 -2.43019072e-07  5.58679022e-07
  0.00000000e+00  0.00000000e+00  0.00000000e+00  9.73132670e-08
  0.00000000e+00  0.00000000e+00  0.00000000e+00  0.00000000e+00
  0.00000000e+00  0.00000000e+00  0.00000000e+00  0.00000000e+00
  0.00000000e+00  0.00000000e+00  0.00000000e+00  0.00000000e+00
  0.00000000e+00  0.00000000e+00  0.00000000e+00  0.00000000e+00
  0.00000000e+00  0.00000000e+00 -6.67498398e-08  9.73132670e-08
  0.00000000e+00  0.00000000e+00  0.00000000e+00  2.79675714e-06]","[[-5.16365878e-05  4.73066895e-05]
 [ 8.67401490e-06 -3.56652848e-04]]",[],0.0,0.0
1787306872.9167113,0.1444026551592921,-0.947876425970931,-0.14510507799577077,"[ 2.10467963e-06 -2.55667436e-07  0.00000000e+00  0.00000000e+00
  0.00000000e+00 -5.74362637e-08 -2.55667436e-07  5.47275788e-07
  0.00000000e+00  0.00000000e+00  0.00000000e+00  9.54772587e-08
  0.00000000e+00  0.00000000e+00  0.00000000e+00  0.00000000e+00
  0.00000000e+00  0.00000000e+00  0.00000000e+00  0.00000000e+00
  0.00000000e+00  0.00000000e+00  0.00000000e+00  0.00000000e+00
  0.00000000e+00  0.00000000e+00  0.00000000e+00  0.00000000e+00
  0.00000000e+00  0.00000000e+00 -5.74362637e-08  9.54772587e-08
  0.00000000e+00  0.00000000e+00  0.00000000e+00  2.86416079e-06]","[[-5.28417089e-05  3.02279069e-05]
 [ 8.97159759e-06 -3.47878939e-04]]",[],0.0,0.0
1787306872.963236,0.1444026551592921,-0.947876425970931,-0.14510507799577077,"[ 2.10467963e-06 -2.55667436e-07  0.00000000e+00  0.00000000e+00
  0.00000000e+00 -5.74362637e-08 -2.55667436e-07  5.47275788e-07
  0.00000000e+00  0.00000000e+00  0.00000000e+00  9.54772587e-08
  0.00000000e+00  0.00000000e+00  0.00000000e+00  0.00000000e+00
  0.00000000e+00  0.00000000e+00  0.00000000e+00  0.00000000e+00
  0.00000000e+00  0.00000000e+00  0.00000000e+00  0.00000000e+00
  0.00000000e+00  0.00000000e+00  0.00000000e+00  0.00000000e+00
  0.00000000e+00  0.00000000e+00 -5.74362637e-08  9.54772587e-08
  0.00000000e+00  0.00000000e+00  0.00000000e+00  2.86416079e-06]","[[-5.28417089e-05  3.02279069e-05]
 [ 8.97159759e-06 -3.47878939e-04]]",[],0.0,0.0
1787306873.015873,0.1444026551592921,-0.947876425970931,-0.14510507799577077,"[ 2.10467963e-06 -2.55667436e-07  0.00000000e+00  0.00000000e+00
  0.00000000e+00 -5.74362637e-08 -2.55667436e-07  5.47275788e-07
  0.00000000e+00  0.00000000e+00  0.00000000e+00  9.54772587e-08
  0.00000000e+00  0.00000000e+00  0.00000000e+00  0.00000000e+00
  0.00000000e+00  0.00000000e+00  0.00000000e+00  0.00000000e+00
  0.00000000e+00  0.00000000e+00  0.00000000e+00  0.00000000e+00
  0.00000000e+00  0.00000000e+00  0.00000000e+00  0.00000000e+00
  0.00000000e+00  0.00000000e+00 -5.74362637e-08  9.54772587e-08
  0.00000000e+00  0.00000000e+00  0.00000000e+00  2.86416079e-06]","[[-5.28417089e-05  3.02279069e-05]
 [ 8.97159759e-06 -3.47878939e-04]]",[],0.0,0.0
1787306873.0669374,0.1444026551592921,-0.947876425970931,-0.14510507799577077,"[ 2.10467963e-06 -2.55667436e-07  0.00000000e+00  0.00000000e+00
  0.00000000e+00 -5.74362637e-08 -2.55667436e-07  5.47275788e-07
  0.00000000e+00  0.00000000e+00  0.00000000e+00  9.54772587e-08
  0.00000000e+00  0.00000000e+00  0.00000000e+00  0.00000000e+00
  0.00000000e+00  0.00000000e+00  0.00000000e+00  0.00000000e+00
  0.00000000e+00  0.00000000e+00  0.00000000e+00  0.00000000e+00
  0.00000000e+00  0.00000000e+00  0.00000000e+00  0.00000000e+00
  0.00000000e+00  0.00000000e+00 -5.74362637e-08  9.54772587e-08
  0.00000000e+00  0.00000000e+00  0.00000000e+00  2.86416079e-06]","[[-5.28417089e-05  3.02279069e-05]
 [ 8.97159759e-06 -3.47878939e-04]]",[],0.0,0.0
1787306873.113499,0.1444026551592921,-0.947876425970931,-0.14510507799577077,"[ 2.10467963e-06 -2.55667436e-07  0.00000000e+00  0.00000000e+00
  0.00000000e+00 -5.74362637e-08 -2.55667436e-07  5.47275788e-07
  0.00000000e+00  0.00000000e+00  0.00000000e+00  9.54772587e-08
  0.00000000e+00  0.00000000e+00  0.00000000e+00  0.00000000e+00
