time,x,y,yaw,cov_prop,K_gain,innovation,v_ekf,omega_ekf
1787152893.4130828,1.6590189481781004,0.7788059416122455,1.8339361771300204,"[ 7.20373349e-05 -2.36034397e-07  0.00000000e+00  0.00000000e+00
  0.00000000e+00 -5.13229559e-06 -2.36034397e-07  5.19115741e-05
  0.00000000e+00  0.00000000e+00  0.00000000e+00 -6.03378409e-07
  0.00000000e+00  0.00000000e+00  0.00000000e+00  0.00000000e+00
  0.00000000e+00  0.00000000e+00  0.00000000e+00  0.00000000e+00
  0.00000000e+00  0.00000000e+00  0.00000000e+00  0.00000000e+00
  0.00000000e+00  0.00000000e+00  0.00000000e+00  0.00000000e+00
  0.00000000e+00  0.00000000e+00 -5.13229559e-06 -6.03378409e-07
  0.00000000e+00  0.00000000e+00  0.00000000e+00  4.24720068e-06]","[[-0.00051121  0.06101022]
 [-0.0012415  -0.01050213]]",[],0.0,0.0
1787152893.4658432,1.6590189481781004,0.7788059416122455,1.8339361771300204,"[ 7.20373349e-05 -2.36034397e-07  0.00000000e+00  0.00000000e+00
  0.00000000e+00 -5.13229559e-06 -2.36034397e-07  5.19115741e-05
  0.00000000e+00  0.00000000e+00  0.00000000e+00 -6.03378409e-07
  0.00000000e+00  0.00000000e+00  0.00000000e+00  0.00000000e+00
  0.00000000e+00  0.00000000e+00  0.00000000e+00  0.00000000e+00
  0.00000000e+00  0.00000000e+00  0.00000000e+00  0.00000000e+00
  0.00000000e+00  0.00000000e+00  0.00000000e+00  0.00000000e+00
  0.00000000e+00  0.00000000e+00 -5.13229559e-06 -6.03378409e-07
  0.00000000e+00  0.00000000e+00  0.00000000e+00  4.24720068e-06]","[[-0.00051121  0.06101022]
 [-0.0012415  -0.01050213]]",[],0.0,0.0
1787152893.5192556,1.6590189481781004,0.7788059416122455,1.8339361771300204,"[ 7.20373349e-05 -2.36034397e-07  0.00000000e+00  0.00000000e+00
  0.00000000e+00 -5.13229559e-06 -2.36034397e-07  5.19115741e-05
  0.00000000e+00  0.00000000e+00  0.00000000e+00 -6.03378409e-07
  0.00000000e+00  0.00000000e+00  0.00000000e+00  0.00000000e+00
  0.00000000e+00  0.00000000e+00  0.00000000e+00  0.00000000e+00
  0.00000000e+00  0.00000000e+00  0.00000000e+00  0.00000000e+00
  0.00000000e+00  0.00000000e+00  0.00000000e+00  0.00000000e+00
  0.00000000e+00  0.00000000e+00 -5.13229559e-06 -6.03378409e-07
  0.00000000e+00  0.00000000e+00  0.00000000e+00  4.24720068e-06]","[[-0.00051121  0.06101022]
 [-0.0012415  -0.01050213]]",[],0.0,0.0
1787152893.5646093,1.6590189481781004,0.7788059416122455,1.8339361771300204,"[ 7.20373349e-05 -2.36034397e-07  0.00000000e+00  0.00000000e+00
  0.00000000e+00 -5.13229559e-06 -2.36034397e-07  5.19115741e-05
  0.00000000e+00  0.00000000e+00  0.00000000e+00 -6.03378409e-07
  0.00000000e+00  0.00000000e+00  0.00000000e+00  0.00000000e+00
  0.00000000e+00  0.00000000e+00  0.00000000e+00  0.00000000e+00
  0.00000000e+00  0.00000000e+00  0.00000000e+00  0.00000000e+00
  0.00000000e+00  0.00000000e+00  0.00000000e+00  0.00000000e+00
  0.00000000e+00  0.00000000e+00 -5.13229559e-06 -6.03378409e-07
  0.00000000e+00  0.00000000e+00  0.00000000e+00  4.24720068e-06]","[[-0.00051121  0.06101022]
 [-0.0012415  -0.01050213]]",[],0.0,0.0
1787152893.6153781,1.6590189481781004,0.7788059416122455,1.8339361771300204,"[ 7.20373349e-05 -2.36034397e-07  0.00000000e+00  0.00000000e+00
  0.00000000e+00 -5.13229559e-06 -2.36034397e-07  5.19115741e-05
  0.00000000e+00  0.00000000e+00  0.00000000e+00 -6.03378409e-07
  0.00000000e+00  0.00000000e+00  0.00000000e+00  0.00000000e+00
  0.00000000e+00  0.00000000e+00  0.00000000e+00  0.00000000e+00
  0.00000000e+00  0.00000000e+00  0.00000000e+00  0.00000000e+00
  0.00000000e+00  0.00000000e+00  0.00000000e+00  0.00000000e+00
  0.00000000e+00  0.00000000e+00 -5.13229559e-06 -6.03378409e-07
  0.00000000e+00  0.00000000e+00  0.00000000e+00  4.24720068e-06]","[[-0.00051121  0.06101022]
 [-0.0012415  -0.01050213]]",[],0.0,0.0
1787152893.6636443,1.6590189481781004,0.7788059416122455,1.8339361771300204,"[ 7.20373349e-05 -2.36034397e-07  0.00000000e+00  0.00000000e+00
  0.00000000e+00 -5.13229559e-06 -2.36034397e-07  5.19115741e-05
  0.00000000e+00  0.00000000e+00  0.00000000e+00 -6.03378409e-07
  0.00000000e+00  0.00000000e+00  0.00000000e+00  0.00000000e+00
  0.00000000e+00  0.00000000e+00  0.00000000e+00  0.00000000e+00
  0.00000000e+00  0.00000000e+00  0.00000000e+00  0.00000000e+00
  0.00000000e+00  0.00000000e+00  0.00000000e+00  0.00000000e+00
  0.00000000e+00  0.00000000e+00 -5.13229559e-06 -6.03378409e-07
  0.00000000e+00  0.00000000e+00  0.00000000e+00  4.24720068e-06]","[[-0.00051121  0.06101022]
 [-0.0012415  -0.01050213]]",[],0.0,0.0
1787152893.718512,1.6590189481781004,0.7788059416122455,1.8339361771300204,"[ 7.20373349e-05 -2.36034397e-07  0.00000000e+00  0.00000000e+00
  0.00000000e+00 -5.13229559e-06 -2.36034397e-07  5.19115741e-05
  0.00000000e+00  0.00000000e+00  0.00000000e+00 -6.03378409e-07
  0.00000000e+00  0.00000000e+00  0.00000000e+00  0.00000000e+00
  0.00000000e+00  0.00000000e+00  0.00000000e+00  0.00000000e+00
  0.00000000e+00  0.00000000e+00  0.00000000e+00  0.00000000e+00
  0.00000000e+00  0.00000000e+00  0.00000000e+00  0.00000000e+00
  0.00000000e+00  0.00000000e+00 -5.13229559e-06 -6.03378409e-07
  0.00000000e+00  0.00000000e+00  0.00000000e+00  4.24720068e-06]","[[-0.00051121  0.06101022]
 [-0.0012415  -0.01050213]]",[],0.0,0.0
1787152893.7739096,1.6590189481781004,0.7788059416122455,1.8339361771300204,"[ 7.20373349e-05 -2.36034397e-07  0.00000000e+00  0.00000000e+00
  0.00000000e+00 -5.13229559e-06 -2.36034397e-07  5.19115741e-05
  0.00000000e+00  0.00000000e+00  0.00000000e+00 -6.03378409e-07
  0.00000000e+00  0.00000000e+00  0.00000000e+00  0.00000000e+00
  0.00000000e+00  0.00000000e+00  0.00000000e+00  0.00000000e+00
  0.00000000e+00  0.00000000e+00  0.00000000e+00  0.00000000e+00
  0.00000000e+00  0.00000000e+00  0.00000000e+00  0.00000000e+00
  0.00000000e+00  0.00000000e+00 -5.13229559e-06 -6.03378409e-07
  0.00000000e+00  0.00000000e+00  0.00000000e+00  4.24720068e-06]","[[-0.00051121  0.06101022]
 [-0.0012415  -0.01050213]]",[],0.0,0.0
1787152894.050833,1.6590189481781004,0.7788059416122455,1.8339361771300204,"[ 7.20373349e-05 -2.36034397e-07  0.00000000e+00  0.00000000e+00
  0.00000000e+00 -5.13229559e-06 -2.36034397e-07  5.19115741e-05
  0.00000000e+00  0.00000000e+00  0.00000000e+00 -6.03378409e-07
  0.00000000e+00  0.00000000e+00  0.00000000e+00  0.00000000e+00
  0.00000000e+00  0.00000000e+00  0.00000000e+00  0.00000000e+00
  0.00000000e+00  0.00000000e+00  0.00000000e+00  0.00000000e+00
  0.00000000e+00  0.00000000e+00  0.00000000e+00  0.00000000e+00
  0.00000000e+00  0.00000000e+00 -5.13229559e-06 -6.03378409e-07
  0.00000000e+00  0.00000000e+00  0.00000000e+00  4.24720068e-06]","[[-0.00051121  0.06101022]
 [-0.0012415  -0.01050213]]",[],0.0,0.0
1787152894.5472813,1.671706699901598,0.7630031158539581,1.8441592030921168,"[ 3.53802237e-05  8.87653820e-08  0.00000000e+00  0.00000000e+00
  0.00000000e+00 -2.98282789e-06  8.87653820e-08  2.54395556e-05
  0.00000000e+00  0.00000000e+00  0.00000000e+00 -2.98628229e-07
  0.00000000e+00  0.00000000e+00  0.00000000e+00  0.00000000e+00
  0.00000000e+00  0.00000000e+00  0.00000000e+00  0.00000000e+00
  0.00000000e+00  0.00000000e+00  0.00000000e+00  0.00000000e+00
  0.00000000e+00  0.00000000e+00  0.00000000e+00  0.00000000e+00
  0.00000000e+00  0.00000000e+00 -2.98282789e-06 -2.98628229e-07
  0.00000000e+00  0.00000000e+00  0.00000000e+00  3.28517573e-06]","[[-0.00053855  0.01664481]
 [-0.00050683 -0.00591873]]",[],0.0,0.0
1787152895.0607467,1.661878488917647,0.7423983697510054,1.8676317416392714,"[ 2.29876574e-05 -1.59674511e-07  0.00000000e+00  0.00000000e+00
  0.00000000e+00 -1.31585226e-06 -1.59674511e-07  1.68989638e-05
  0.00000000e+00  0.00000000e+00  0.00000000e+00  3.29600340e-08
  0.00000000e+00  0.00000000e+00  0.00000000e+00  0.00000000e+00
  0.00000000e+00  0.00000000e+00  0.00000000e+00  0.00000000e+00
  0.00000000e+00  0.00000000e+00  0.00000000e+00  0.00000000e+00
  0.00000000e+00  0.00000000e+00  0.00000000e+00  0.00000000e+00
  0.00000000e+00  0.00000000e+00 -1.31585226e-06  3.29600340e-08
  0.00000000e+00  0.00000000e+00  0.00000000e+00  2.84640046e-06]","[[ 0.00020131  0.01863922]
 [-0.0003981   0.00427262]]",[],0.0,0.0
1787152895.0660675,1.661878488917647,0.7423983697510054,1.8676317416392714,"[ 2.29876574e-05 -1.59674511e-07  0.00000000e+00  0.00000000e+00
  0.00000000e+00 -1.31585226e-06 -1.59674511e-07  1.68989638e-05
  0.00000000e+00  0.00000000e+00  0.00000000e+00  3.29600340e-08
  0.00000000e+00  0.00000000e+00  0.00000000e+00  0.00000000e+00
  0.00000000e+00  0.00000000e+00  0.00000000e+00  0.00000000e+00
  0.00000000e+00  0.00000000e+00  0.00000000e+00  0.00000000e+00
  0.00000000e+00  0.00000000e+00  0.00000000e+00  0.00000000e+00
  0.00000000e+00  0.00000000e+00 -1.31585226e-06  3.29600340e-08
  0.00000000e+00  0.00000000e+00  0.00000000e+00  2.84640046e-06]","[[ 0.00020131  0.01863922]
 [-0.0003981   0.00427262]]",[],0.0,0.0
1787152895.562783,1.651376297680353,0.7275986628169332,1.8922075757297057,"[ 1.67040767e-05 -3.08738277e-07  0.00000000e+00  0.00000000e+00
  0.00000000e+00 -8.47435249e-07 -3.08738277e-07  1.26796051e-05
  0.00000000e+00  0.00000000e+00  0.00000000e+00  6.92785841e-08
  0.00000000e+00  0.00000000e+00  0.00000000e+00  0.00000000e+00
  0.00000000e+00  0.00000000e+00  0.00000000e+00  0.00000000e+00
  0.00000000e+00  0.00000000e+00  0.00000000e+00  0.00000000e+00
  0.00000000e+00  0.00000000e+00  0.00000000e+00  0.00000000e+00
  0.00000000e+00  0.00000000e+00 -8.47435249e-07  6.92785841e-08
  0.00000000e+00  0.00000000e+00  0.00000000e+00  2.84047571e-06]","[[ 0.00017707  0.01253004]
 [-0.00029267  0.00347467]]",[],0.0,0.0
1787152896.057712,1.6384108558049668,0.7169708102490892,1.9217993056340636,"[ 1.31188210e-05 -2.66196290e-07  0.00000000e+00  0.00000000e+00
  0.00000000e+00 -6.69056575e-07 -2.66196290e-07  1.01775035e-05
  0.00000000e+00  0.00000000e+00  0.00000000e+00  2.33133588e-08
  0.00000000e+00  0.00000000e+00  0.00000000e+00  0.00000000e+00
  0.00000000e+00  0.00000000e+00  0.00000000e+00  0.00000000e+00
  0.00000000e+00  0.00000000e+00  0.00000000e+00  0.00000000e+00
  0.00000000e+00  0.00000000e+00  0.00000000e+00  0.00000000e+00
  0.00000000e+00  0.00000000e+00 -6.69056575e-07  2.33133588e-08
  0.00000000e+00  0.00000000e+00  0.00000000e+00  2.77840996e-06]","[[ 0.00013755  0.0098315 ]
 [-0.00023577  0.00277056]]",[],0.0,0.0
1787152896.0629609,1.6384108558049668,0.7169708102490892,1.9217993056340636,"[ 1.31188210e-05 -2.66196290e-07  0.00000000e+00  0.00000000e+00
  0.00000000e+00 -6.69056575e-07 -2.66196290e-07  1.01775035e-05
  0.00000000e+00  0.00000000e+00  0.00000000e+00  2.33133588e-08
  0.00000000e+00  0.00000000e+00  0.00000000e+00  0.00000000e+00
  0.00000000e+00  0.00000000e+00  0.00000000e+00  0.00000000e+00
  0.00000000e+00  0.00000000e+00  0.00000000e+00  0.00000000e+00
  0.00000000e+00  0.00000000e+00  0.00000000e+00  0.00000000e+00
  0.00000000e+00  0.00000000e+00 -6.69056575e-07  2.33133588e-08
  0.00000000e+00  0.00000000e+00  0.00000000e+00  2.77840996e-06]","[[ 0.00013755  0.0098315 ]
 [-0.00023577  0.00277056]]",[],0.0,0.0
1787152896.5316923,1.6316570617157247,0.7103784664239345,1.9409284760959526,"[ 1.07318012e-05 -2.74162525e-07  0.00000000e+00  0.00000000e+00
  0.00000000e+00 -5.43693069e-07 -2.74162525e-07  8.49083600e-06
  0.00000000e+00  0.00000000e+00  0.00000000e+00  4.04226825e-08
  0.00000000e+00  0.00000000e+00  0.00000000e+00  0.00000000e+00
  0.00000000e+00  0.00000000e+00  0.00000000e+00  0.00000000e+00
  0.00000000e+00  0.00000000e+00  0.00000000e+00  0.00000000e+00
  0.00000000e+00  0.00000000e+00  0.00000000e+00  0.00000000e+00
  0.00000000e+00  0.00000000e+00 -5.43693069e-07  4.04226825e-08
  0.00000000e+00  0.00000000e+00  0.00000000e+00  2.73771571e-06]","[[ 0.00011208  0.00802915]
 [-0.00019778  0.0021959 ]]",[],0.0,0.0
1787152896.989132,1.6317164974806035,0.7070787413170969,1.9648436829770333,"[ 9.03667603e-06 -2.61314040e-07  0.00000000e+00  0.00000000e+00
  0.00000000e+00 -5.16464034e-07 -2.61314040e-07  7.30041743e-06
  0.00000000e+00  0.00000000e+00  0.00000000e+00  1.32438123e-08
  0.00000000e+00  0.00000000e+00  0.00000000e+00  0.00000000e+00
  0.00000000e+00  0.00000000e+00  0.00000000e+00  0.00000000e+00
  0.00000000e+00  0.00000000e+00  0.00000000e+00  0.00000000e+00
  0.00000000e+00  0.00000000e+00  0.00000000e+00  0.00000000e+00
  0.00000000e+00  0.00000000e+00 -5.16464034e-07  1.32438123e-08
  0.00000000e+00  0.00000000e+00  0.00000000e+00  2.69843775e-06]","[[ 9.42770504e-05  6.85086020e-03]
 [-1.70557266e-04  1.88418363e-03]]",[],0.0,0.0
1787152897.4461424,1.627473849566188,0.7015353703702337,1.9806024883362878,"[ 7.84000198e-06 -2.16186556e-07  0.00000000e+00  0.00000000e+00
  0.00000000e+00 -3.98325943e-07 -2.16186556e-07  6.43455771e-06
  0.00000000e+00  0.00000000e+00  0.00000000e+00  5.48764130e-08
  0.00000000e+00  0.00000000e+00  0.00000000e+00  0.00000000e+00
  0.00000000e+00  0.00000000e+00  0.00000000e+00  0.00000000e+00
  0.00000000e+00  0.00000000e+00  0.00000000e+00  0.00000000e+00
  0.00000000e+00  0.00000000e+00  0.00000000e+00  0.00000000e+00
  0.00000000e+00  0.00000000e+00 -3.98325943e-07  5.48764130e-08
  0.00000000e+00  0.00000000e+00  0.00000000e+00  2.67355088e-06]","[[ 8.14533120e-05  5.85863355e-03]
 [-1.50221873e-04  1.59408880e-03]]",[],0.0,0.0
1787152897.4635499,1.627473849566188,0.7015353703702337,1.9806024883362878,"[ 7.84000198e-06 -2.16186556e-07  0.00000000e+00  0.00000000e+00
  0.00000000e+00 -3.98325943e-07 -2.16186556e-07  6.43455771e-06
  0.00000000e+00  0.00000000e+00  0.00000000e+00  5.48764130e-08
  0.00000000e+00  0.00000000e+00  0.00000000e+00  0.00000000e+00
  0.00000000e+00  0.00000000e+00  0.00000000e+00  0.00000000e+00
  0.00000000e+00  0.00000000e+00  0.00000000e+00  0.00000000e+00
  0.00000000e+00  0.00000000e+00  0.00000000e+00  0.00000000e+00
  0.00000000e+00  0.00000000e+00 -3.98325943e-07  5.48764130e-08
  0.00000000e+00  0.00000000e+00  0.00000000e+00  2.67355088e-06]","[[ 8.14533120e-05  5.85863355e-03]
 [-1.50221873e-04  1.59408880e-03]]",[],0.0,0.0
1787152897.515548,1.6281244347277948,0.7001842453816868,2.0060900389272636,"[ 6.89793504e-06 -2.24447839e-07  0.00000000e+00  0.00000000e+00
  0.00000000e+00 -4.23316154e-07 -2.24447839e-07  5.73301212e-06
  0.00000000e+00  0.00000000e+00  0.00000000e+00 -7.32713379e-09
  0.00000000e+00  0.00000000e+00  0.00000000e+00  0.00000000e+00
  0.00000000e+00  0.00000000e+00  0.00000000e+00  0.00000000e+00
  0.00000000e+00  0.00000000e+00  0.00000000e+00  0.00000000e+00
  0.00000000e+00  0.00000000e+00  0.00000000e+00  0.00000000e+00
  0.00000000e+00  0.00000000e+00 -4.23316154e-07 -7.32713379e-09
  0.00000000e+00  0.00000000e+00  0.00000000e+00  2.60624624e-06]","[[ 7.20354436e-05  5.26408554e-03]
 [-1.34289091e-04  1.47923043e-03]]",[],0.0,0.0
1787152897.56443,1.6281244347277948,0.7001842453816868,2.0060900389272636,"[ 6.89793504e-06 -2.24447839e-07  0.00000000e+00  0.00000000e+00
  0.00000000e+00 -4.23316154e-07 -2.24447839e-07  5.73301212e-06
  0.00000000e+00  0.00000000e+00  0.00000000e+00 -7.32713379e-09
  0.00000000e+00  0.00000000e+00  0.00000000e+00  0.00000000e+00
  0.00000000e+00  0.00000000e+00  0.00000000e+00  0.00000000e+00
  0.00000000e+00  0.00000000e+00  0.00000000e+00  0.00000000e+00
  0.00000000e+00  0.00000000e+00  0.00000000e+00  0.00000000e+00
  0.00000000e+00  0.00000000e+00 -4.23316154e-07 -7.32713379e-09
  0.00000000e+00  0.00000000e+00  0.00000000e+00  2.60624624e-06]","[[ 7.20354436e-05  5.26408554e-03]
 [-1.34289091e-04  1.47923043e-03]]",[],0.0,0.0
1787152897.612953,1.6281244347277948,0.7001842453816868,2.0060900389272636,"[ 6.89793504e-06 -2.24447839e-07  0.00000000e+00  0.00000000e+00
  0.00000000e+00 -4.23316154e-07 -2.24447839e-07  5.73301212e-06
  0.00000000e+00  0.00000000e+00  0.00000000e+00 -7.32713379e-09
  0.00000000e+00  0.00000000e+00  0.00000000e+00  0.00000000e+00
  0.00000000e+00  0.00000000e+00  0.00000000e+00  0.00000000e+00
  0.00000000e+00  0.00000000e+00  0.00000000e+00  0.00000000e+00
  0.00000000e+00  0.00000000e+00  0.00000000e+00  0.00000000e+00
  0.00000000e+00  0.00000000e+00 -4.23316154e-07 -7.32713379e-09
  0.00000000e+00  0.00000000e+00  0.00000000e+00  2.60624624e-06]","[[ 7.20354436e-05  5.26408554e-03]
 [-1.34289091e-04  1.47923043e-03]]",[],0.0,0.0
1787152897.667126,1.6281244347277948,0.7001842453816868,2.0060900389272636,"[ 6.89793504e-06 -2.24447839e-07  0.00000000e+00  0.00000000e+00
  0.00000000e+00 -4.23316154e-07 -2.24447839e-07  5.73301212e-06
  0.00000000e+00  0.00000000e+00  0.00000000e+00 -7.32713379e-09
  0.00000000e+00  0.00000000e+00  0.00000000e+00  0.00000000e+00
  0.00000000e+00  0.00000000e+00  0.00000000e+00  0.00000000e+00
  0.00000000e+00  0.00000000e+00  0.00000000e+00  0.00000000e+00
  0.00000000e+00  0.00000000e+00  0.00000000e+00  0.00000000e+00
  0.00000000e+00  0.00000000e+00 -4.23316154e-07 -7.32713379e-09
  0.00000000e+00  0.00000000e+00  0.00000000e+00  2.60624624e-06]","[[ 7.20354436e-05  5.26408554e-03]
 [-1.34289091e-04  1.47923043e-03]]",[],0.0,0.0
1787152897.7137642,1.6281244347277948,0.7001842453816868,2.0060900389272636,"[ 6.89793504e-06 -2.24447839e-07  0.00000000e+00  0.00000000e+00
  0.00000000e+00 -4.23316154e-07 -2.24447839e-07  5.73301212e-06
  0.00000000e+00  0.00000000e+00  0.00000000e+00 -7.32713379e-09
  0.00000000e+00  0.00000000e+00  0.00000000e+00  0.00000000e+00
  0.00000000e+00  0.00000000e+00  0.00000000e+00  0.00000000e+00
  0.00000000e+00  0.00000000e+00  0.00000000e+00  0.00000000e+00
  0.00000000e+00  0.00000000e+00  0.00000000e+00  0.00000000e+00
  0.00000000e+00  0.00000000e+00 -4.23316154e-07 -7.32713379e-09
  0.00000000e+00  0.00000000e+00  0.00000000e+00  2.60624624e-06]","[[ 7.20354436e-05  5.26408554e-03]
 [-1.34289091e-04  1.47923043e-03]]",[],0.0,0.0
1787152897.7707415,1.6281244347277948,0.7001842453816868,2.0060900389272636,"[ 6.89793504e-06 -2.24447839e-07  0.00000000e+00  0.00000000e+00
  0.00000000e+00 -4.23316154e-07 -2.24447839e-07  5.73301212e-06
  0.00000000e+00  0.00000000e+00  0.00000000e+00 -7.32713379e-09
  0.00000000e+00  0.00000000e+00  0.00000000e+00  0.00000000e+00
  0.00000000e+00  0.00000000e+00  0.00000000e+00  0.00000000e+00
  0.00000000e+00  0.00000000e+00  0.00000000e+00  0.00000000e+00
  0.00000000e+00  0.00000000e+00  0.00000000e+00  0.00000000e+00
  0.00000000e+00  0.00000000e+00 -4.23316154e-07 -7.32713379e-09
  0.00000000e+00  0.00000000e+00  0.00000000e+00  2.60624624e-06]","[[ 7.20354436e-05  5.26408554e-03]
 [-1.34289091e-04  1.47923043e-03]]",[],0.0,0.0
1787152897.819929,1.6281244347277948,0.7001842453816868,2.0060900389272636,"[ 6.89793504e-06 -2.24447839e-07  0.00000000e+00  0.00000000e+00
  0.00000000e+00 -4.23316154e-07 -2.24447839e-07  5.73301212e-06
  0.00000000e+00  0.00000000e+00  0.00000000e+00 -7.32713379e-09
  0.00000000e+00  0.00000000e+00  0.00000000e+00  0.00000000e+00
  0.00000000e+00  0.00000000e+00  0.00000000e+00  0.00000000e+00
  0.00000000e+00  0.00000000e+00  0.00000000e+00  0.00000000e+00
  0.00000000e+00  0.00000000e+00  0.00000000e+00  0.00000000e+00
  0.00000000e+00  0.00000000e+00 -4.23316154e-07 -7.32713379e-09
  0.00000000e+00  0.00000000e+00  0.00000000e+00  2.60624624e-06]","[[ 7.20354436e-05  5.26408554e-03]
 [-1.34289091e-04  1.47923043e-03]]",[],0.0,0.0
1787152897.8652334,1.6281244347277948,0.7001842453816868,2.0060900389272636,"[ 6.89793504e-06 -2.24447839e-07  0.00000000e+00  0.00000000e+00
  0.00000000e+00 -4.23316154e-07 -2.24447839e-07  5.73301212e-06
  0.00000000e+00  0.00000000e+00  0.00000000e+00 -7.32713379e-09
  0.00000000e+00  0.00000000e+00  0.00000000e+00  0.00000000e+00
  0.00000000e+00  0.00000000e+00  0.00000000e+00  0.00000000e+00
  0.00000000e+00  0.00000000e+00  0.00000000e+00  0.00000000e+00
  0.00000000e+00  0.00000000e+00  0.00000000e+00  0.00000000e+00
  0.00000000e+00  0.00000000e+00 -4.23316154e-07 -7.32713379e-09
  0.00000000e+00  0.00000000e+00  0.00000000e+00  2.60624624e-06]","[[ 7.20354436e-05  5.26408554e-03]
 [-1.34289091e-04  1.47923043e-03]]",[],0.0,0.0
1787152897.9185975,1.6281244347277948,0.7001842453816868,2.0060900389272636,"[ 6.89793504e-06 -2.24447839e-07  0.00000000e+00  0.00000000e+00
  0.00000000e+00 -4.23316154e-07 -2.24447839e-07  5.73301212e-06
  0.00000000e+00  0.00000000e+00  0.00000000e+00 -7.32713379e-09
  0.00000000e+00  0.00000000e+00  0.00000000e+00  0.00000000e+00
  0.00000000e+00  0.00000000e+00  0.00000000e+00  0.00000000e+00
  0.00000000e+00  0.00000000e+00  0.00000000e+00  0.00000000e+00
  0.00000000e+00  0.00000000e+00  0.00000000e+00  0.00000000e+00
  0.00000000e+00  0.00000000e+00 -4.23316154e-07 -7.32713379e-09
  0.00000000e+00  0.00000000e+00  0.00000000e+00  2.60624624e-06]","[[ 7.20354436e-05  5.26408554e-03]
 [-1.34289091e-04  1.47923043e-03]]",[],0.0,0.0
1787152897.9658887,1.6281244347277948,0.7001842453816868,2.0060900389272636,"[ 6.89793504e-06 -2.24447839e-07  0.00000000e+00  0.00000000e+00
  0.00000000e+00 -4.23316154e-07 -2.24447839e-07  5.73301212e-06
  0.00000000e+00  0.00000000e+00  0.00000000e+00 -7.32713379e-09
  0.00000000e+00  0.00000000e+00  0.00000000e+00  0.00000000e+00
  0.00000000e+00  0.00000000e+00  0.00000000e+00  0.00000000e+00
  0.00000000e+00  0.00000000e+00  0.00000000e+00  0.00000000e+00
  0.00000000e+00  0.00000000e+00  0.00000000e+00  0.00000000e+00
  0.00000000e+00  0.00000000e+00 -4.23316154e-07 -7.32713379e-09
  0.00000000e+00  0.00000000e+00  0.00000000e+00  2.60624624e-06]","[[ 7.20354436e-05  5.26408554e-03]
 [-1.34289091e-04  1.47923043e-03]]",[],0.0,0.0
1787152898.020947,1.6281244347277948,0.7001842453816868,2.0060900389272636,"[ 6.89793504e-06 -2.24447839e-07  0.00000000e+00  0.00000000e+00
  0.00000000e+00 -4.23316154e-07 -2.24447839e-07  5.73301212e-06
  0.00000000e+00  0.00000000e+00  0.00000000e+00 -7.32713379e-09
  0.00000000e+00  0.00000000e+00  0.00000000e+00  0.00000000e+00
  0.00000000e+00  0.00000000e+00  0.00000000e+00  0.00000000e+00
  0.00000000e+00  0.00000000e+00  0.00000000e+00  0.00000000e+00
  0.00000000e+00  0.00000000e+00  0.00000000e+00  0.00000000e+00
  0.00000000e+00  0.00000000e+00 -4.23316154e-07 -7.32713379e-09
  0.00000000e+00  0.00000000e+00  0.00000000e+00  2.60624624e-06]","[[ 7.20354436e-05  5.26408554e-03]
 [-1.34289091e-04  1.47923043e-03]]",[],0.0,0.0
1787152898.0636733,1.6281244347277948,0.7001842453816868,2.0060900389272636,"[ 6.89793504e-06 -2.24447839e-07  0.00000000e+00  0.00000000e+00
  0.00000000e+00 -4.23316154e-07 -2.24447839e-07  5.73301212e-06
  0.00000000e+00  0.00000000e+00  0.00000000e+00 -7.32713379e-09
  0.00000000e+00  0.00000000e+00  0.00000000e+00  0.00000000e+00
  0.00000000e+00  0.00000000e+00  0.00000000e+00  0.00000000e+00
  0.00000000e+00  0.00000000e+00  0.00000000e+00  0.00000000e+00
  0.00000000e+00  0.00000000e+00  0.00000000e+00  0.00000000e+00
  0.00000000e+00  0.00000000e+00 -4.23316154e-07 -7.32713379e-09
  0.00000000e+00  0.00000000e+00  0.00000000e+00  2.60624624e-06]","[[ 7.20354436e-05  5.26408554e-03]
 [-1.34289091e-04  1.47923043e-03]]",[],0.0,0.0
1787152898.1174996,1.6281244347277948,0.7001842453816868,2.0060900389272636,"[ 6.89793504e-06 -2.24447839e-07  0.00000000e+00  0.00000000e+00
  0.00000000e+00 -4.23316154e-07 -2.24447839e-07  5.73301212e-06
  0.00000000e+00  0.00000000e+00  0.00000000e+00 -7.32713379e-09
  0.00000000e+00  0.00000000e+00  0.00000000e+00  0.00000000e+00
  0.00000000e+00  0.00000000e+00  0.00000000e+00  0.00000000e+00
  0.00000000e+00  0.00000000e+00  0.00000000e+00  0.00000000e+00
  0.00000000e+00  0.00000000e+00  0.00000000e+00  0.00000000e+00
  0.00000000e+00  0.00000000e+00 -4.23316154e-07 -7.32713379e-09
  0.00000000e+00  0.00000000e+00  0.00000000e+00  2.60624624e-06]","[[ 7.20354436e-05  5.26408554e-03]
 [-1.34289091e-04  1.47923043e-03]]",[],0.0,0.0
1787152898.163041,1.6281244347277948,0.7001842453816868,2.0060900389272636,"[ 6.89793504e-06 -2.24447839e-07  0.00000000e+00  0.00000000e+00
  0.00000000e+00 -4.23316154e-07 -2.24447839e-07  5.73301212e-06
  0.00000000e+00  0.00000000e+00  0.00000000e+00 -7.32713379e-09
  0.00000000e+00  0.00000000e+00  0.00000000e+00  0.00000000e+00
  0.00000000e+00  0.00000000e+00  0.00000000e+00  0.00000000e+00
  0.00000000e+00  0.00000000e+00  0.00000000e+00  0.00000000e+00
  0.00000000e+00  0.00000000e+00  0.00000000e+00  0.00000000e+00
  0.00000000e+00  0.00000000e+00 -4.23316154e-07 -7.32713379e-09
  0.00000000e+00  0.00000000e+00  0.00000000e+00  2.60624624e-06]","[[ 7.20354436e-05  5.26408554e-03]
 [-1.34289091e-04  1.47923043e-03]]",[],0.0,0.0
1787152898.213179,1.6268398506640374,0.6972978798457573,2.0322513834447733,"[ 6.23099160e-06 -2.36795881e-07  0.00000000e+00  0.00000000e+00
  0.00000000e+00 -3.87069140e-07 -2.36795881e-07  5.25519153e-06
  0.00000000e+00  0.00000000e+00  0.00000000e+00 -2.58250970e-09
  0.00000000e+00  0.00000000e+00  0.00000000e+00  0.00000000e+00
  0.00000000e+00  0.00000000e+00  0.00000000e+00  0.00000000e+00
  0.00000000e+00  0.00000000e+00  0.00000000e+00  0.00000000e+00
  0.00000000e+00  0.00000000e+00  0.00000000e+00  0.00000000e+00
  0.00000000e+00  0.00000000e+00 -3.87069140e-07 -2.58250970e-09
  0.00000000e+00  0.00000000e+00  0.00000000e+00  3.12035667e-06]","[[ 6.58598783e-05  4.75047915e-03]
 [-1.23396208e-04  1.32752148e-03]]",[],0.0,0.0
1787152898.2651212,1.6268398506640374,0.6972978798457573,2.0322513834447733,"[ 6.23099160e-06 -2.36795881e-07  0.00000000e+00  0.00000000e+00
  0.00000000e+00 -3.87069140e-07 -2.36795881e-07  5.25519153e-06
  0.00000000e+00  0.00000000e+00  0.00000000e+00 -2.58250970e-09
  0.00000000e+00  0.00000000e+00  0.00000000e+00  0.00000000e+00
  0.00000000e+00  0.00000000e+00  0.00000000e+00  0.00000000e+00
  0.00000000e+00  0.00000000e+00  0.00000000e+00  0.00000000e+00
  0.00000000e+00  0.00000000e+00  0.00000000e+00  0.00000000e+00
  0.00000000e+00  0.00000000e+00 -3.87069140e-07 -2.58250970e-09
  0.00000000e+00  0.00000000e+00  0.00000000e+00  3.12035667e-06]","[[ 6.58598783e-05  4.75047915e-03]
 [-1.23396208e-04  1.32752148e-03]]",[],0.0,0.0
1787152898.3133123,1.6268398506640374,0.6972978798457573,2.0322513834447733,"[ 6.23099160e-06 -2.36795881e-07  0.00000000e+00  0.00000000e+00
  0.00000000e+00 -3.87069140e-07 -2.36795881e-07  5.25519153e-06
  0.00000000e+00  0.00000000e+00  0.00000000e+00 -2.58250970e-09
  0.00000000e+00  0.00000000e+00  0.00000000e+00  0.00000000e+00
  0.00000000e+00  0.00000000e+00  0.00000000e+00  0.00000000e+00
  0.00000000e+00  0.00000000e+00  0.00000000e+00  0.00000000e+00
  0.00000000e+00  0.00000000e+00  0.00000000e+00  0.00000000e+00
  0.00000000e+00  0.00000000e+00 -3.87069140e-07 -2.58250970e-09
  0.00000000e+00  0.00000000e+00  0.00000000e+00  3.12035667e-06]","[[ 6.58598783e-05  4.75047915e-03]
 [-1.23396208e-04  1.32752148e-03]]",[],0.0,0.0
1787152898.6742291,1.6268398506640374,0.6972978798457573,2.0322513834447733,"[ 6.23099160e-06 -2.36795881e-07  0.00000000e+00  0.00000000e+00
  0.00000000e+00 -3.87069140e-07 -2.36795881e-07  5.25519153e-06
  0.00000000e+00  0.00000000e+00  0.00000000e+00 -2.58250970e-09
  0.00000000e+00  0.00000000e+00  0.00000000e+00  0.00000000e+00
  0.00000000e+00  0.00000000e+00  0.00000000e+00  0.00000000e+00
  0.00000000e+00  0.00000000e+00  0.00000000e+00  0.00000000e+00
  0.00000000e+00  0.00000000e+00  0.00000000e+00  0.00000000e+00
  0.00000000e+00  0.00000000e+00 -3.87069140e-07 -2.58250970e-09
  0.00000000e+00  0.00000000e+00  0.00000000e+00  3.12035667e-06]","[[ 6.58598783e-05  4.75047915e-03]
 [-1.23396208e-04  1.32752148e-03]]",[],0.0,0.0
1787152898.7286806,1.6268398506640374,0.6972978798457573,2.0322513834447733,"[ 6.23099160e-06 -2.36795881e-07  0.00000000e+00  0.00000000e+00
  0.00000000e+00 -3.87069140e-07 -2.36795881e-07  5.25519153e-06
  0.00000000e+00  0.00000000e+00  0.00000000e+00 -2.58250970e-09
  0.00000000e+00  0.00000000e+00  0.00000000e+00  0.00000000e+00
  0.00000000e+00  0.00000000e+00  0.00000000e+00  0.00000000e+00
  0.00000000e+00  0.00000000e+00  0.00000000e+00  0.00000000e+00
  0.00000000e+00  0.00000000e+00  0.00000000e+00  0.00000000e+00
  0.00000000e+00  0.00000000e+00 -3.87069140e-07 -2.58250970e-09
  0.00000000e+00  0.00000000e+00  0.00000000e+00  3.12035667e-06]","[[ 6.58598783e-05  4.75047915e-03]
 [-1.23396208e-04  1.32752148e-03]]",[],0.0,0.0
1787152898.7915351,1.6239897555961993,0.693464470862762,2.0412507709814642,"[ 5.67348471e-06 -2.27306923e-07  0.00000000e+00  0.00000000e+00
  0.00000000e+00 -3.32389588e-07 -2.27306923e-07  4.83350566e-06
  0.00000000e+00  0.00000000e+00  0.00000000e+00  2.58790356e-08
  0.00000000e+00  0.00000000e+00  0.00000000e+00  0.00000000e+00
  0.00000000e+00  0.00000000e+00  0.00000000e+00  0.00000000e+00
  0.00000000e+00  0.00000000e+00  0.00000000e+00  0.00000000e+00
  0.00000000e+00  0.00000000e+00  0.00000000e+00  0.00000000e+00
  0.00000000e+00  0.00000000e+00 -3.32389588e-07  2.58790356e-08
  0.00000000e+00  0.00000000e+00  0.00000000e+00  2.90885359e-06]","[[ 6.01066649e-05  4.28719729e-03]
 [-1.13628938e-04  1.16339857e-03]]",[],0.0,0.0
1787152899.2626605,1.6239897555961993,0.693464470862762,2.0412507709814642,"[ 5.67348471e-06 -2.27306923e-07  0.00000000e+00  0.00000000e+00
  0.00000000e+00 -3.32389588e-07 -2.27306923e-07  4.83350566e-06
  0.00000000e+00  0.00000000e+00  0.00000000e+00  2.58790356e-08
  0.00000000e+00  0.00000000e+00  0.00000000e+00  0.00000000e+00
  0.00000000e+00  0.00000000e+00  0.00000000e+00  0.00000000e+00
  0.00000000e+00  0.00000000e+00  0.00000000e+00  0.00000000e+00
  0.00000000e+00  0.00000000e+00  0.00000000e+00  0.00000000e+00
  0.00000000e+00  0.00000000e+00 -3.32389588e-07  2.58790356e-08
  0.00000000e+00  0.00000000e+00  0.00000000e+00  2.90885359e-06]","[[ 6.01066649e-05  4.28719729e-03]
 [-1.13628938e-04  1.16339857e-03]]",[],0.0,0.0
1787152899.7137883,1.6210136828023096,0.6896652003435767,2.0508633809315233,"[ 5.20237230e-06 -2.24240631e-07  0.00000000e+00  0.00000000e+00
  0.00000000e+00 -2.73924555e-07 -2.24240631e-07  4.47085483e-06
  0.00000000e+00  0.00000000e+00  0.00000000e+00  4.20662614e-08
  0.00000000e+00  0.00000000e+00  0.00000000e+00  0.00000000e+00
  0.00000000e+00  0.00000000e+00  0.00000000e+00  0.00000000e+00
  0.00000000e+00  0.00000000e+00  0.00000000e+00  0.00000000e+00
  0.00000000e+00  0.00000000e+00  0.00000000e+00  0.00000000e+00
  0.00000000e+00  0.00000000e+00 -2.73924555e-07  4.20662614e-08
  0.00000000e+00  0.00000000e+00  0.00000000e+00  2.81769256e-06]","[[ 5.52674619e-05  3.87494785e-03]
 [-1.05307302e-04  1.03005691e-03]]",[],0.0,0.0
1787152900.283364,1.6181430306585973,0.685746708958093,2.057798438723001,"[ 4.79369550e-06 -2.15044054e-07  0.00000000e+00  0.00000000e+00
  0.00000000e+00 -2.68418871e-07 -2.15044054e-07  4.13674187e-06
  0.00000000e+00  0.00000000e+00  0.00000000e+00  1.48903757e-08
  0.00000000e+00  0.00000000e+00  0.00000000e+00  0.00000000e+00
  0.00000000e+00  0.00000000e+00  0.00000000e+00  0.00000000e+00
  0.00000000e+00  0.00000000e+00  0.00000000e+00  0.00000000e+00
  0.00000000e+00  0.00000000e+00  0.00000000e+00  0.00000000e+00
  0.00000000e+00  0.00000000e+00 -2.68418871e-07  1.48903757e-08
  0.00000000e+00  0.00000000e+00  0.00000000e+00  2.58744136e-06]","[[ 5.09197490e-05  3.59414518e-03]
 [-9.75745411e-05  9.81494209e-04]]",[],0.0,0.0
1787152900.780528,1.6186172860449888,0.6835632171784165,2.0710144965669715,"[ 4.44068705e-06 -2.36154633e-07  0.00000000e+00  0.00000000e+00
  0.00000000e+00 -2.66081357e-07 -2.36154633e-07  3.90645032e-06
  0.00000000e+00  0.00000000e+00  0.00000000e+00  3.22095849e-08
  0.00000000e+00  0.00000000e+00  0.00000000e+00  0.00000000e+00
  0.00000000e+00  0.00000000e+00  0.00000000e+00  0.00000000e+00
  0.00000000e+00  0.00000000e+00  0.00000000e+00  0.00000000e+00
  0.00000000e+00  0.00000000e+00  0.00000000e+00  0.00000000e+00
  0.00000000e+00  0.00000000e+00 -2.66081357e-07  3.22095849e-08
  0.00000000e+00  0.00000000e+00  0.00000000e+00  2.87543927e-06]","[[ 4.78406148e-05  3.34734124e-03]
 [-9.25177712e-05  8.68787126e-04]]",[],0.0,0.0
1787152901.2713475,1.6182160754420893,0.6817481116074908,2.0767949252987314,"[ 4.14550001e-06 -2.38354494e-07  0.00000000e+00  0.00000000e+00
  0.00000000e+00 -2.38595003e-07 -2.38354494e-07  3.69037863e-06
  0.00000000e+00  0.00000000e+00  0.00000000e+00  2.75158808e-08
  0.00000000e+00  0.00000000e+00  0.00000000e+00  0.00000000e+00
  0.00000000e+00  0.00000000e+00  0.00000000e+00  0.00000000e+00
  0.00000000e+00  0.00000000e+00  0.00000000e+00  0.00000000e+00
  0.00000000e+00  0.00000000e+00  0.00000000e+00  0.00000000e+00
  0.00000000e+00  0.00000000e+00 -2.38595003e-07  2.75158808e-08
  0.00000000e+00  0.00000000e+00  0.00000000e+00  2.77167559e-06]","[[ 4.50578753e-05  3.10129549e-03]
 [-8.75512767e-05  8.14067354e-04]]",[],0.0,0.0
1787152901.6933131,1.6196182034532847,0.6805363408703865,2.083112853252567,"[ 3.88860081e-06 -2.46333614e-07  0.00000000e+00  0.00000000e+00
  0.00000000e+00 -2.26692375e-07 -2.46333614e-07  3.49790471e-06
  0.00000000e+00  0.00000000e+00  0.00000000e+00  3.66229019e-08
  0.00000000e+00  0.00000000e+00  0.00000000e+00  0.00000000e+00
  0.00000000e+00  0.00000000e+00  0.00000000e+00  0.00000000e+00
  0.00000000e+00  0.00000000e+00  0.00000000e+00  0.00000000e+00
  0.00000000e+00  0.00000000e+00  0.00000000e+00  0.00000000e+00
  0.00000000e+00  0.00000000e+00 -2.26692375e-07  3.66229019e-08
  0.00000000e+00  0.00000000e+00  0.00000000e+00  2.76363691e-06]","[[ 4.27506298e-05  2.90648021e-03]
 [-8.31925742e-05  7.38869515e-04]]",[],0.0,0.0
1787152901.7148306,1.619598101233768,0.6786965433774637,2.092542004265953,"[ 3.64959668e-06 -2.41827459e-07  0.00000000e+00  0.00000000e+00
  0.00000000e+00 -2.00959391e-07 -2.41827459e-07  3.32191121e-06
  0.00000000e+00  0.00000000e+00  0.00000000e+00  5.31621247e-08
  0.00000000e+00  0.00000000e+00  0.00000000e+00  0.00000000e+00
  0.00000000e+00  0.00000000e+00  0.00000000e+00  0.00000000e+00
  0.00000000e+00  0.00000000e+00  0.00000000e+00  0.00000000e+00
  0.00000000e+00  0.00000000e+00  0.00000000e+00  0.00000000e+00
  0.00000000e+00  0.00000000e+00 -2.00959391e-07  5.31621247e-08
  0.00000000e+00  0.00000000e+00  0.00000000e+00  2.59380445e-06]","[[ 4.03987423e-05  2.70325111e-03]
 [-7.90724876e-05  6.66305823e-04]]",[],0.0,0.0
1787152901.7728496,1.619598101233768,0.6786965433774637,2.092542004265953,"[ 3.64959668e-06 -2.41827459e-07  0.00000000e+00  0.00000000e+00
  0.00000000e+00 -2.00959391e-07 -2.41827459e-07  3.32191121e-06
  0.00000000e+00  0.00000000e+00  0.00000000e+00  5.31621247e-08
  0.00000000e+00  0.00000000e+00  0.00000000e+00  0.00000000e+00
  0.00000000e+00  0.00000000e+00  0.00000000e+00  0.00000000e+00
  0.00000000e+00  0.00000000e+00  0.00000000e+00  0.00000000e+00
  0.00000000e+00  0.00000000e+00  0.00000000e+00  0.00000000e+00
  0.00000000e+00  0.00000000e+00 -2.00959391e-07  5.31621247e-08
  0.00000000e+00  0.00000000e+00  0.00000000e+00  2.59380445e-06]","[[ 4.03987423e-05  2.70325111e-03]
 [-7.90724876e-05  6.66305823e-04]]",[],0.0,0.0
1787152901.8128984,1.619598101233768,0.6786965433774637,2.092542004265953,"[ 3.64959668e-06 -2.41827459e-07  0.00000000e+00  0.00000000e+00
  0.00000000e+00 -2.00959391e-07 -2.41827459e-07  3.32191121e-06
  0.00000000e+00  0.00000000e+00  0.00000000e+00  5.31621247e-08
  0.00000000e+00  0.00000000e+00  0.00000000e+00  0.00000000e+00
  0.00000000e+00  0.00000000e+00  0.00000000e+00  0.00000000e+00
  0.00000000e+00  0.00000000e+00  0.00000000e+00  0.00000000e+00
  0.00000000e+00  0.00000000e+00  0.00000000e+00  0.00000000e+00
  0.00000000e+00  0.00000000e+00 -2.00959391e-07  5.31621247e-08
  0.00000000e+00  0.00000000e+00  0.00000000e+00  2.59380445e-06]","[[ 4.03987423e-05  2.70325111e-03]
 [-7.90724876e-05  6.66305823e-04]]",[],0.0,0.0
1787152901.8629787,1.619598101233768,0.6786965433774637,2.092542004265953,"[ 3.64959668e-06 -2.41827459e-07  0.00000000e+00  0.00000000e+00
  0.00000000e+00 -2.00959391e-07 -2.41827459e-07  3.32191121e-06
  0.00000000e+00  0.00000000e+00  0.00000000e+00  5.31621247e-08
  0.00000000e+00  0.00000000e+00  0.00000000e+00  0.00000000e+00
  0.00000000e+00  0.00000000e+00  0.00000000e+00  0.00000000e+00
  0.00000000e+00  0.00000000e+00  0.00000000e+00  0.00000000e+00
  0.00000000e+00  0.00000000e+00  0.00000000e+00  0.00000000e+00
  0.00000000e+00  0.00000000e+00 -2.00959391e-07  5.31621247e-08
  0.00000000e+00  0.00000000e+00  0.00000000e+00  2.59380445e-06]","[[ 4.03987423e-05  2.70325111e-03]
 [-7.90724876e-05  6.66305823e-04]]",[],0.0,0.0
1787152901.9209378,1.619598101233768,0.6786965433774637,2.092542004265953,"[ 3.64959668e-06 -2.41827459e-07  0.00000000e+00  0.00000000e+00
  0.00000000e+00 -2.00959391e-07 -2.41827459e-07  3.32191121e-06
  0.00000000e+00  0.00000000e+00  0.00000000e+00  5.31621247e-08
  0.00000000e+00  0.00000000e+00  0.00000000e+00  0.00000000e+00
  0.00000000e+00  0.00000000e+00  0.00000000e+00  0.00000000e+00
  0.00000000e+00  0.00000000e+00  0.00000000e+00  0.00000000e+00
  0.00000000e+00  0.00000000e+00  0.00000000e+00  0.00000000e+00
  0.00000000e+00  0.00000000e+00 -2.00959391e-07  5.31621247e-08
  0.00000000e+00  0.00000000e+00  0.00000000e+00  2.59380445e-06]","[[ 4.03987423e-05  2.70325111e-03]
 [-7.90724876e-05  6.66305823e-04]]",[],0.0,0.0
1787152901.962958,1.619598101233768,0.6786965433774637,2.092542004265953,"[ 3.64959668e-06 -2.41827459e-07  0.00000000e+00  0.00000000e+00
  0.00000000e+00 -2.00959391e-07 -2.41827459e-07  3.32191121e-06
  0.00000000e+00  0.00000000e+00  0.00000000e+00  5.31621247e-08
  0.00000000e+00  0.00000000e+00  0.00000000e+00  0.00000000e+00
  0.00000000e+00  0.00000000e+00  0.00000000e+00  0.00000000e+00
  0.00000000e+00  0.00000000e+00  0.00000000e+00  0.00000000e+00
  0.00000000e+00  0.00000000e+00  0.00000000e+00  0.00000000e+00
  0.00000000e+00  0.00000000e+00 -2.00959391e-07  5.31621247e-08
  0.00000000e+00  0.00000000e+00  0.00000000e+00  2.59380445e-06]","[[ 4.03987423e-05  2.70325111e-03]
 [-7.90724876e-05  6.66305823e-04]]",[],0.0,0.0
1787152902.0130115,1.619598101233768,0.6786965433774637,2.092542004265953,"[ 3.64959668e-06 -2.41827459e-07  0.00000000e+00  0.00000000e+00
  0.00000000e+00 -2.00959391e-07 -2.41827459e-07  3.32191121e-06
  0.00000000e+00  0.00000000e+00  0.00000000e+00  5.31621247e-08
  0.00000000e+00  0.00000000e+00  0.00000000e+00  0.00000000e+00
  0.00000000e+00  0.00000000e+00  0.00000000e+00  0.00000000e+00
  0.00000000e+00  0.00000000e+00  0.00000000e+00  0.00000000e+00
  0.00000000e+00  0.00000000e+00  0.00000000e+00  0.00000000e+00
  0.00000000e+00  0.00000000e+00 -2.00959391e-07  5.31621247e-08
  0.00000000e+00  0.00000000e+00  0.00000000e+00  2.59380445e-06]","[[ 4.03987423e-05  2.70325111e-03]
 [-7.90724876e-05  6.66305823e-04]]",[],0.0,0.0
1787152902.0634096,1.619598101233768,0.6786965433774637,2.092542004265953,"[ 3.64959668e-06 -2.41827459e-07  0.00000000e+00  0.00000000e+00
  0.00000000e+00 -2.00959391e-07 -2.41827459e-07  3.32191121e-06
  0.00000000e+00  0.00000000e+00  0.00000000e+00  5.31621247e-08
  0.00000000e+00  0.00000000e+00  0.00000000e+00  0.00000000e+00
  0.00000000e+00  0.00000000e+00  0.00000000e+00  0.00000000e+00
  0.00000000e+00  0.00000000e+00  0.00000000e+00  0.00000000e+00
  0.00000000e+00  0.00000000e+00  0.00000000e+00  0.00000000e+00
  0.00000000e+00  0.00000000e+00 -2.00959391e-07  5.31621247e-08
  0.00000000e+00  0.00000000e+00  0.00000000e+00  2.59380445e-06]","[[ 4.03987423e-05  2.70325111e-03]
 [-7.90724876e-05  6.66305823e-04]]",[],0.0,0.0
1787152902.1176112,1.619598101233768,0.6786965433774637,2.092542004265953,"[ 3.64959668e-06 -2.41827459e-07  0.00000000e+00  0.00000000e+00
  0.00000000e+00 -2.00959391e-07 -2.41827459e-07  3.32191121e-06
  0.00000000e+00  0.00000000e+00  0.00000000e+00  5.31621247e-08
  0.00000000e+00  0.00000000e+00  0.00000000e+00  0.00000000e+00
  0.00000000e+00  0.00000000e+00  0.00000000e+00  0.00000000e+00
  0.00000000e+00  0.00000000e+00  0.00000000e+00  0.00000000e+00
  0.00000000e+00  0.00000000e+00  0.00000000e+00  0.00000000e+00
  0.00000000e+00  0.00000000e+00 -2.00959391e-07  5.31621247e-08
  0.00000000e+00  0.00000000e+00  0.00000000e+00  2.59380445e-06]","[[ 4.03987423e-05  2.70325111e-03]
 [-7.90724876e-05  6.66305823e-04]]",[],0.0,0.0
1787152902.1636982,1.619598101233768,0.6786965433774637,2.092542004265953,"[ 3.64959668e-06 -2.41827459e-07  0.00000000e+00  0.00000000e+00
  0.00000000e+00 -2.00959391e-07 -2.41827459e-07  3.32191121e-06
  0.00000000e+00  0.00000000e+00  0.00000000e+00  5.31621247e-08
  0.00000000e+00  0.00000000e+00  0.00000000e+00  0.00000000e+00
  0.00000000e+00  0.00000000e+00  0.00000000e+00  0.00000000e+00
  0.00000000e+00  0.00000000e+00  0.00000000e+00  0.00000000e+00
  0.00000000e+00  0.00000000e+00  0.00000000e+00  0.00000000e+00
  0.00000000e+00  0.00000000e+00 -2.00959391e-07  5.31621247e-08
  0.00000000e+00  0.00000000e+00  0.00000000e+00  2.59380445e-06]","[[ 4.03987423e-05  2.70325111e-03]
 [-7.90724876e-05  6.66305823e-04]]",[],0.0,0.0
1787152902.214372,1.619598101233768,0.6786965433774637,2.092542004265953,"[ 3.64959668e-06 -2.41827459e-07  0.00000000e+00  0.00000000e+00
  0.00000000e+00 -2.00959391e-07 -2.41827459e-07  3.32191121e-06
  0.00000000e+00  0.00000000e+00  0.00000000e+00  5.31621247e-08
  0.00000000e+00  0.00000000e+00  0.00000000e+00  0.00000000e+00
  0.00000000e+00  0.00000000e+00  0.00000000e+00  0.00000000e+00
  0.00000000e+00  0.00000000e+00  0.00000000e+00  0.00000000e+00
  0.00000000e+00  0.00000000e+00  0.00000000e+00  0.00000000e+00
  0.00000000e+00  0.00000000e+00 -2.00959391e-07  5.31621247e-08
  0.00000000e+00  0.00000000e+00  0.00000000e+00  2.59380445e-06]","[[ 4.03987423e-05  2.70325111e-03]
 [-7.90724876e-05  6.66305823e-04]]",[],0.0,0.0
1787152902.262973,1.619598101233768,0.6786965433774637,2.092542004265953,"[ 3.64959668e-06 -2.41827459e-07  0.00000000e+00  0.00000000e+00
  0.00000000e+00 -2.00959391e-07 -2.41827459e-07  3.32191121e-06
  0.00000000e+00  0.00000000e+00  0.00000000e+00  5.31621247e-08
  0.00000000e+00  0.00000000e+00  0.00000000e+00  0.00000000e+00
  0.00000000e+00  0.00000000e+00  0.00000000e+00  0.00000000e+00
  0.00000000e+00  0.00000000e+00  0.00000000e+00  0.00000000e+00
  0.00000000e+00  0.00000000e+00  0.00000000e+00  0.00000000e+00
  0.00000000e+00  0.00000000e+00 -2.00959391e-07  5.31621247e-08
  0.00000000e+00  0.00000000e+00  0.00000000e+00  2.59380445e-06]","[[ 4.03987423e-05  2.70325111e-03]
 [-7.90724876e-05  6.66305823e-04]]",[],0.0,0.0
1787152902.3140066,1.619598101233768,0.6786965433774637,2.092542004265953,"[ 3.64959668e-06 -2.41827459e-07  0.00000000e+00  0.00000000e+00
  0.00000000e+00 -2.00959391e-07 -2.41827459e-07  3.32191121e-06
  0.00000000e+00  0.00000000e+00  0.00000000e+00  5.31621247e-08
  0.00000000e+00  0.00000000e+00  0.00000000e+00  0.00000000e+00
  0.00000000e+00  0.00000000e+00  0.00000000e+00  0.00000000e+00
  0.00000000e+00  0.00000000e+00  0.00000000e+00  0.00000000e+00
  0.00000000e+00  0.00000000e+00  0.00000000e+00  0.00000000e+00
  0.00000000e+00  0.00000000e+00 -2.00959391e-07  5.31621247e-08
  0.00000000e+00  0.00000000e+00  0.00000000e+00  2.59380445e-06]","[[ 4.03987423e-05  2.70325111e-03]
 [-7.90724876e-05  6.66305823e-04]]",[],0.0,0.0
1787152902.3631823,1.620076482044027,0.6783181425088672,2.1157297670155986,"[ 3.47475927e-06 -2.66069369e-07  0.00000000e+00  0.00000000e+00
  0.00000000e+00 -2.23748229e-07 -2.66069369e-07  3.20356352e-06
  0.00000000e+00  0.00000000e+00  0.00000000e+00  3.70540862e-08
  0.00000000e+00  0.00000000e+00  0.00000000e+00  0.00000000e+00
  0.00000000e+00  0.00000000e+00  0.00000000e+00  0.00000000e+00
  0.00000000e+00  0.00000000e+00  0.00000000e+00  0.00000000e+00
  0.00000000e+00  0.00000000e+00  0.00000000e+00  0.00000000e+00
  0.00000000e+00  0.00000000e+00 -2.23748229e-07  3.70540862e-08
  0.00000000e+00  0.00000000e+00  0.00000000e+00  2.99173934e-06]","[[ 3.92668646e-05  2.61618430e-03]
 [-7.65764914e-05  6.42915591e-04]]",[],0.0,0.0
1787152902.4192417,1.620076482044027,0.6783181425088672,2.1157297670155986,"[ 3.47475927e-06 -2.66069369e-07  0.00000000e+00  0.00000000e+00
  0.00000000e+00 -2.23748229e-07 -2.66069369e-07  3.20356352e-06
  0.00000000e+00  0.00000000e+00  0.00000000e+00  3.70540862e-08
  0.00000000e+00  0.00000000e+00  0.00000000e+00  0.00000000e+00
  0.00000000e+00  0.00000000e+00  0.00000000e+00  0.00000000e+00
  0.00000000e+00  0.00000000e+00  0.00000000e+00  0.00000000e+00
  0.00000000e+00  0.00000000e+00  0.00000000e+00  0.00000000e+00
  0.00000000e+00  0.00000000e+00 -2.23748229e-07  3.70540862e-08
  0.00000000e+00  0.00000000e+00  0.00000000e+00  2.99173934e-06]","[[ 3.92668646e-05  2.61618430e-03]
 [-7.65764914e-05  6.42915591e-04]]",[],0.0,0.0
1787152902.463576,1.620076482044027,0.6783181425088672,2.1157297670155986,"[ 3.47475927e-06 -2.66069369e-07  0.00000000e+00  0.00000000e+00
  0.00000000e+00 -2.23748229e-07 -2.66069369e-07  3.20356352e-06
  0.00000000e+00  0.00000000e+00  0.00000000e+00  3.70540862e-08
  0.00000000e+00  0.00000000e+00  0.00000000e+00  0.00000000e+00
  0.00000000e+00  0.00000000e+00  0.00000000e+00  0.00000000e+00
  0.00000000e+00  0.00000000e+00  0.00000000e+00  0.00000000e+00
  0.00000000e+00  0.00000000e+00  0.00000000e+00  0.00000000e+00
  0.00000000e+00  0.00000000e+00 -2.23748229e-07  3.70540862e-08
  0.00000000e+00  0.00000000e+00  0.00000000e+00  2.99173934e-06]","[[ 3.92668646e-05  2.61618430e-03]
 [-7.65764914e-05  6.42915591e-04]]",[],0.0,0.0
1787152902.5130033,1.620076482044027,0.6783181425088672,2.1157297670155986,"[ 3.47475927e-06 -2.66069369e-07  0.00000000e+00  0.00000000e+00
  0.00000000e+00 -2.23748229e-07 -2.66069369e-07  3.20356352e-06
  0.00000000e+00  0.00000000e+00  0.00000000e+00  3.70540862e-08
  0.00000000e+00  0.00000000e+00  0.00000000e+00  0.00000000e+00
  0.00000000e+00  0.00000000e+00  0.00000000e+00  0.00000000e+00
  0.00000000e+00  0.00000000e+00  0.00000000e+00  0.00000000e+00
  0.00000000e+00  0.00000000e+00  0.00000000e+00  0.00000000e+00
  0.00000000e+00  0.00000000e+00 -2.23748229e-07  3.70540862e-08
  0.00000000e+00  0.00000000e+00  0.00000000e+00  2.99173934e-06]","[[ 3.92668646e-05  2.61618430e-03]
 [-7.65764914e-05  6.42915591e-04]]",[],0.0,0.0
1787152902.5694306,1.620076482044027,0.6783181425088672,2.1157297670155986,"[ 3.47475927e-06 -2.66069369e-07  0.00000000e+00  0.00000000e+00
  0.00000000e+00 -2.23748229e-07 -2.66069369e-07  3.20356352e-06
  0.00000000e+00  0.00000000e+00  0.00000000e+00  3.70540862e-08
  0.00000000e+00  0.00000000e+00  0.00000000e+00  0.00000000e+00
  0.00000000e+00  0.00000000e+00  0.00000000e+00  0.00000000e+00
  0.00000000e+00  0.00000000e+00  0.00000000e+00  0.00000000e+00
  0.00000000e+00  0.00000000e+00  0.00000000e+00  0.00000000e+00
  0.00000000e+00  0.00000000e+00 -2.23748229e-07  3.70540862e-08
  0.00000000e+00  0.00000000e+00  0.00000000e+00  2.99173934e-06]","[[ 3.92668646e-05  2.61618430e-03]
 [-7.65764914e-05  6.42915591e-04]]",[],0.0,0.0
1787152902.6127772,1.620076482044027,0.6783181425088672,2.1157297670155986,"[ 3.47475927e-06 -2.66069369e-07  0.00000000e+00  0.00000000e+00
  0.00000000e+00 -2.23748229e-07 -2.66069369e-07  3.20356352e-06
  0.00000000e+00  0.00000000e+00  0.00000000e+00  3.70540862e-08
  0.00000000e+00  0.00000000e+00  0.00000000e+00  0.00000000e+00
  0.00000000e+00  0.00000000e+00  0.00000000e+00  0.00000000e+00
  0.00000000e+00  0.00000000e+00  0.00000000e+00  0.00000000e+00
  0.00000000e+00  0.00000000e+00  0.00000000e+00  0.00000000e+00
  0.00000000e+00  0.00000000e+00 -2.23748229e-07  3.70540862e-08
  0.00000000e+00  0.00000000e+00  0.00000000e+00  2.99173934e-06]","[[ 3.92668646e-05  2.61618430e-03]
 [-7.65764914e-05  6.42915591e-04]]",[],0.0,0.0
1787152902.6698995,1.620076482044027,0.6783181425088672,2.1157297670155986,"[ 3.47475927e-06 -2.66069369e-07  0.00000000e+00  0.00000000e+00
  0.00000000e+00 -2.23748229e-07 -2.66069369e-07  3.20356352e-06
  0.00000000e+00  0.00000000e+00  0.00000000e+00  3.70540862e-08
  0.00000000e+00  0.00000000e+00  0.00000000e+00  0.00000000e+00
  0.00000000e+00  0.00000000e+00  0.00000000e+00  0.00000000e+00
  0.00000000e+00  0.00000000e+00  0.00000000e+00  0.00000000e+00
  0.00000000e+00  0.00000000e+00  0.00000000e+00  0.00000000e+00
  0.00000000e+00  0.00000000e+00 -2.23748229e-07  3.70540862e-08
  0.00000000e+00  0.00000000e+00  0.00000000e+00  2.99173934e-06]","[[ 3.92668646e-05  2.61618430e-03]
 [-7.65764914e-05  6.42915591e-04]]",[],0.0,0.0
1787152902.7139769,1.620076482044027,0.6783181425088672,2.1157297670155986,"[ 3.47475927e-06 -2.66069369e-07  0.00000000e+00  0.00000000e+00
  0.00000000e+00 -2.23748229e-07 -2.66069369e-07  3.20356352e-06
  0.00000000e+00  0.00000000e+00  0.00000000e+00  3.70540862e-08
  0.00000000e+00  0.00000000e+00  0.00000000e+00  0.00000000e+00
  0.00000000e+00  0.00000000e+00  0.00000000e+00  0.00000000e+00
  0.00000000e+00  0.00000000e+00  0.00000000e+00  0.00000000e+00
  0.00000000e+00  0.00000000e+00  0.00000000e+00  0.00000000e+00
  0.00000000e+00  0.00000000e+00 -2.23748229e-07  3.70540862e-08
  0.00000000e+00  0.00000000e+00  0.00000000e+00  2.99173934e-06]","[[ 3.92668646e-05  2.61618430e-03]
 [-7.65764914e-05  6.42915591e-04]]",[],0.0,0.0
1787152902.766044,1.620076482044027,0.6783181425088672,2.1157297670155986,"[ 3.47475927e-06 -2.66069369e-07  0.00000000e+00  0.00000000e+00
  0.00000000e+00 -2.23748229e-07 -2.66069369e-07  3.20356352e-06
  0.00000000e+00  0.00000000e+00  0.00000000e+00  3.70540862e-08
  0.00000000e+00  0.00000000e+00  0.00000000e+00  0.00000000e+00
  0.00000000e+00  0.00000000e+00  0.00000000e+00  0.00000000e+00
  0.00000000e+00  0.00000000e+00  0.00000000e+00  0.00000000e+00
  0.00000000e+00  0.00000000e+00  0.00000000e+00  0.00000000e+00
  0.00000000e+00  0.00000000e+00 -2.23748229e-07  3.70540862e-08
  0.00000000e+00  0.00000000e+00  0.00000000e+00  2.99173934e-06]","[[ 3.92668646e-05  2.61618430e-03]
 [-7.65764914e-05  6.42915591e-04]]",[],0.0,0.0
1787152902.816868,1.620076482044027,0.6783181425088672,2.1157297670155986,"[ 3.47475927e-06 -2.66069369e-07  0.00000000e+00  0.00000000e+00
  0.00000000e+00 -2.23748229e-07 -2.66069369e-07  3.20356352e-06
  0.00000000e+00  0.00000000e+00  0.00000000e+00  3.70540862e-08
  0.00000000e+00  0.00000000e+00  0.00000000e+00  0.00000000e+00
  0.00000000e+00  0.00000000e+00  0.00000000e+00  0.00000000e+00
  0.00000000e+00  0.00000000e+00  0.00000000e+00  0.00000000e+00
  0.00000000e+00  0.00000000e+00  0.00000000e+00  0.00000000e+00
  0.00000000e+00  0.00000000e+00 -2.23748229e-07  3.70540862e-08
  0.00000000e+00  0.00000000e+00  0.00000000e+00  2.99173934e-06]","[[ 3.92668646e-05  2.61618430e-03]
 [-7.65764914e-05  6.42915591e-04]]",[],0.0,0.0
1787152902.8629305,1.620076482044027,0.6783181425088672,2.1157297670155986,"[ 3.47475927e-06 -2.66069369e-07  0.00000000e+00  0.00000000e+00
  0.00000000e+00 -2.23748229e-07 -2.66069369e-07  3.20356352e-06
  0.00000000e+00  0.00000000e+00  0.00000000e+00  3.70540862e-08
  0.00000000e+00  0.00000000e+00  0.00000000e+00  0.00000000e+00
  0.00000000e+00  0.00000000e+00  0.00000000e+00  0.00000000e+00
  0.00000000e+00  0.00000000e+00  0.00000000e+00  0.00000000e+00
  0.00000000e+00  0.00000000e+00  0.00000000e+00  0.00000000e+00
  0.00000000e+00  0.00000000e+00 -2.23748229e-07  3.70540862e-08
  0.00000000e+00  0.00000000e+00  0.00000000e+00  2.99173934e-06]","[[ 3.92668646e-05  2.61618430e-03]
 [-7.65764914e-05  6.42915591e-04]]",[],0.0,0.0
1787152902.9137127,1.620076482044027,0.6783181425088672,2.1157297670155986,"[ 3.47475927e-06 -2.66069369e-07  0.00000000e+00  0.00000000e+00
  0.00000000e+00 -2.23748229e-07 -2.66069369e-07  3.20356352e-06
  0.00000000e+00  0.00000000e+00  0.00000000e+00  3.70540862e-08
  0.00000000e+00  0.00000000e+00  0.00000000e+00  0.00000000e+00
  0.00000000e+00  0.00000000e+00  0.00000000e+00  0.00000000e+00
  0.00000000e+00  0.00000000e+00  0.00000000e+00  0.00000000e+00
  0.00000000e+00  0.00000000e+00  0.00000000e+00  0.00000000e+00
  0.00000000e+00  0.00000000e+00 -2.23748229e-07  3.70540862e-08
  0.00000000e+00  0.00000000e+00  0.00000000e+00  2.99173934e-06]","[[ 3.92668646e-05  2.61618430e-03]
 [-7.65764914e-05  6.42915591e-04]]",[],0.0,0.0
1787152902.9794436,1.620076482044027,0.6783181425088672,2.1157297670155986,"[ 3.47475927e-06 -2.66069369e-07  0.00000000e+00  0.00000000e+00
  0.00000000e+00 -2.23748229e-07 -2.66069369e-07  3.20356352e-06
  0.00000000e+00  0.00000000e+00  0.00000000e+00  3.70540862e-08
  0.00000000e+00  0.00000000e+00  0.00000000e+00  0.00000000e+00
  0.00000000e+00  0.00000000e+00  0.00000000e+00  0.00000000e+00
  0.00000000e+00  0.00000000e+00  0.00000000e+00  0.00000000e+00
  0.00000000e+00  0.00000000e+00  0.00000000e+00  0.00000000e+00
  0.00000000e+00  0.00000000e+00 -2.23748229e-07  3.70540862e-08
  0.00000000e+00  0.00000000e+00  0.00000000e+00  2.99173934e-06]","[[ 3.92668646e-05  2.61618430e-03]
 [-7.65764914e-05  6.42915591e-04]]",[],0.0,0.0
1787152903.0144699,1.6192573999822908,0.6769647343555181,2.1421789562212314,"[ 3.32701390e-06 -3.03991140e-07  0.00000000e+00  0.00000000e+00
  0.00000000e+00 -2.00457605e-07 -3.03991140e-07  3.11123583e-06
  0.00000000e+00  0.00000000e+00  0.00000000e+00  4.67485362e-08
  0.00000000e+00  0.00000000e+00  0.00000000e+00  0.00000000e+00
  0.00000000e+00  0.00000000e+00  0.00000000e+00  0.00000000e+00
  0.00000000e+00  0.00000000e+00  0.00000000e+00  0.00000000e+00
  0.00000000e+00  0.00000000e+00  0.00000000e+00  0.00000000e+00
  0.00000000e+00  0.00000000e+00 -2.00457605e-07  4.67485362e-08
  0.00000000e+00  0.00000000e+00  0.00000000e+00  3.07746583e-06]","[[ 3.87447919e-05  2.46796427e-03]
 [-7.48011021e-05  5.76284315e-04]]",[],0.0,0.0
1787152903.0631316,1.6192573999822908,0.6769647343555181,2.1421789562212314,"[ 3.32701390e-06 -3.03991140e-07  0.00000000e+00  0.00000000e+00
  0.00000000e+00 -2.00457605e-07 -3.03991140e-07  3.11123583e-06
  0.00000000e+00  0.00000000e+00  0.00000000e+00  4.67485362e-08
  0.00000000e+00  0.00000000e+00  0.00000000e+00  0.00000000e+00
  0.00000000e+00  0.00000000e+00  0.00000000e+00  0.00000000e+00
  0.00000000e+00  0.00000000e+00  0.00000000e+00  0.00000000e+00
  0.00000000e+00  0.00000000e+00  0.00000000e+00  0.00000000e+00
  0.00000000e+00  0.00000000e+00 -2.00457605e-07  4.67485362e-08
  0.00000000e+00  0.00000000e+00  0.00000000e+00  3.07746583e-06]","[[ 3.87447919e-05  2.46796427e-03]
 [-7.48011021e-05  5.76284315e-04]]",[],0.0,0.0
1787152903.1137354,1.6192573999822908,0.6769647343555181,2.1421789562212314,"[ 3.32701390e-06 -3.03991140e-07  0.00000000e+00  0.00000000e+00
  0.00000000e+00 -2.00457605e-07 -3.03991140e-07  3.11123583e-06
  0.00000000e+00  0.00000000e+00  0.00000000e+00  4.67485362e-08
  0.00000000e+00  0.00000000e+00  0.00000000e+00  0.00000000e+00
  0.00000000e+00  0.00000000e+00  0.00000000e+00  0.00000000e+00
  0.00000000e+00  0.00000000e+00  0.00000000e+00  0.00000000e+00
  0.00000000e+00  0.00000000e+00  0.00000000e+00  0.00000000e+00
  0.00000000e+00  0.00000000e+00 -2.00457605e-07  4.67485362e-08
  0.00000000e+00  0.00000000e+00  0.00000000e+00  3.07746583e-06]","[[ 3.87447919e-05  2.46796427e-03]
 [-7.48011021e-05  5.76284315e-04]]",[],0.0,0.0
1787152903.1635575,1.6192573999822908,0.6769647343555181,2.1421789562212314,"[ 3.32701390e-06 -3.03991140e-07  0.00000000e+00  0.00000000e+00
  0.00000000e+00 -2.00457605e-07 -3.03991140e-07  3.11123583e-06
  0.00000000e+00  0.00000000e+00  0.00000000e+00  4.67485362e-08
  0.00000000e+00  0.00000000e+00  0.00000000e+00  0.00000000e+00
  0.00000000e+00  0.00000000e+00  0.00000000e+00  0.00000000e+00
  0.00000000e+00  0.00000000e+00  0.00000000e+00  0.00000000e+00
  0.00000000e+00  0.00000000e+00  0.00000000e+00  0.00000000e+00
  0.00000000e+00  0.00000000e+00 -2.00457605e-07  4.67485362e-08
  0.00000000e+00  0.00000000e+00  0.00000000e+00  3.07746583e-06]","[[ 3.87447919e-05  2.46796427e-03]
 [-7.48011021e-05  5.76284315e-04]]",[],0.0,0.0
1787152903.224743,1.6192573999822908,0.6769647343555181,2.1421789562212314,"[ 3.32701390e-06 -3.03991140e-07  0.00000000e+00  0.00000000e+00
  0.00000000e+00 -2.00457605e-07 -3.03991140e-07  3.11123583e-06
  0.00000000e+00  0.00000000e+00  0.00000000e+00  4.67485362e-08
  0.00000000e+00  0.00000000e+00  0.00000000e+00  0.00000000e+00
  0.00000000e+00  0.00000000e+00  0.00000000e+00  0.00000000e+00
  0.00000000e+00  0.00000000e+00  0.00000000e+00  0.00000000e+00
  0.00000000e+00  0.00000000e+00  0.00000000e+00  0.00000000e+00
  0.00000000e+00  0.00000000e+00 -2.00457605e-07  4.67485362e-08
  0.00000000e+00  0.00000000e+00  0.00000000e+00  3.07746583e-06]","[[ 3.87447919e-05  2.46796427e-03]
 [-7.48011021e-05  5.76284315e-04]]",[],0.0,0.0
1787152903.2644875,1.6192573999822908,0.6769647343555181,2.1421789562212314,"[ 3.32701390e-06 -3.03991140e-07  0.00000000e+00  0.00000000e+00
  0.00000000e+00 -2.00457605e-07 -3.03991140e-07  3.11123583e-06
  0.00000000e+00  0.00000000e+00  0.00000000e+00  4.67485362e-08
  0.00000000e+00  0.00000000e+00  0.00000000e+00  0.00000000e+00
  0.00000000e+00  0.00000000e+00  0.00000000e+00  0.00000000e+00
  0.00000000e+00  0.00000000e+00  0.00000000e+00  0.00000000e+00
  0.00000000e+00  0.00000000e+00  0.00000000e+00  0.00000000e+00
  0.00000000e+00  0.00000000e+00 -2.00457605e-07  4.67485362e-08
  0.00000000e+00  0.00000000e+00  0.00000000e+00  3.07746583e-06]","[[ 3.87447919e-05  2.46796427e-03]
 [-7.48011021e-05  5.76284315e-04]]",[],0.0,0.0
1787152903.3148484,1.6192573999822908,0.6769647343555181,2.1421789562212314,"[ 3.32701390e-06 -3.03991140e-07  0.00000000e+00  0.00000000e+00
  0.00000000e+00 -2.00457605e-07 -3.03991140e-07  3.11123583e-06
  0.00000000e+00  0.00000000e+00  0.00000000e+00  4.67485362e-08
  0.00000000e+00  0.00000000e+00  0.00000000e+00  0.00000000e+00
  0.00000000e+00  0.00000000e+00  0.00000000e+00  0.00000000e+00
  0.00000000e+00  0.00000000e+00  0.00000000e+00  0.00000000e+00
  0.00000000e+00  0.00000000e+00  0.00000000e+00  0.00000000e+00
  0.00000000e+00  0.00000000e+00 -2.00457605e-07  4.67485362e-08
  0.00000000e+00  0.00000000e+00  0.00000000e+00  3.07746583e-06]","[[ 3.87447919e-05  2.46796427e-03]
 [-7.48011021e-05  5.76284315e-04]]",[],0.0,0.0
1787152903.3636458,1.6192573999822908,0.6769647343555181,2.1421789562212314,"[ 3.32701390e-06 -3.03991140e-07  0.00000000e+00  0.00000000e+00
  0.00000000e+00 -2.00457605e-07 -3.03991140e-07  3.11123583e-06
  0.00000000e+00  0.00000000e+00  0.00000000e+00  4.67485362e-08
  0.00000000e+00  0.00000000e+00  0.00000000e+00  0.00000000e+00
  0.00000000e+00  0.00000000e+00  0.00000000e+00  0.00000000e+00
  0.00000000e+00  0.00000000e+00  0.00000000e+00  0.00000000e+00
  0.00000000e+00  0.00000000e+00  0.00000000e+00  0.00000000e+00
  0.00000000e+00  0.00000000e+00 -2.00457605e-07  4.67485362e-08
  0.00000000e+00  0.00000000e+00  0.00000000e+00  3.07746583e-06]","[[ 3.87447919e-05  2.46796427e-03]
 [-7.48011021e-05  5.76284315e-04]]",[],0.0,0.0
1787152903.4133112,1.6192573999822908,0.6769647343555181,2.1421789562212314,"[ 3.32701390e-06 -3.03991140e-07  0.00000000e+00  0.00000000e+00
  0.00000000e+00 -2.00457605e-07 -3.03991140e-07  3.11123583e-06
  0.00000000e+00  0.00000000e+00  0.00000000e+00  4.67485362e-08
  0.00000000e+00  0.00000000e+00  0.00000000e+00  0.00000000e+00
  0.00000000e+00  0.00000000e+00  0.00000000e+00  0.00000000e+00
  0.00000000e+00  0.00000000e+00  0.00000000e+00  0.00000000e+00
  0.00000000e+00  0.00000000e+00  0.00000000e+00  0.00000000e+00
  0.00000000e+00  0.00000000e+00 -2.00457605e-07  4.67485362e-08
  0.00000000e+00  0.00000000e+00  0.00000000e+00  3.07746583e-06]","[[ 3.87447919e-05  2.46796427e-03]
 [-7.48011021e-05  5.76284315e-04]]",[],0.0,0.0
1787152903.466228,1.6192573999822908,0.6769647343555181,2.1421789562212314,"[ 3.32701390e-06 -3.03991140e-07  0.00000000e+00  0.00000000e+00
  0.00000000e+00 -2.00457605e-07 -3.03991140e-07  3.11123583e-06
  0.00000000e+00  0.00000000e+00  0.00000000e+00  4.67485362e-08
  0.00000000e+00  0.00000000e+00  0.00000000e+00  0.00000000e+00
  0.00000000e+00  0.00000000e+00  0.00000000e+00  0.00000000e+00
  0.00000000e+00  0.00000000e+00  0.00000000e+00  0.00000000e+00
  0.00000000e+00  0.00000000e+00  0.00000000e+00  0.00000000e+00
  0.00000000e+00  0.00000000e+00 -2.00457605e-07  4.67485362e-08
  0.00000000e+00  0.00000000e+00  0.00000000e+00  3.07746583e-06]","[[ 3.87447919e-05  2.46796427e-03]
 [-7.48011021e-05  5.76284315e-04]]",[],0.0,0.0
1787152903.513119,1.6192573999822908,0.6769647343555181,2.1421789562212314,"[ 3.32701390e-06 -3.03991140e-07  0.00000000e+00  0.00000000e+00
  0.00000000e+00 -2.00457605e-07 -3.03991140e-07  3.11123583e-06
  0.00000000e+00  0.00000000e+00  0.00000000e+00  4.67485362e-08
  0.00000000e+00  0.00000000e+00  0.00000000e+00  0.00000000e+00
  0.00000000e+00  0.00000000e+00  0.00000000e+00  0.00000000e+00
  0.00000000e+00  0.00000000e+00  0.00000000e+00  0.00000000e+00
  0.00000000e+00  0.00000000e+00  0.00000000e+00  0.00000000e+00
  0.00000000e+00  0.00000000e+00 -2.00457605e-07  4.67485362e-08
  0.00000000e+00  0.00000000e+00  0.00000000e+00  3.07746583e-06]","[[ 3.87447919e-05  2.46796427e-03]
 [-7.48011021e-05  5.76284315e-04]]",[],0.0,0.0
1787152903.5642745,1.6192573999822908,0.6769647343555181,2.1421789562212314,"[ 3.32701390e-06 -3.03991140e-07  0.00000000e+00  0.00000000e+00
  0.00000000e+00 -2.00457605e-07 -3.03991140e-07  3.11123583e-06
  0.00000000e+00  0.00000000e+00  0.00000000e+00  4.67485362e-08
  0.00000000e+00  0.00000000e+00  0.00000000e+00  0.00000000e+00
  0.00000000e+00  0.00000000e+00  0.00000000e+00  0.00000000e+00
  0.00000000e+00  0.00000000e+00  0.00000000e+00  0.00000000e+00
  0.00000000e+00  0.00000000e+00  0.00000000e+00  0.00000000e+00
  0.00000000e+00  0.00000000e+00 -2.00457605e-07  4.67485362e-08
  0.00000000e+00  0.00000000e+00  0.00000000e+00  3.07746583e-06]","[[ 3.87447919e-05  2.46796427e-03]
 [-7.48011021e-05  5.76284315e-04]]",[],0.0,0.0
1787152903.6130683,1.6192573999822908,0.6769647343555181,2.1421789562212314,"[ 3.32701390e-06 -3.03991140e-07  0.00000000e+00  0.00000000e+00
  0.00000000e+00 -2.00457605e-07 -3.03991140e-07  3.11123583e-06
  0.00000000e+00  0.00000000e+00  0.00000000e+00  4.67485362e-08
  0.00000000e+00  0.00000000e+00  0.00000000e+00  0.00000000e+00
  0.00000000e+00  0.00000000e+00  0.00000000e+00  0.00000000e+00
  0.00000000e+00  0.00000000e+00  0.00000000e+00  0.00000000e+00
  0.00000000e+00  0.00000000e+00  0.00000000e+00  0.00000000e+00
  0.00000000e+00  0.00000000e+00 -2.00457605e-07  4.67485362e-08
  0.00000000e+00  0.00000000e+00  0.00000000e+00  3.07746583e-06]","[[ 3.87447919e-05  2.46796427e-03]
 [-7.48011021e-05  5.76284315e-04]]",[],0.0,0.0
1787152903.6629264,1.6192573999822908,0.6769647343555181,2.1421789562212314,"[ 3.32701390e-06 -3.03991140e-07  0.00000000e+00  0.00000000e+00
  0.00000000e+00 -2.00457605e-07 -3.03991140e-07  3.11123583e-06
  0.00000000e+00  0.00000000e+00  0.00000000e+00  4.67485362e-08
  0.00000000e+00  0.00000000e+00  0.00000000e+00  0.00000000e+00
  0.00000000e+00  0.00000000e+00  0.00000000e+00  0.00000000e+00
  0.00000000e+00  0.00000000e+00  0.00000000e+00  0.00000000e+00
  0.00000000e+00  0.00000000e+00  0.00000000e+00  0.00000000e+00
  0.00000000e+00  0.00000000e+00 -2.00457605e-07  4.67485362e-08
  0.00000000e+00  0.00000000e+00  0.00000000e+00  3.07746583e-06]","[[ 3.87447919e-05  2.46796427e-03]
 [-7.48011021e-05  5.76284315e-04]]",[],0.0,0.0
1787152903.714036,1.6189272141384046,0.6757028080698259,2.180893646862529,"[ 3.17611951e-06 -3.44344889e-07  0.00000000e+00  0.00000000e+00
  0.00000000e+00 -1.79814720e-07 -3.44344889e-07  3.03079425e-06
  0.00000000e+00  0.00000000e+00  0.00000000e+00  5.42342063e-08
  0.00000000e+00  0.00000000e+00  0.00000000e+00  0.00000000e+00
  0.00000000e+00  0.00000000e+00  0.00000000e+00  0.00000000e+00
  0.00000000e+00  0.00000000e+00  0.00000000e+00  0.00000000e+00
  0.00000000e+00  0.00000000e+00  0.00000000e+00  0.00000000e+00
  0.00000000e+00  0.00000000e+00 -1.79814720e-07  5.42342063e-08
  0.00000000e+00  0.00000000e+00  0.00000000e+00  2.96366996e-06]","[[ 3.81998317e-05  2.32180523e-03]
 [-7.33383861e-05  5.13408149e-04]]",[],0.0,0.0
1787152903.7630837,1.6189272141384046,0.6757028080698259,2.180893646862529,"[ 3.17611951e-06 -3.44344889e-07  0.00000000e+00  0.00000000e+00
  0.00000000e+00 -1.79814720e-07 -3.44344889e-07  3.03079425e-06
  0.00000000e+00  0.00000000e+00  0.00000000e+00  5.42342063e-08
  0.00000000e+00  0.00000000e+00  0.00000000e+00  0.00000000e+00
  0.00000000e+00  0.00000000e+00  0.00000000e+00  0.00000000e+00
  0.00000000e+00  0.00000000e+00  0.00000000e+00  0.00000000e+00
  0.00000000e+00  0.00000000e+00  0.00000000e+00  0.00000000e+00
  0.00000000e+00  0.00000000e+00 -1.79814720e-07  5.42342063e-08
  0.00000000e+00  0.00000000e+00  0.00000000e+00  2.96366996e-06]","[[ 3.81998317e-05  2.32180523e-03]
 [-7.33383861e-05  5.13408149e-04]]",[],0.0,0.0
1787152903.8171527,1.6189272141384046,0.6757028080698259,2.180893646862529,"[ 3.17611951e-06 -3.44344889e-07  0.00000000e+00  0.00000000e+00
  0.00000000e+00 -1.79814720e-07 -3.44344889e-07  3.03079425e-06
  0.00000000e+00  0.00000000e+00  0.00000000e+00  5.42342063e-08
  0.00000000e+00  0.00000000e+00  0.00000000e+00  0.00000000e+00
  0.00000000e+00  0.00000000e+00  0.00000000e+00  0.00000000e+00
  0.00000000e+00  0.00000000e+00  0.00000000e+00  0.00000000e+00
  0.00000000e+00  0.00000000e+00  0.00000000e+00  0.00000000e+00
  0.00000000e+00  0.00000000e+00 -1.79814720e-07  5.42342063e-08
  0.00000000e+00  0.00000000e+00  0.00000000e+00  2.96366996e-06]","[[ 3.81998317e-05  2.32180523e-03]
 [-7.33383861e-05  5.13408149e-04]]",[],0.0,0.0
1787152903.8632205,1.6189272141384046,0.6757028080698259,2.180893646862529,"[ 3.17611951e-06 -3.44344889e-07  0.00000000e+00  0.00000000e+00
  0.00000000e+00 -1.79814720e-07 -3.44344889e-07  3.03079425e-06
  0.00000000e+00  0.00000000e+00  0.00000000e+00  5.42342063e-08
  0.00000000e+00  0.00000000e+00  0.00000000e+00  0.00000000e+00
  0.00000000e+00  0.00000000e+00  0.00000000e+00  0.00000000e+00
  0.00000000e+00  0.00000000e+00  0.00000000e+00  0.00000000e+00
  0.00000000e+00  0.00000000e+00  0.00000000e+00  0.00000000e+00
  0.00000000e+00  0.00000000e+00 -1.79814720e-07  5.42342063e-08
  0.00000000e+00  0.00000000e+00  0.00000000e+00  2.96366996e-06]","[[ 3.81998317e-05  2.32180523e-03]
 [-7.33383861e-05  5.13408149e-04]]",[],0.0,0.0
1787152903.9130433,1.6189272141384046,0.6757028080698259,2.180893646862529,"[ 3.17611951e-06 -3.44344889e-07  0.00000000e+00  0.00000000e+00
  0.00000000e+00 -1.79814720e-07 -3.44344889e-07  3.03079425e-06
  0.00000000e+00  0.00000000e+00  0.00000000e+00  5.42342063e-08
  0.00000000e+00  0.00000000e+00  0.00000000e+00  0.00000000e+00
  0.00000000e+00  0.00000000e+00  0.00000000e+00  0.00000000e+00
  0.00000000e+00  0.00000000e+00  0.00000000e+00  0.00000000e+00
  0.00000000e+00  0.00000000e+00  0.00000000e+00  0.00000000e+00
  0.00000000e+00  0.00000000e+00 -1.79814720e-07  5.42342063e-08
  0.00000000e+00  0.00000000e+00  0.00000000e+00  2.96366996e-06]","[[ 3.81998317e-05  2.32180523e-03]
 [-7.33383861e-05  5.13408149e-04]]",[],0.0,0.0
1787152903.9634404,1.6189272141384046,0.6757028080698259,2.180893646862529,"[ 3.17611951e-06 -3.44344889e-07  0.00000000e+00  0.00000000e+00
  0.00000000e+00 -1.79814720e-07 -3.44344889e-07  3.03079425e-06
  0.00000000e+00  0.00000000e+00  0.00000000e+00  5.42342063e-08
  0.00000000e+00  0.00000000e+00  0.00000000e+00  0.00000000e+00
  0.00000000e+00  0.00000000e+00  0.00000000e+00  0.00000000e+00
  0.00000000e+00  0.00000000e+00  0.00000000e+00  0.00000000e+00
  0.00000000e+00  0.00000000e+00  0.00000000e+00  0.00000000e+00
  0.00000000e+00  0.00000000e+00 -1.79814720e-07  5.42342063e-08
  0.00000000e+00  0.00000000e+00  0.00000000e+00  2.96366996e-06]","[[ 3.81998317e-05  2.32180523e-03]
 [-7.33383861e-05  5.13408149e-04]]",[],0.0,0.0
1787152904.016299,1.6189272141384046,0.6757028080698259,2.180893646862529,"[ 3.17611951e-06 -3.44344889e-07  0.00000000e+00  0.00000000e+00
  0.00000000e+00 -1.79814720e-07 -3.44344889e-07  3.03079425e-06
  0.00000000e+00  0.00000000e+00  0.00000000e+00  5.42342063e-08
  0.00000000e+00  0.00000000e+00  0.00000000e+00  0.00000000e+00
  0.00000000e+00  0.00000000e+00  0.00000000e+00  0.00000000e+00
  0.00000000e+00  0.00000000e+00  0.00000000e+00  0.00000000e+00
  0.00000000e+00  0.00000000e+00  0.00000000e+00  0.00000000e+00
  0.00000000e+00  0.00000000e+00 -1.79814720e-07  5.42342063e-08
  0.00000000e+00  0.00000000e+00  0.00000000e+00  2.96366996e-06]","[[ 3.81998317e-05  2.32180523e-03]
 [-7.33383861e-05  5.13408149e-04]]",[],0.0,0.0
1787152904.0782936,1.6189272141384046,0.6757028080698259,2.180893646862529,"[ 3.17611951e-06 -3.44344889e-07  0.00000000e+00  0.00000000e+00
  0.00000000e+00 -1.79814720e-07 -3.44344889e-07  3.03079425e-06
  0.00000000e+00  0.00000000e+00  0.00000000e+00  5.42342063e-08
  0.00000000e+00  0.00000000e+00  0.00000000e+00  0.00000000e+00
  0.00000000e+00  0.00000000e+00  0.00000000e+00  0.00000000e+00
  0.00000000e+00  0.00000000e+00  0.00000000e+00  0.00000000e+00
  0.00000000e+00  0.00000000e+00  0.00000000e+00  0.00000000e+00
  0.00000000e+00  0.00000000e+00 -1.79814720e-07  5.42342063e-08
  0.00000000e+00  0.00000000e+00  0.00000000e+00  2.96366996e-06]","[[ 3.81998317e-05  2.32180523e-03]
 [-7.33383861e-05  5.13408149e-04]]",[],0.0,0.0
1787152904.1167717,1.6189272141384046,0.6757028080698259,2.180893646862529,"[ 3.17611951e-06 -3.44344889e-07  0.00000000e+00  0.00000000e+00
  0.00000000e+00 -1.79814720e-07 -3.44344889e-07  3.03079425e-06
  0.00000000e+00  0.00000000e+00  0.00000000e+00  5.42342063e-08
  0.00000000e+00  0.00000000e+00  0.00000000e+00  0.00000000e+00
  0.00000000e+00  0.00000000e+00  0.00000000e+00  0.00000000e+00
  0.00000000e+00  0.00000000e+00  0.00000000e+00  0.00000000e+00
  0.00000000e+00  0.00000000e+00  0.00000000e+00  0.00000000e+00
  0.00000000e+00  0.00000000e+00 -1.79814720e-07  5.42342063e-08
  0.00000000e+00  0.00000000e+00  0.00000000e+00  2.96366996e-06]","[[ 3.81998317e-05  2.32180523e-03]
 [-7.33383861e-05  5.13408149e-04]]",[],0.0,0.0
1787152904.1630158,1.6189272141384046,0.6757028080698259,2.180893646862529,"[ 3.17611951e-06 -3.44344889e-07  0.00000000e+00  0.00000000e+00
  0.00000000e+00 -1.79814720e-07 -3.44344889e-07  3.03079425e-06
  0.00000000e+00  0.00000000e+00  0.00000000e+00  5.42342063e-08
  0.00000000e+00  0.00000000e+00  0.00000000e+00  0.00000000e+00
  0.00000000e+00  0.00000000e+00  0.00000000e+00  0.00000000e+00
  0.00000000e+00  0.00000000e+00  0.00000000e+00  0.00000000e+00
  0.00000000e+00  0.00000000e+00  0.00000000e+00  0.00000000e+00
  0.00000000e+00  0.00000000e+00 -1.79814720e-07  5.42342063e-08
  0.00000000e+00  0.00000000e+00  0.00000000e+00  2.96366996e-06]","[[ 3.81998317e-05  2.32180523e-03]
 [-7.33383861e-05  5.13408149e-04]]",[],0.0,0.0
1787152904.2134662,1.6189272141384046,0.6757028080698259,2.180893646862529,"[ 3.17611951e-06 -3.44344889e-07  0.00000000e+00  0.00000000e+00
  0.00000000e+00 -1.79814720e-07 -3.44344889e-07  3.03079425e-06
  0.00000000e+00  0.00000000e+00  0.00000000e+00  5.42342063e-08
  0.00000000e+00  0.00000000e+00  0.00000000e+00  0.00000000e+00
  0.00000000e+00  0.00000000e+00  0.00000000e+00  0.00000000e+00
  0.00000000e+00  0.00000000e+00  0.00000000e+00  0.00000000e+00
  0.00000000e+00  0.00000000e+00  0.00000000e+00  0.00000000e+00
  0.00000000e+00  0.00000000e+00 -1.79814720e-07  5.42342063e-08
  0.00000000e+00  0.00000000e+00  0.00000000e+00  2.96366996e-06]","[[ 3.81998317e-05  2.32180523e-03]
 [-7.33383861e-05  5.13408149e-04]]",[],0.0,0.0
1787152904.2667074,1.6189272141384046,0.6757028080698259,2.180893646862529,"[ 3.17611951e-06 -3.44344889e-07  0.00000000e+00  0.00000000e+00
  0.00000000e+00 -1.79814720e-07 -3.44344889e-07  3.03079425e-06
  0.00000000e+00  0.00000000e+00  0.00000000e+00  5.42342063e-08
  0.00000000e+00  0.00000000e+00  0.00000000e+00  0.00000000e+00
  0.00000000e+00  0.00000000e+00  0.00000000e+00  0.00000000e+00
  0.00000000e+00  0.00000000e+00  0.00000000e+00  0.00000000e+00
  0.00000000e+00  0.00000000e+00  0.00000000e+00  0.00000000e+00
  0.00000000e+00  0.00000000e+00 -1.79814720e-07  5.42342063e-08
  0.00000000e+00  0.00000000e+00  0.00000000e+00  2.96366996e-06]","[[ 3.81998317e-05  2.32180523e-03]
 [-7.33383861e-05  5.13408149e-04]]",[],0.0,0.0
1787152904.3145897,1.6189272141384046,0.6757028080698259,2.180893646862529,"[ 3.17611951e-06 -3.44344889e-07  0.00000000e+00  0.00000000e+00
  0.00000000e+00 -1.79814720e-07 -3.44344889e-07  3.03079425e-06
  0.00000000e+00  0.00000000e+00  0.00000000e+00  5.42342063e-08
  0.00000000e+00  0.00000000e+00  0.00000000e+00  0.00000000e+00
  0.00000000e+00  0.00000000e+00  0.00000000e+00  0.00000000e+00
  0.00000000e+00  0.00000000e+00  0.00000000e+00  0.00000000e+00
  0.00000000e+00  0.00000000e+00  0.00000000e+00  0.00000000e+00
  0.00000000e+00  0.00000000e+00 -1.79814720e-07  5.42342063e-08
  0.00000000e+00  0.00000000e+00  0.00000000e+00  2.96366996e-06]","[[ 3.81998317e-05  2.32180523e-03]
 [-7.33383861e-05  5.13408149e-04]]",[],0.0,0.0
1787152904.3637137,1.6183823714356778,0.673582265621117,2.2014364105725486,"[ 3.06616580e-06 -3.73997458e-07  0.00000000e+00  0.00000000e+00
  0.00000000e+00 -1.85835437e-07 -3.73997458e-07  2.96319691e-06
  0.00000000e+00  0.00000000e+00  0.00000000e+00  6.94791603e-08
  0.00000000e+00  0.00000000e+00  0.00000000e+00  0.00000000e+00
  0.00000000e+00  0.00000000e+00  0.00000000e+00  0.00000000e+00
  0.00000000e+00  0.00000000e+00  0.00000000e+00  0.00000000e+00
  0.00000000e+00  0.00000000e+00  0.00000000e+00  0.00000000e+00
  0.00000000e+00  0.00000000e+00 -1.85835437e-07  6.94791603e-08
  0.00000000e+00  0.00000000e+00  0.00000000e+00  3.20887409e-06]","[[ 5.69171602e-05  1.79346919e-03]
 [-6.23838413e-05  1.05343868e-03]]",[],0.0,0.0
1787152904.413628,1.6183823714356778,0.673582265621117,2.2014364105725486,"[ 3.06616580e-06 -3.73997458e-07  0.00000000e+00  0.00000000e+00
  0.00000000e+00 -1.85835437e-07 -3.73997458e-07  2.96319691e-06
  0.00000000e+00  0.00000000e+00  0.00000000e+00  6.94791603e-08
  0.00000000e+00  0.00000000e+00  0.00000000e+00  0.00000000e+00
  0.00000000e+00  0.00000000e+00  0.00000000e+00  0.00000000e+00
  0.00000000e+00  0.00000000e+00  0.00000000e+00  0.00000000e+00
  0.00000000e+00  0.00000000e+00  0.00000000e+00  0.00000000e+00
  0.00000000e+00  0.00000000e+00 -1.85835437e-07  6.94791603e-08
  0.00000000e+00  0.00000000e+00  0.00000000e+00  3.20887409e-06]","[[ 5.69171602e-05  1.79346919e-03]
 [-6.23838413e-05  1.05343868e-03]]",[],0.0,0.0
1787152904.4630876,1.6183823714356778,0.673582265621117,2.2014364105725486,"[ 3.06616580e-06 -3.73997458e-07  0.00000000e+00  0.00000000e+00
  0.00000000e+00 -1.85835437e-07 -3.73997458e-07  2.96319691e-06
  0.00000000e+00  0.00000000e+00  0.00000000e+00  6.94791603e-08
  0.00000000e+00  0.00000000e+00  0.00000000e+00  0.00000000e+00
  0.00000000e+00  0.00000000e+00  0.00000000e+00  0.00000000e+00
  0.00000000e+00  0.00000000e+00  0.00000000e+00  0.00000000e+00
  0.00000000e+00  0.00000000e+00  0.00000000e+00  0.00000000e+00
  0.00000000e+00  0.00000000e+00 -1.85835437e-07  6.94791603e-08
  0.00000000e+00  0.00000000e+00  0.00000000e+00  3.20887409e-06]","[[ 5.69171602e-05  1.79346919e-03]
 [-6.23838413e-05  1.05343868e-03]]",[],0.0,0.0
1787152904.5128267,1.6183823714356778,0.673582265621117,2.2014364105725486,"[ 3.06616580e-06 -3.73997458e-07  0.00000000e+00  0.00000000e+00
  0.00000000e+00 -1.85835437e-07 -3.73997458e-07  2.96319691e-06
  0.00000000e+00  0.00000000e+00  0.00000000e+00  6.94791603e-08
  0.00000000e+00  0.00000000e+00  0.00000000e+00  0.00000000e+00
  0.00000000e+00  0.00000000e+00  0.00000000e+00  0.00000000e+00
  0.00000000e+00  0.00000000e+00  0.00000000e+00  0.00000000e+00
  0.00000000e+00  0.00000000e+00  0.00000000e+00  0.00000000e+00
  0.00000000e+00  0.00000000e+00 -1.85835437e-07  6.94791603e-08
  0.00000000e+00  0.00000000e+00  0.00000000e+00  3.20887409e-06]","[[ 5.69171602e-05  1.79346919e-03]
 [-6.23838413e-05  1.05343868e-03]]",[],0.0,0.0
1787152904.5637412,1.6183823714356778,0.673582265621117,2.2014364105725486,"[ 3.06616580e-06 -3.73997458e-07  0.00000000e+00  0.00000000e+00
  0.00000000e+00 -1.85835437e-07 -3.73997458e-07  2.96319691e-06
  0.00000000e+00  0.00000000e+00  0.00000000e+00  6.94791603e-08
  0.00000000e+00  0.00000000e+00  0.00000000e+00  0.00000000e+00
  0.00000000e+00  0.00000000e+00  0.00000000e+00  0.00000000e+00
  0.00000000e+00  0.00000000e+00  0.00000000e+00  0.00000000e+00
  0.00000000e+00  0.00000000e+00  0.00000000e+00  0.00000000e+00
  0.00000000e+00  0.00000000e+00 -1.85835437e-07  6.94791603e-08
  0.00000000e+00  0.00000000e+00  0.00000000e+00  3.20887409e-06]","[[ 5.69171602e-05  1.79346919e-03]
 [-6.23838413e-05  1.05343868e-03]]",[],0.0,0.0
1787152904.6131656,1.6183823714356778,0.673582265621117,2.2014364105725486,"[ 3.06616580e-06 -3.73997458e-07  0.00000000e+00  0.00000000e+00
  0.00000000e+00 -1.85835437e-07 -3.73997458e-07  2.96319691e-06
  0.00000000e+00  0.00000000e+00  0.00000000e+00  6.94791603e-08
  0.00000000e+00  0.00000000e+00  0.00000000e+00  0.00000000e+00
  0.00000000e+00  0.00000000e+00  0.00000000e+00  0.00000000e+00
  0.00000000e+00  0.00000000e+00  0.00000000e+00  0.00000000e+00
  0.00000000e+00  0.00000000e+00  0.00000000e+00  0.00000000e+00
  0.00000000e+00  0.00000000e+00 -1.85835437e-07  6.94791603e-08
  0.00000000e+00  0.00000000e+00  0.00000000e+00  3.20887409e-06]","[[ 5.69171602e-05  1.79346919e-03]
 [-6.23838413e-05  1.05343868e-03]]",[],0.0,0.0
1787152904.6630874,1.6183823714356778,0.673582265621117,2.2014364105725486,"[ 3.06616580e-06 -3.73997458e-07  0.00000000e+00  0.00000000e+00
  0.00000000e+00 -1.85835437e-07 -3.73997458e-07  2.96319691e-06
  0.00000000e+00  0.00000000e+00  0.00000000e+00  6.94791603e-08
  0.00000000e+00  0.00000000e+00  0.00000000e+00  0.00000000e+00
  0.00000000e+00  0.00000000e+00  0.00000000e+00  0.00000000e+00
  0.00000000e+00  0.00000000e+00  0.00000000e+00  0.00000000e+00
  0.00000000e+00  0.00000000e+00  0.00000000e+00  0.00000000e+00
  0.00000000e+00  0.00000000e+00 -1.85835437e-07  6.94791603e-08
  0.00000000e+00  0.00000000e+00  0.00000000e+00  3.20887409e-06]","[[ 5.69171602e-05  1.79346919e-03]
 [-6.23838413e-05  1.05343868e-03]]",[],0.0,0.0
1787152904.7131135,1.6183823714356778,0.673582265621117,2.2014364105725486,"[ 3.06616580e-06 -3.73997458e-07  0.00000000e+00  0.00000000e+00
  0.00000000e+00 -1.85835437e-07 -3.73997458e-07  2.96319691e-06
  0.00000000e+00  0.00000000e+00  0.00000000e+00  6.94791603e-08
  0.00000000e+00  0.00000000e+00  0.00000000e+00  0.00000000e+00
  0.00000000e+00  0.00000000e+00  0.00000000e+00  0.00000000e+00
  0.00000000e+00  0.00000000e+00  0.00000000e+00  0.00000000e+00
  0.00000000e+00  0.00000000e+00  0.00000000e+00  0.00000000e+00
  0.00000000e+00  0.00000000e+00 -1.85835437e-07  6.94791603e-08
  0.00000000e+00  0.00000000e+00  0.00000000e+00  3.20887409e-06]","[[ 5.69171602e-05  1.79346919e-03]
 [-6.23838413e-05  1.05343868e-03]]",[],0.0,0.0
1787152904.764104,1.6183823714356778,0.673582265621117,2.2014364105725486,"[ 3.06616580e-06 -3.73997458e-07  0.00000000e+00  0.00000000e+00
  0.00000000e+00 -1.85835437e-07 -3.73997458e-07  2.96319691e-06
  0.00000000e+00  0.00000000e+00  0.00000000e+00  6.94791603e-08
  0.00000000e+00  0.00000000e+00  0.00000000e+00  0.00000000e+00
  0.00000000e+00  0.00000000e+00  0.00000000e+00  0.00000000e+00
  0.00000000e+00  0.00000000e+00  0.00000000e+00  0.00000000e+00
  0.00000000e+00  0.00000000e+00  0.00000000e+00  0.00000000e+00
  0.00000000e+00  0.00000000e+00 -1.85835437e-07  6.94791603e-08
  0.00000000e+00  0.00000000e+00  0.00000000e+00  3.20887409e-06]","[[ 5.69171602e-05  1.79346919e-03]
 [-6.23838413e-05  1.05343868e-03]]",[],0.0,0.0
1787152904.8133073,1.6183823714356778,0.673582265621117,2.2014364105725486,"[ 3.06616580e-06 -3.73997458e-07  0.00000000e+00  0.00000000e+00
  0.00000000e+00 -1.85835437e-07 -3.73997458e-07  2.96319691e-06
  0.00000000e+00  0.00000000e+00  0.00000000e+00  6.94791603e-08
  0.00000000e+00  0.00000000e+00  0.00000000e+00  0.00000000e+00
  0.00000000e+00  0.00000000e+00  0.00000000e+00  0.00000000e+00
  0.00000000e+00  0.00000000e+00  0.00000000e+00  0.00000000e+00
  0.00000000e+00  0.00000000e+00  0.00000000e+00  0.00000000e+00
  0.00000000e+00  0.00000000e+00 -1.85835437e-07  6.94791603e-08
  0.00000000e+00  0.00000000e+00  0.00000000e+00  3.20887409e-06]","[[ 5.69171602e-05  1.79346919e-03]
 [-6.23838413e-05  1.05343868e-03]]",[],0.0,0.0
1787152904.8641586,1.6183823714356778,0.673582265621117,2.2014364105725486,"[ 3.06616580e-06 -3.73997458e-07  0.00000000e+00  0.00000000e+00
  0.00000000e+00 -1.85835437e-07 -3.73997458e-07  2.96319691e-06
  0.00000000e+00  0.00000000e+00  0.00000000e+00  6.94791603e-08
  0.00000000e+00  0.00000000e+00  0.00000000e+00  0.00000000e+00
  0.00000000e+00  0.00000000e+00  0.00000000e+00  0.00000000e+00
  0.00000000e+00  0.00000000e+00  0.00000000e+00  0.00000000e+00
  0.00000000e+00  0.00000000e+00  0.00000000e+00  0.00000000e+00
  0.00000000e+00  0.00000000e+00 -1.85835437e-07  6.94791603e-08
  0.00000000e+00  0.00000000e+00  0.00000000e+00  3.20887409e-06]","[[ 5.69171602e-05  1.79346919e-03]
 [-6.23838413e-05  1.05343868e-03]]",[],0.0,0.0
1787152904.9143548,1.6183823714356778,0.673582265621117,2.2014364105725486,"[ 3.06616580e-06 -3.73997458e-07  0.00000000e+00  0.00000000e+00
  0.00000000e+00 -1.85835437e-07 -3.73997458e-07  2.96319691e-06
  0.00000000e+00  0.00000000e+00  0.00000000e+00  6.94791603e-08
  0.00000000e+00  0.00000000e+00  0.00000000e+00  0.00000000e+00
  0.00000000e+00  0.00000000e+00  0.00000000e+00  0.00000000e+00
  0.00000000e+00  0.00000000e+00  0.00000000e+00  0.00000000e+00
  0.00000000e+00  0.00000000e+00  0.00000000e+00  0.00000000e+00
  0.00000000e+00  0.00000000e+00 -1.85835437e-07  6.94791603e-08
  0.00000000e+00  0.00000000e+00  0.00000000e+00  3.20887409e-06]","[[ 5.69171602e-05  1.79346919e-03]
 [-6.23838413e-05  1.05343868e-03]]",[],0.0,0.0
1787152904.9633198,1.6183823714356778,0.673582265621117,2.2014364105725486,"[ 3.06616580e-06 -3.73997458e-07  0.00000000e+00  0.00000000e+00
  0.00000000e+00 -1.85835437e-07 -3.73997458e-07  2.96319691e-06
  0.00000000e+00  0.00000000e+00  0.00000000e+00  6.94791603e-08
  0.00000000e+00  0.00000000e+00  0.00000000e+00  0.00000000e+00
  0.00000000e+00  0.00000000e+00  0.00000000e+00  0.00000000e+00
  0.00000000e+00  0.00000000e+00  0.00000000e+00  0.00000000e+00
  0.00000000e+00  0.00000000e+00  0.00000000e+00  0.00000000e+00
  0.00000000e+00  0.00000000e+00 -1.85835437e-07  6.94791603e-08
  0.00000000e+00  0.00000000e+00  0.00000000e+00  3.20887409e-06]","[[ 5.69171602e-05  1.79346919e-03]
 [-6.23838413e-05  1.05343868e-03]]",[],0.0,0.0
1787152905.014658,1.6170160119688215,0.671684870177603,2.22327594613561,"[ 2.96250405e-06 -4.01224629e-07  0.00000000e+00  0.00000000e+00
  0.00000000e+00 -1.72261570e-07 -4.01224629e-07  2.88180147e-06
  0.00000000e+00  0.00000000e+00  0.00000000e+00  7.00105530e-08
  0.00000000e+00  0.00000000e+00  0.00000000e+00  0.00000000e+00
  0.00000000e+00  0.00000000e+00  0.00000000e+00  0.00000000e+00
  0.00000000e+00  0.00000000e+00  0.00000000e+00  0.00000000e+00
  0.00000000e+00  0.00000000e+00  0.00000000e+00  0.00000000e+00
  0.00000000e+00  0.00000000e+00 -1.72261570e-07  7.00105530e-08
  0.00000000e+00  0.00000000e+00  0.00000000e+00  3.00244137e-06]","[[ 5.57121568e-05  1.70278728e-03]
 [-6.13096260e-05  9.98226001e-04]]",[],0.0,0.0
1787152905.0640233,1.6170160119688215,0.671684870177603,2.22327594613561,"[ 2.96250405e-06 -4.01224629e-07  0.00000000e+00  0.00000000e+00
  0.00000000e+00 -1.72261570e-07 -4.01224629e-07  2.88180147e-06
  0.00000000e+00  0.00000000e+00  0.00000000e+00  7.00105530e-08
  0.00000000e+00  0.00000000e+00  0.00000000e+00  0.00000000e+00
  0.00000000e+00  0.00000000e+00  0.00000000e+00  0.00000000e+00
  0.00000000e+00  0.00000000e+00  0.00000000e+00  0.00000000e+00
  0.00000000e+00  0.00000000e+00  0.00000000e+00  0.00000000e+00
  0.00000000e+00  0.00000000e+00 -1.72261570e-07  7.00105530e-08
  0.00000000e+00  0.00000000e+00  0.00000000e+00  3.00244137e-06]","[[ 5.57121568e-05  1.70278728e-03]
 [-6.13096260e-05  9.98226001e-04]]",[],0.0,0.0
1787152905.113105,1.6170160119688215,0.671684870177603,2.22327594613561,"[ 2.96250405e-06 -4.01224629e-07  0.00000000e+00  0.00000000e+00
  0.00000000e+00 -1.72261570e-07 -4.01224629e-07  2.88180147e-06
  0.00000000e+00  0.00000000e+00  0.00000000e+00  7.00105530e-08
  0.00000000e+00  0.00000000e+00  0.00000000e+00  0.00000000e+00
  0.00000000e+00  0.00000000e+00  0.00000000e+00  0.00000000e+00
  0.00000000e+00  0.00000000e+00  0.00000000e+00  0.00000000e+00
  0.00000000e+00  0.00000000e+00  0.00000000e+00  0.00000000e+00
  0.00000000e+00  0.00000000e+00 -1.72261570e-07  7.00105530e-08
  0.00000000e+00  0.00000000e+00  0.00000000e+00  3.00244137e-06]","[[ 5.57121568e-05  1.70278728e-03]
 [-6.13096260e-05  9.98226001e-04]]",[],0.0,0.0
1787152905.1643746,1.6170160119688215,0.671684870177603,2.22327594613561,"[ 2.96250405e-06 -4.01224629e-07  0.00000000e+00  0.00000000e+00
  0.00000000e+00 -1.72261570e-07 -4.01224629e-07  2.88180147e-06
  0.00000000e+00  0.00000000e+00  0.00000000e+00  7.00105530e-08
  0.00000000e+00  0.00000000e+00  0.00000000e+00  0.00000000e+00
  0.00000000e+00  0.00000000e+00  0.00000000e+00  0.00000000e+00
  0.00000000e+00  0.00000000e+00  0.00000000e+00  0.00000000e+00
  0.00000000e+00  0.00000000e+00  0.00000000e+00  0.00000000e+00
  0.00000000e+00  0.00000000e+00 -1.72261570e-07  7.00105530e-08
  0.00000000e+00  0.00000000e+00  0.00000000e+00  3.00244137e-06]","[[ 5.57121568e-05  1.70278728e-03]
 [-6.13096260e-05  9.98226001e-04]]",[],0.0,0.0
1787152905.2129083,1.6170160119688215,0.671684870177603,2.22327594613561,"[ 2.96250405e-06 -4.01224629e-07  0.00000000e+00  0.00000000e+00
  0.00000000e+00 -1.72261570e-07 -4.01224629e-07  2.88180147e-06
  0.00000000e+00  0.00000000e+00  0.00000000e+00  7.00105530e-08
  0.00000000e+00  0.00000000e+00  0.00000000e+00  0.00000000e+00
  0.00000000e+00  0.00000000e+00  0.00000000e+00  0.00000000e+00
  0.00000000e+00  0.00000000e+00  0.00000000e+00  0.00000000e+00
  0.00000000e+00  0.00000000e+00  0.00000000e+00  0.00000000e+00
  0.00000000e+00  0.00000000e+00 -1.72261570e-07  7.00105530e-08
  0.00000000e+00  0.00000000e+00  0.00000000e+00  3.00244137e-06]","[[ 5.57121568e-05  1.70278728e-03]
 [-6.13096260e-05  9.98226001e-04]]",[],0.0,0.0
1787152905.2629066,1.6170160119688215,0.671684870177603,2.22327594613561,"[ 2.96250405e-06 -4.01224629e-07  0.00000000e+00  0.00000000e+00
  0.00000000e+00 -1.72261570e-07 -4.01224629e-07  2.88180147e-06
  0.00000000e+00  0.00000000e+00  0.00000000e+00  7.00105530e-08
  0.00000000e+00  0.00000000e+00  0.00000000e+00  0.00000000e+00
  0.00000000e+00  0.00000000e+00  0.00000000e+00  0.00000000e+00
  0.00000000e+00  0.00000000e+00  0.00000000e+00  0.00000000e+00
  0.00000000e+00  0.00000000e+00  0.00000000e+00  0.00000000e+00
  0.00000000e+00  0.00000000e+00 -1.72261570e-07  7.00105530e-08
  0.00000000e+00  0.00000000e+00  0.00000000e+00  3.00244137e-06]","[[ 5.57121568e-05  1.70278728e-03]
 [-6.13096260e-05  9.98226001e-04]]",[],0.0,0.0
1787152905.3162174,1.6170160119688215,0.671684870177603,2.22327594613561,"[ 2.96250405e-06 -4.01224629e-07  0.00000000e+00  0.00000000e+00
  0.00000000e+00 -1.72261570e-07 -4.01224629e-07  2.88180147e-06
  0.00000000e+00  0.00000000e+00  0.00000000e+00  7.00105530e-08
  0.00000000e+00  0.00000000e+00  0.00000000e+00  0.00000000e+00
  0.00000000e+00  0.00000000e+00  0.00000000e+00  0.00000000e+00
  0.00000000e+00  0.00000000e+00  0.00000000e+00  0.00000000e+00
  0.00000000e+00  0.00000000e+00  0.00000000e+00  0.00000000e+00
  0.00000000e+00  0.00000000e+00 -1.72261570e-07  7.00105530e-08
  0.00000000e+00  0.00000000e+00  0.00000000e+00  3.00244137e-06]","[[ 5.57121568e-05  1.70278728e-03]
 [-6.13096260e-05  9.98226001e-04]]",[],0.0,0.0
1787152905.3628047,1.6170160119688215,0.671684870177603,2.22327594613561,"[ 2.96250405e-06 -4.01224629e-07  0.00000000e+00  0.00000000e+00
  0.00000000e+00 -1.72261570e-07 -4.01224629e-07  2.88180147e-06
  0.00000000e+00  0.00000000e+00  0.00000000e+00  7.00105530e-08
  0.00000000e+00  0.00000000e+00  0.00000000e+00  0.00000000e+00
  0.00000000e+00  0.00000000e+00  0.00000000e+00  0.00000000e+00
  0.00000000e+00  0.00000000e+00  0.00000000e+00  0.00000000e+00
  0.00000000e+00  0.00000000e+00  0.00000000e+00  0.00000000e+00
  0.00000000e+00  0.00000000e+00 -1.72261570e-07  7.00105530e-08
  0.00000000e+00  0.00000000e+00  0.00000000e+00  3.00244137e-06]","[[ 5.57121568e-05  1.70278728e-03]
 [-6.13096260e-05  9.98226001e-04]]",[],0.0,0.0
1787152905.4182546,1.6170160119688215,0.671684870177603,2.22327594613561,"[ 2.96250405e-06 -4.01224629e-07  0.00000000e+00  0.00000000e+00
  0.00000000e+00 -1.72261570e-07 -4.01224629e-07  2.88180147e-06
  0.00000000e+00  0.00000000e+00  0.00000000e+00  7.00105530e-08
  0.00000000e+00  0.00000000e+00  0.00000000e+00  0.00000000e+00
  0.00000000e+00  0.00000000e+00  0.00000000e+00  0.00000000e+00
  0.00000000e+00  0.00000000e+00  0.00000000e+00  0.00000000e+00
  0.00000000e+00  0.00000000e+00  0.00000000e+00  0.00000000e+00
  0.00000000e+00  0.00000000e+00 -1.72261570e-07  7.00105530e-08
  0.00000000e+00  0.00000000e+00  0.00000000e+00  3.00244137e-06]","[[ 5.57121568e-05  1.70278728e-03]
 [-6.13096260e-05  9.98226001e-04]]",[],0.0,0.0
1787152905.4630463,1.6170160119688215,0.671684870177603,2.22327594613561,"[ 2.96250405e-06 -4.01224629e-07  0.00000000e+00  0.00000000e+00
  0.00000000e+00 -1.72261570e-07 -4.01224629e-07  2.88180147e-06
  0.00000000e+00  0.00000000e+00  0.00000000e+00  7.00105530e-08
  0.00000000e+00  0.00000000e+00  0.00000000e+00  0.00000000e+00
  0.00000000e+00  0.00000000e+00  0.00000000e+00  0.00000000e+00
  0.00000000e+00  0.00000000e+00  0.00000000e+00  0.00000000e+00
  0.00000000e+00  0.00000000e+00  0.00000000e+00  0.00000000e+00
  0.00000000e+00  0.00000000e+00 -1.72261570e-07  7.00105530e-08
  0.00000000e+00  0.00000000e+00  0.00000000e+00  3.00244137e-06]","[[ 5.57121568e-05  1.70278728e-03]
 [-6.13096260e-05  9.98226001e-04]]",[],0.0,0.0
1787152905.5165155,1.6170160119688215,0.671684870177603,2.22327594613561,"[ 2.96250405e-06 -4.01224629e-07  0.00000000e+00  0.00000000e+00
  0.00000000e+00 -1.72261570e-07 -4.01224629e-07  2.88180147e-06
  0.00000000e+00  0.00000000e+00  0.00000000e+00  7.00105530e-08
  0.00000000e+00  0.00000000e+00  0.00000000e+00  0.00000000e+00
  0.00000000e+00  0.00000000e+00  0.00000000e+00  0.00000000e+00
  0.00000000e+00  0.00000000e+00  0.00000000e+00  0.00000000e+00
  0.00000000e+00  0.00000000e+00  0.00000000e+00  0.00000000e+00
  0.00000000e+00  0.00000000e+00 -1.72261570e-07  7.00105530e-08
  0.00000000e+00  0.00000000e+00  0.00000000e+00  3.00244137e-06]","[[ 5.57121568e-05  1.70278728e-03]
 [-6.13096260e-05  9.98226001e-04]]",[],0.0,0.0
1787152905.5629098,1.6170160119688215,0.671684870177603,2.22327594613561,"[ 2.96250405e-06 -4.01224629e-07  0.00000000e+00  0.00000000e+00
  0.00000000e+00 -1.72261570e-07 -4.01224629e-07  2.88180147e-06
  0.00000000e+00  0.00000000e+00  0.00000000e+00  7.00105530e-08
  0.00000000e+00  0.00000000e+00  0.00000000e+00  0.00000000e+00
  0.00000000e+00  0.00000000e+00  0.00000000e+00  0.00000000e+00
  0.00000000e+00  0.00000000e+00  0.00000000e+00  0.00000000e+00
  0.00000000e+00  0.00000000e+00  0.00000000e+00  0.00000000e+00
  0.00000000e+00  0.00000000e+00 -1.72261570e-07  7.00105530e-08
  0.00000000e+00  0.00000000e+00  0.00000000e+00  3.00244137e-06]","[[ 5.57121568e-05  1.70278728e-03]
 [-6.13096260e-05  9.98226001e-04]]",[],0.0,0.0
1787152905.6134365,1.6170160119688215,0.671684870177603,2.22327594613561,"[ 2.96250405e-06 -4.01224629e-07  0.00000000e+00  0.00000000e+00
  0.00000000e+00 -1.72261570e-07 -4.01224629e-07  2.88180147e-06
  0.00000000e+00  0.00000000e+00  0.00000000e+00  7.00105530e-08
  0.00000000e+00  0.00000000e+00  0.00000000e+00  0.00000000e+00
  0.00000000e+00  0.00000000e+00  0.00000000e+00  0.00000000e+00
  0.00000000e+00  0.00000000e+00  0.00000000e+00  0.00000000e+00
  0.00000000e+00  0.00000000e+00  0.00000000e+00  0.00000000e+00
  0.00000000e+00  0.00000000e+00 -1.72261570e-07  7.00105530e-08
  0.00000000e+00  0.00000000e+00  0.00000000e+00  3.00244137e-06]","[[ 5.57121568e-05  1.70278728e-03]
 [-6.13096260e-05  9.98226001e-04]]",[],0.0,0.0
1787152905.665223,1.6170160119688215,0.671684870177603,2.22327594613561,"[ 2.96250405e-06 -4.01224629e-07  0.00000000e+00  0.00000000e+00
  0.00000000e+00 -1.72261570e-07 -4.01224629e-07  2.88180147e-06
  0.00000000e+00  0.00000000e+00  0.00000000e+00  7.00105530e-08
  0.00000000e+00  0.00000000e+00  0.00000000e+00  0.00000000e+00
  0.00000000e+00  0.00000000e+00  0.00000000e+00  0.00000000e+00
  0.00000000e+00  0.00000000e+00  0.00000000e+00  0.00000000e+00
  0.00000000e+00  0.00000000e+00  0.00000000e+00  0.00000000e+00
  0.00000000e+00  0.00000000e+00 -1.72261570e-07  7.00105530e-08
  0.00000000e+00  0.00000000e+00  0.00000000e+00  3.00244137e-06]","[[ 5.57121568e-05  1.70278728e-03]
 [-6.13096260e-05  9.98226001e-04]]",[],0.0,0.0
1787152905.7272704,1.6150310119655458,0.6694035783153537,2.243452358160779,"[ 2.87613164e-06 -4.30843102e-07  0.00000000e+00  0.00000000e+00
  0.00000000e+00 -1.77589182e-07 -4.30843102e-07  2.81522885e-06
  0.00000000e+00  0.00000000e+00  0.00000000e+00  6.51259260e-08
  0.00000000e+00  0.00000000e+00  0.00000000e+00  0.00000000e+00
  0.00000000e+00  0.00000000e+00  0.00000000e+00  0.00000000e+00
  0.00000000e+00  0.00000000e+00  0.00000000e+00  0.00000000e+00
  0.00000000e+00  0.00000000e+00  0.00000000e+00  0.00000000e+00
  0.00000000e+00  0.00000000e+00 -1.77589182e-07  6.51259260e-08
  0.00000000e+00  0.00000000e+00  0.00000000e+00  3.05624933e-06]","[[ 5.48268750e-05  1.65237519e-03]
 [-6.05610653e-05  9.57587413e-04]]",[],0.0,0.0
1787152906.2008734,1.6150310119655458,0.6694035783153537,2.243452358160779,"[ 2.87613164e-06 -4.30843102e-07  0.00000000e+00  0.00000000e+00
  0.00000000e+00 -1.77589182e-07 -4.30843102e-07  2.81522885e-06
  0.00000000e+00  0.00000000e+00  0.00000000e+00  6.51259260e-08
  0.00000000e+00  0.00000000e+00  0.00000000e+00  0.00000000e+00
  0.00000000e+00  0.00000000e+00  0.00000000e+00  0.00000000e+00
  0.00000000e+00  0.00000000e+00  0.00000000e+00  0.00000000e+00
  0.00000000e+00  0.00000000e+00  0.00000000e+00  0.00000000e+00
  0.00000000e+00  0.00000000e+00 -1.77589182e-07  6.51259260e-08
  0.00000000e+00  0.00000000e+00  0.00000000e+00  3.05624933e-06]","[[ 5.48268750e-05  1.65237519e-03]
 [-6.05610653e-05  9.57587413e-04]]",[],0.0,0.0
1787152906.2170413,1.6150310119655458,0.6694035783153537,2.243452358160779,"[ 2.87613164e-06 -4.30843102e-07  0.00000000e+00  0.00000000e+00
  0.00000000e+00 -1.77589182e-07 -4.30843102e-07  2.81522885e-06
  0.00000000e+00  0.00000000e+00  0.00000000e+00  6.51259260e-08
  0.00000000e+00  0.00000000e+00  0.00000000e+00  0.00000000e+00
  0.00000000e+00  0.00000000e+00  0.00000000e+00  0.00000000e+00
  0.00000000e+00  0.00000000e+00  0.00000000e+00  0.00000000e+00
  0.00000000e+00  0.00000000e+00  0.00000000e+00  0.00000000e+00
  0.00000000e+00  0.00000000e+00 -1.77589182e-07  6.51259260e-08
  0.00000000e+00  0.00000000e+00  0.00000000e+00  3.05624933e-06]","[[ 5.48268750e-05  1.65237519e-03]
 [-6.05610653e-05  9.57587413e-04]]",[],0.0,0.0
1787152906.7163937,1.6148141407820724,0.6664865498606903,2.241778796917636,"[ 2.77944017e-06 -4.25110025e-07  0.00000000e+00  0.00000000e+00
  0.00000000e+00 -1.72237361e-07 -4.25110025e-07  2.71671181e-06
  0.00000000e+00  0.00000000e+00  0.00000000e+00  7.45261672e-08
  0.00000000e+00  0.00000000e+00  0.00000000e+00  0.00000000e+00
  0.00000000e+00  0.00000000e+00  0.00000000e+00  0.00000000e+00
  0.00000000e+00  0.00000000e+00  0.00000000e+00  0.00000000e+00
  0.00000000e+00  0.00000000e+00  0.00000000e+00  0.00000000e+00
  0.00000000e+00  0.00000000e+00 -1.72237361e-07  7.45261672e-08
  0.00000000e+00  0.00000000e+00  0.00000000e+00  2.84342152e-06]","[[ 5.30910209e-05  1.59549995e-03]
 [-5.86394359e-05  8.97357675e-04]]",[],0.0,0.0
1787152907.248231,1.6145645728333544,0.6642174915622729,2.2411665535080276,"[ 2.68756865e-06 -4.23638517e-07  0.00000000e+00  0.00000000e+00
  0.00000000e+00 -1.93445038e-07 -4.23638517e-07  2.62376037e-06
  0.00000000e+00  0.00000000e+00  0.00000000e+00  5.15302235e-08
  0.00000000e+00  0.00000000e+00  0.00000000e+00  0.00000000e+00
  0.00000000e+00  0.00000000e+00  0.00000000e+00  0.00000000e+00
  0.00000000e+00  0.00000000e+00  0.00000000e+00  0.00000000e+00
  0.00000000e+00  0.00000000e+00  0.00000000e+00  0.00000000e+00
  0.00000000e+00  0.00000000e+00 -1.93445038e-07  5.15302235e-08
  0.00000000e+00  0.00000000e+00  0.00000000e+00  2.79666552e-06]","[[ 5.15366731e-05  1.58162681e-03]
 [-5.68750659e-05  8.91084924e-04]]",[],0.0,0.0
1787152907.6955018,1.6140821662756775,0.6610033843524018,2.251584240949719,"[ 2.60235051e-06 -4.31435795e-07  0.00000000e+00  0.00000000e+00
  0.00000000e+00 -1.82846068e-07 -4.31435795e-07  2.54750753e-06
  0.00000000e+00  0.00000000e+00  0.00000000e+00  7.30753173e-08
  0.00000000e+00  0.00000000e+00  0.00000000e+00  0.00000000e+00
  0.00000000e+00  0.00000000e+00  0.00000000e+00  0.00000000e+00
  0.00000000e+00  0.00000000e+00  0.00000000e+00  0.00000000e+00
  0.00000000e+00  0.00000000e+00  0.00000000e+00  0.00000000e+00
  0.00000000e+00  0.00000000e+00 -1.82846068e-07  7.30753173e-08
  0.00000000e+00  0.00000000e+00  0.00000000e+00  2.79810309e-06]","[[ 5.02769441e-05  1.51453358e-03]
 [-5.55707701e-05  8.14423803e-04]]",[],0.0,0.0
1787152907.7140746,1.6140821662756775,0.6610033843524018,2.251584240949719,"[ 2.60235051e-06 -4.31435795e-07  0.00000000e+00  0.00000000e+00
  0.00000000e+00 -1.82846068e-07 -4.31435795e-07  2.54750753e-06
  0.00000000e+00  0.00000000e+00  0.00000000e+00  7.30753173e-08
  0.00000000e+00  0.00000000e+00  0.00000000e+00  0.00000000e+00
  0.00000000e+00  0.00000000e+00  0.00000000e+00  0.00000000e+00
  0.00000000e+00  0.00000000e+00  0.00000000e+00  0.00000000e+00
  0.00000000e+00  0.00000000e+00  0.00000000e+00  0.00000000e+00
  0.00000000e+00  0.00000000e+00 -1.82846068e-07  7.30753173e-08
  0.00000000e+00  0.00000000e+00  0.00000000e+00  2.79810309e-06]","[[ 5.02769441e-05  1.51453358e-03]
 [-5.55707701e-05  8.14423803e-04]]",[],0.0,0.0
1787152908.1815624,1.6142900489602419,0.6586596312847273,2.2484848394762773,"[ 2.51460601e-06 -4.22379437e-07  0.00000000e+00  0.00000000e+00
  0.00000000e+00 -1.68193219e-07 -4.22379437e-07  2.45567793e-06
  0.00000000e+00  0.00000000e+00  0.00000000e+00  4.29269945e-08
  0.00000000e+00  0.00000000e+00  0.00000000e+00  0.00000000e+00
  0.00000000e+00  0.00000000e+00  0.00000000e+00  0.00000000e+00
  0.00000000e+00  0.00000000e+00  0.00000000e+00  0.00000000e+00
  0.00000000e+00  0.00000000e+00  0.00000000e+00  0.00000000e+00
  0.00000000e+00  0.00000000e+00 -1.68193219e-07  4.29269945e-08
  0.00000000e+00  0.00000000e+00  0.00000000e+00  2.61317587e-06]","[[ 4.86432973e-05  1.44728374e-03]
 [-5.37057013e-05  8.24631756e-04]]",[],0.0,0.0
1787152908.715019,1.6139087717181784,0.6560021336148213,2.2458025462126265,"[ 2.43978889e-06 -4.22375147e-07  0.00000000e+00  0.00000000e+00
  0.00000000e+00 -1.48993383e-07 -4.22375147e-07  2.38457733e-06
  0.00000000e+00  0.00000000e+00  0.00000000e+00  5.67982891e-08
  0.00000000e+00  0.00000000e+00  0.00000000e+00  0.00000000e+00
  0.00000000e+00  0.00000000e+00  0.00000000e+00  0.00000000e+00
  0.00000000e+00  0.00000000e+00  0.00000000e+00  0.00000000e+00
  0.00000000e+00  0.00000000e+00  0.00000000e+00  0.00000000e+00
  0.00000000e+00  0.00000000e+00 -1.48993383e-07  5.67982891e-08
  0.00000000e+00  0.00000000e+00  0.00000000e+00  2.74451556e-06]","[[ 4.74128044e-05  1.37484010e-03]
 [-5.23656479e-05  7.67559712e-04]]",[],0.0,0.0
1787152909.2819793,1.6135163484687711,0.6535510864322209,2.2442841819006993,"[ 2.38223320e-06 -4.29881757e-07  0.00000000e+00  0.00000000e+00
  0.00000000e+00 -1.43195784e-07 -4.29881757e-07  2.33514266e-06
  0.00000000e+00  0.00000000e+00  0.00000000e+00  6.03236174e-08
  0.00000000e+00  0.00000000e+00  0.00000000e+00  0.00000000e+00
  0.00000000e+00  0.00000000e+00  0.00000000e+00  0.00000000e+00
  0.00000000e+00  0.00000000e+00  0.00000000e+00  0.00000000e+00
  0.00000000e+00  0.00000000e+00  0.00000000e+00  0.00000000e+00
  0.00000000e+00  0.00000000e+00 -1.43195784e-07  6.03236174e-08
  0.00000000e+00  0.00000000e+00  0.00000000e+00  2.93818607e-06]","[[ 4.65949218e-05  1.33094112e-03]
 [-5.15675779e-05  7.33167329e-04]]",[],0.0,0.0
1787152909.793031,1.6128147065610732,0.6514425693537946,2.251965958970721,"[ 2.32534103e-06 -4.45781089e-07  0.00000000e+00  0.00000000e+00
  0.00000000e+00 -1.46180298e-07 -4.45781089e-07  2.29188194e-06
  0.00000000e+00  0.00000000e+00  0.00000000e+00  5.59107159e-08
  0.00000000e+00  0.00000000e+00  0.00000000e+00  0.00000000e+00
  0.00000000e+00  0.00000000e+00  0.00000000e+00  0.00000000e+00
  0.00000000e+00  0.00000000e+00  0.00000000e+00  0.00000000e+00
  0.00000000e+00  0.00000000e+00  0.00000000e+00  0.00000000e+00
  0.00000000e+00  0.00000000e+00 -1.46180298e-07  5.59107159e-08
  0.00000000e+00  0.00000000e+00  0.00000000e+00  2.86981381e-06]","[[ 4.59523803e-05  1.29811976e-03]
 [-5.10194905e-05  7.10389920e-04]]",[],0.0,0.0
1787152910.350968,1.612760254073737,0.6490832336461106,2.248055854039441,"[ 2.27442646e-06 -4.50707208e-07  0.00000000e+00  0.00000000e+00
  0.00000000e+00 -1.42805435e-07 -4.50707208e-07  2.24453278e-06
  0.00000000e+00  0.00000000e+00  0.00000000e+00  5.67706833e-08
  0.00000000e+00  0.00000000e+00  0.00000000e+00  0.00000000e+00
  0.00000000e+00  0.00000000e+00  0.00000000e+00  0.00000000e+00
  0.00000000e+00  0.00000000e+00  0.00000000e+00  0.00000000e+00
  0.00000000e+00  0.00000000e+00  0.00000000e+00  0.00000000e+00
  0.00000000e+00  0.00000000e+00 -1.42805435e-07  5.67706833e-08
  0.00000000e+00  0.00000000e+00  0.00000000e+00  2.89879619e-06]","[[ 4.51978026e-05  1.26324275e-03]
 [-5.02152214e-05  6.83186216e-04]]",[],0.0,0.0
1787152910.366258,1.612760254073737,0.6490832336461106,2.248055854039441,"[ 2.27442646e-06 -4.50707208e-07  0.00000000e+00  0.00000000e+00
  0.00000000e+00 -1.42805435e-07 -4.50707208e-07  2.24453278e-06
  0.00000000e+00  0.00000000e+00  0.00000000e+00  5.67706833e-08
  0.00000000e+00  0.00000000e+00  0.00000000e+00  0.00000000e+00
  0.00000000e+00  0.00000000e+00  0.00000000e+00  0.00000000e+00
  0.00000000e+00  0.00000000e+00  0.00000000e+00  0.00000000e+00
  0.00000000e+00  0.00000000e+00  0.00000000e+00  0.00000000e+00
  0.00000000e+00  0.00000000e+00 -1.42805435e-07  5.67706833e-08
  0.00000000e+00  0.00000000e+00  0.00000000e+00  2.89879619e-06]","[[ 4.51978026e-05  1.26324275e-03]
 [-5.02152214e-05  6.83186216e-04]]",[],0.0,0.0
1787152910.8141496,1.6128779343982118,0.646606524850529,2.2479024515466346,"[ 2.23162401e-06 -4.64534921e-07  0.00000000e+00  0.00000000e+00
  0.00000000e+00 -1.41844759e-07 -4.64534921e-07  2.20855296e-06
  0.00000000e+00  0.00000000e+00  0.00000000e+00  4.64385124e-08
  0.00000000e+00  0.00000000e+00  0.00000000e+00  0.00000000e+00
  0.00000000e+00  0.00000000e+00  0.00000000e+00  0.00000000e+00
  0.00000000e+00  0.00000000e+00  0.00000000e+00  0.00000000e+00
  0.00000000e+00  0.00000000e+00  0.00000000e+00  0.00000000e+00
  0.00000000e+00  0.00000000e+00 -1.41844759e-07  4.64385124e-08
  0.00000000e+00  0.00000000e+00  0.00000000e+00  2.95183085e-06]","[[ 4.47508101e-05  1.23226303e-03]
 [-4.97664938e-05  6.74906120e-04]]",[],0.0,0.0
1787152911.2316804,1.6127893212921467,0.6445591990084983,2.2434949452453132,"[ 2.18010964e-06 -4.61561524e-07  0.00000000e+00  0.00000000e+00
  0.00000000e+00 -1.38994273e-07 -4.61561524e-07  2.15903750e-06
  0.00000000e+00  0.00000000e+00  0.00000000e+00  5.30668365e-08
  0.00000000e+00  0.00000000e+00  0.00000000e+00  0.00000000e+00
  0.00000000e+00  0.00000000e+00  0.00000000e+00  0.00000000e+00
  0.00000000e+00  0.00000000e+00  0.00000000e+00  0.00000000e+00
  0.00000000e+00  0.00000000e+00  0.00000000e+00  0.00000000e+00
  0.00000000e+00  0.00000000e+00 -1.38994273e-07  5.30668365e-08
  0.00000000e+00  0.00000000e+00  0.00000000e+00  2.78985145e-06]","[[ 4.38442050e-05  1.20097403e-03]
 [-4.87868502e-05  6.41559622e-04]]",[],0.0,0.0
1787152911.2722452,1.6127893212921467,0.6445591990084983,2.2434949452453132,"[ 2.18010964e-06 -4.61561524e-07  0.00000000e+00  0.00000000e+00
  0.00000000e+00 -1.38994273e-07 -4.61561524e-07  2.15903750e-06
  0.00000000e+00  0.00000000e+00  0.00000000e+00  5.30668365e-08
  0.00000000e+00  0.00000000e+00  0.00000000e+00  0.00000000e+00
  0.00000000e+00  0.00000000e+00  0.00000000e+00  0.00000000e+00
  0.00000000e+00  0.00000000e+00  0.00000000e+00  0.00000000e+00
  0.00000000e+00  0.00000000e+00  0.00000000e+00  0.00000000e+00
  0.00000000e+00  0.00000000e+00 -1.38994273e-07  5.30668365e-08
  0.00000000e+00  0.00000000e+00  0.00000000e+00  2.78985145e-06]","[[ 4.38442050e-05  1.20097403e-03]
 [-4.87868502e-05  6.41559622e-04]]",[],0.0,0.0
1787152911.7040353,1.6123911693649184,0.6424826174496419,2.2405649377442636,"[ 2.12851890e-06 -4.59411555e-07  0.00000000e+00  0.00000000e+00
  0.00000000e+00 -1.28154600e-07 -4.59411555e-07  2.11074301e-06
  0.00000000e+00  0.00000000e+00  0.00000000e+00  6.96341627e-08
  0.00000000e+00  0.00000000e+00  0.00000000e+00  0.00000000e+00
  0.00000000e+00  0.00000000e+00  0.00000000e+00  0.00000000e+00
  0.00000000e+00  0.00000000e+00  0.00000000e+00  0.00000000e+00
  0.00000000e+00  0.00000000e+00  0.00000000e+00  0.00000000e+00
  0.00000000e+00  0.00000000e+00 -1.28154600e-07  6.96341627e-08
  0.00000000e+00  0.00000000e+00  0.00000000e+00  2.70166882e-06]","[[ 4.29550609e-05  1.15619280e-03]
 [-4.78415803e-05  5.92162925e-04]]",[],0.0,0.0
1787152911.7168136,1.6123911693649184,0.6424826174496419,2.2405649377442636,"[ 2.12851890e-06 -4.59411555e-07  0.00000000e+00  0.00000000e+00
  0.00000000e+00 -1.28154600e-07 -4.59411555e-07  2.11074301e-06
  0.00000000e+00  0.00000000e+00  0.00000000e+00  6.96341627e-08
  0.00000000e+00  0.00000000e+00  0.00000000e+00  0.00000000e+00
  0.00000000e+00  0.00000000e+00  0.00000000e+00  0.00000000e+00
  0.00000000e+00  0.00000000e+00  0.00000000e+00  0.00000000e+00
  0.00000000e+00  0.00000000e+00  0.00000000e+00  0.00000000e+00
  0.00000000e+00  0.00000000e+00 -1.28154600e-07  6.96341627e-08
  0.00000000e+00  0.00000000e+00  0.00000000e+00  2.70166882e-06]","[[ 4.29550609e-05  1.15619280e-03]
 [-4.78415803e-05  5.92162925e-04]]",[],0.0,0.0
1787152911.7632022,1.612313772293136,0.6405009783721072,2.2384392758303218,"[ 2.07658489e-06 -4.54421591e-07  0.00000000e+00  0.00000000e+00
  0.00000000e+00 -1.23297535e-07 -4.54421591e-07  2.05865382e-06
  0.00000000e+00  0.00000000e+00  0.00000000e+00  5.52404877e-08
  0.00000000e+00  0.00000000e+00  0.00000000e+00  0.00000000e+00
  0.00000000e+00  0.00000000e+00  0.00000000e+00  0.00000000e+00
  0.00000000e+00  0.00000000e+00  0.00000000e+00  0.00000000e+00
  0.00000000e+00  0.00000000e+00  0.00000000e+00  0.00000000e+00
  0.00000000e+00  0.00000000e+00 -1.23297535e-07  5.52404877e-08
  0.00000000e+00  0.00000000e+00  0.00000000e+00  2.65231112e-06]","[[ 4.19996499e-05  1.12208535e-03]
 [-4.67748431e-05  5.94427318e-04]]",[],0.0,0.0
1787152911.812851,1.612313772293136,0.6405009783721072,2.2384551744123993,"[ 2.07672114e-06 -4.54594394e-07  0.00000000e+00  0.00000000e+00
  0.00000000e+00 -1.23750485e-07 -4.54594394e-07  2.05887299e-06
  0.00000000e+00  0.00000000e+00  0.00000000e+00  5.58149834e-08
  0.00000000e+00  0.00000000e+00  0.00000000e+00  0.00000000e+00
  0.00000000e+00  0.00000000e+00  0.00000000e+00  0.00000000e+00
  0.00000000e+00  0.00000000e+00  0.00000000e+00  0.00000000e+00
  0.00000000e+00  0.00000000e+00  0.00000000e+00  0.00000000e+00
  0.00000000e+00  0.00000000e+00 -1.23750485e-07  5.58149834e-08
  0.00000000e+00  0.00000000e+00  0.00000000e+00  2.68202853e-06]","[[ 4.19996499e-05  1.12208535e-03]
 [-4.67748431e-05  5.94427318e-04]]",[],0.0,0.0
1787152911.8634157,1.612313772293136,0.6405009783721072,2.2384758778770024,"[ 2.07687444e-06 -4.54788824e-07  0.00000000e+00  0.00000000e+00
  0.00000000e+00 -1.24260128e-07 -4.54788824e-07  2.05911958e-06
  0.00000000e+00  0.00000000e+00  0.00000000e+00  5.64613608e-08
  0.00000000e+00  0.00000000e+00  0.00000000e+00  0.00000000e+00
  0.00000000e+00  0.00000000e+00  0.00000000e+00  0.00000000e+00
  0.00000000e+00  0.00000000e+00  0.00000000e+00  0.00000000e+00
  0.00000000e+00  0.00000000e+00  0.00000000e+00  0.00000000e+00
  0.00000000e+00  0.00000000e+00 -1.24260128e-07  5.64613608e-08
  0.00000000e+00  0.00000000e+00  0.00000000e+00  2.71546472e-06]","[[ 4.19996499e-05  1.12208535e-03]
 [-4.67748431e-05  5.94427318e-04]]",[],0.0,0.0
1787152911.9134955,1.612313772293136,0.6405009783721072,2.238498818109967,"[ 2.07708955e-06 -4.55061632e-07  0.00000000e+00  0.00000000e+00
  0.00000000e+00 -1.24975229e-07 -4.55061632e-07  2.05946557e-06
  0.00000000e+00  0.00000000e+00  0.00000000e+00  5.73682802e-08
  0.00000000e+00  0.00000000e+00  0.00000000e+00  0.00000000e+00
  0.00000000e+00  0.00000000e+00  0.00000000e+00  0.00000000e+00
  0.00000000e+00  0.00000000e+00  0.00000000e+00  0.00000000e+00
  0.00000000e+00  0.00000000e+00  0.00000000e+00  0.00000000e+00
  0.00000000e+00  0.00000000e+00 -1.24975229e-07  5.73682802e-08
  0.00000000e+00  0.00000000e+00  0.00000000e+00  2.76237913e-06]","[[ 4.19996499e-05  1.12208535e-03]
 [-4.67748431e-05  5.94427318e-04]]",[],0.0,0.0
1787152911.9639528,1.612313772293136,0.6405009783721072,2.238512657024173,"[ 2.07719303e-06 -4.55192863e-07  0.00000000e+00  0.00000000e+00
  0.00000000e+00 -1.25319227e-07 -4.55192863e-07  2.05963200e-06
  0.00000000e+00  0.00000000e+00  0.00000000e+00  5.78045343e-08
  0.00000000e+00  0.00000000e+00  0.00000000e+00  0.00000000e+00
  0.00000000e+00  0.00000000e+00  0.00000000e+00  0.00000000e+00
  0.00000000e+00  0.00000000e+00  0.00000000e+00  0.00000000e+00
  0.00000000e+00  0.00000000e+00  0.00000000e+00  0.00000000e+00
  0.00000000e+00  0.00000000e+00 -1.25319227e-07  5.78045343e-08
  0.00000000e+00  0.00000000e+00  0.00000000e+00  2.78494664e-06]","[[ 4.19996499e-05  1.12208535e-03]
 [-4.67748431e-05  5.94427318e-04]]",[],0.0,0.0
1787152912.0127404,1.612313772293136,0.6405009783721072,2.2385346782416295,"[ 2.07736702e-06 -4.55413509e-07  0.00000000e+00  0.00000000e+00
  0.00000000e+00 -1.25897615e-07 -4.55413509e-07  2.05991181e-06
  0.00000000e+00  0.00000000e+00  0.00000000e+00  5.85380127e-08
  0.00000000e+00  0.00000000e+00  0.00000000e+00  0.00000000e+00
  0.00000000e+00  0.00000000e+00  0.00000000e+00  0.00000000e+00
  0.00000000e+00  0.00000000e+00  0.00000000e+00  0.00000000e+00
  0.00000000e+00  0.00000000e+00  0.00000000e+00  0.00000000e+00
  0.00000000e+00  0.00000000e+00 -1.25897615e-07  5.85380127e-08
  0.00000000e+00  0.00000000e+00  0.00000000e+00  2.82289018e-06]","[[ 4.19996499e-05  1.12208535e-03]
 [-4.67748431e-05  5.94427318e-04]]",[],0.0,0.0
1787152912.0631196,1.612313772293136,0.6405009783721072,2.2385491258433134,"[ 2.07747912e-06 -4.55555662e-07  0.00000000e+00  0.00000000e+00
  0.00000000e+00 -1.26270251e-07 -4.55555662e-07  2.06009207e-06
  0.00000000e+00  0.00000000e+00  0.00000000e+00  5.90105502e-08
  0.00000000e+00  0.00000000e+00  0.00000000e+00  0.00000000e+00
  0.00000000e+00  0.00000000e+00  0.00000000e+00  0.00000000e+00
  0.00000000e+00  0.00000000e+00  0.00000000e+00  0.00000000e+00
  0.00000000e+00  0.00000000e+00  0.00000000e+00  0.00000000e+00
  0.00000000e+00  0.00000000e+00 -1.26270251e-07  5.90105502e-08
  0.00000000e+00  0.00000000e+00  0.00000000e+00  2.84733534e-06]","[[ 4.19996499e-05  1.12208535e-03]
 [-4.67748431e-05  5.94427318e-04]]",[],0.0,0.0
1787152912.1126986,1.612313772293136,0.6405009783721072,2.2385710515408253,"[ 2.07765071e-06 -4.55773248e-07  0.00000000e+00  0.00000000e+00
  0.00000000e+00 -1.26840634e-07 -4.55773248e-07  2.06036798e-06
  0.00000000e+00  0.00000000e+00  0.00000000e+00  5.97338223e-08
  0.00000000e+00  0.00000000e+00  0.00000000e+00  0.00000000e+00
  0.00000000e+00  0.00000000e+00  0.00000000e+00  0.00000000e+00
  0.00000000e+00  0.00000000e+00  0.00000000e+00  0.00000000e+00
  0.00000000e+00  0.00000000e+00  0.00000000e+00  0.00000000e+00
  0.00000000e+00  0.00000000e+00 -1.26840634e-07  5.97338223e-08
  0.00000000e+00  0.00000000e+00  0.00000000e+00  2.88475197e-06]","[[ 4.19996499e-05  1.12208535e-03]
 [-4.67748431e-05  5.94427318e-04]]",[],0.0,0.0
1787152912.1633909,1.612313772293136,0.6405009783721072,2.2385865535509994,"[ 2.07777926e-06 -4.55936247e-07  0.00000000e+00  0.00000000e+00
  0.00000000e+00 -1.27267928e-07 -4.55936247e-07  2.06057466e-06
  0.00000000e+00  0.00000000e+00  0.00000000e+00  6.02756294e-08
  0.00000000e+00  0.00000000e+00  0.00000000e+00  0.00000000e+00
  0.00000000e+00  0.00000000e+00  0.00000000e+00  0.00000000e+00
  0.00000000e+00  0.00000000e+00  0.00000000e+00  0.00000000e+00
  0.00000000e+00  0.00000000e+00  0.00000000e+00  0.00000000e+00
  0.00000000e+00  0.00000000e+00 -1.27267928e-07  6.02756294e-08
  0.00000000e+00  0.00000000e+00  0.00000000e+00  2.91278138e-06]","[[ 4.19996499e-05  1.12208535e-03]
 [-4.67748431e-05  5.94427318e-04]]",[],0.0,0.0
1787152912.2140448,1.612313772293136,0.6405009783721072,2.2386077362749637,"[ 2.07794316e-06 -4.56144063e-07  0.00000000e+00  0.00000000e+00
  0.00000000e+00 -1.27812718e-07 -4.56144063e-07  2.06083816e-06
  0.00000000e+00  0.00000000e+00  0.00000000e+00  6.09663964e-08
  0.00000000e+00  0.00000000e+00  0.00000000e+00  0.00000000e+00
  0.00000000e+00  0.00000000e+00  0.00000000e+00  0.00000000e+00
  0.00000000e+00  0.00000000e+00  0.00000000e+00  0.00000000e+00
  0.00000000e+00  0.00000000e+00  0.00000000e+00  0.00000000e+00
  0.00000000e+00  0.00000000e+00 -1.27812718e-07  6.09663964e-08
  0.00000000e+00  0.00000000e+00  0.00000000e+00  2.94851748e-06]","[[ 4.19996499e-05  1.12208535e-03]
 [-4.67748431e-05  5.94427318e-04]]",[],0.0,0.0
1787152912.2633944,1.612313772293136,0.6405009783721072,2.238615163365221,"[ 2.07800217e-06 -4.56218894e-07  0.00000000e+00  0.00000000e+00
  0.00000000e+00 -1.28008888e-07 -4.56218894e-07  2.06093304e-06
  0.00000000e+00  0.00000000e+00  0.00000000e+00  6.12151233e-08
  0.00000000e+00  0.00000000e+00  0.00000000e+00  0.00000000e+00
  0.00000000e+00  0.00000000e+00  0.00000000e+00  0.00000000e+00
  0.00000000e+00  0.00000000e+00  0.00000000e+00  0.00000000e+00
  0.00000000e+00  0.00000000e+00  0.00000000e+00  0.00000000e+00
  0.00000000e+00  0.00000000e+00 -1.28008888e-07  6.12151233e-08
  0.00000000e+00  0.00000000e+00  0.00000000e+00  2.96138526e-06]","[[ 4.19996499e-05  1.12208535e-03]
 [-4.67748431e-05  5.94427318e-04]]",[],0.0,0.0
1787152912.3155365,1.612313772293136,0.6405009783721072,2.23864459614244,"[ 2.07827217e-06 -4.56561214e-07  0.00000000e+00  0.00000000e+00
  0.00000000e+00 -1.28906298e-07 -4.56561214e-07  2.06136706e-06
  0.00000000e+00  0.00000000e+00  0.00000000e+00  6.23529242e-08
  0.00000000e+00  0.00000000e+00  0.00000000e+00  0.00000000e+00
  0.00000000e+00  0.00000000e+00  0.00000000e+00  0.00000000e+00
  0.00000000e+00  0.00000000e+00  0.00000000e+00  0.00000000e+00
  0.00000000e+00  0.00000000e+00  0.00000000e+00  0.00000000e+00
  0.00000000e+00  0.00000000e+00 -1.28906298e-07  6.23529242e-08
  0.00000000e+00  0.00000000e+00  0.00000000e+00  3.02024957e-06]","[[ 4.19996499e-05  1.12208535e-03]
 [-4.67748431e-05  5.94427318e-04]]",[],0.0,0.0
1787152912.3638804,1.612313772293136,0.6405009783721072,2.2386618174001987,"[ 2.07843106e-06 -4.56762651e-07  0.00000000e+00  0.00000000e+00
  0.00000000e+00 -1.29434388e-07 -4.56762651e-07  2.06162244e-06
  0.00000000e+00  0.00000000e+00  0.00000000e+00  6.30224390e-08
  0.00000000e+00  0.00000000e+00  0.00000000e+00  0.00000000e+00
  0.00000000e+00  0.00000000e+00  0.00000000e+00  0.00000000e+00
  0.00000000e+00  0.00000000e+00  0.00000000e+00  0.00000000e+00
  0.00000000e+00  0.00000000e+00  0.00000000e+00  0.00000000e+00
  0.00000000e+00  0.00000000e+00 -1.29434388e-07  6.30224390e-08
  0.00000000e+00  0.00000000e+00  0.00000000e+00  3.05488773e-06]","[[ 4.19996499e-05  1.12208535e-03]
 [-4.67748431e-05  5.94427318e-04]]",[],0.0,0.0
1787152912.4140418,1.612313772293136,0.6405009783721072,2.2386813525740816,"[ 2.07857318e-06 -4.56942833e-07  0.00000000e+00  0.00000000e+00
  0.00000000e+00 -1.29906762e-07 -4.56942833e-07  2.06185087e-06
  0.00000000e+00  0.00000000e+00  0.00000000e+00  6.36212929e-08
  0.00000000e+00  0.00000000e+00  0.00000000e+00  0.00000000e+00
  0.00000000e+00  0.00000000e+00  0.00000000e+00  0.00000000e+00
  0.00000000e+00  0.00000000e+00  0.00000000e+00  0.00000000e+00
  0.00000000e+00  0.00000000e+00  0.00000000e+00  0.00000000e+00
  0.00000000e+00  0.00000000e+00 -1.29906762e-07  6.36212929e-08
  0.00000000e+00  0.00000000e+00  0.00000000e+00  3.08587065e-06]","[[ 4.19996499e-05  1.12208535e-03]
 [-4.67748431e-05  5.94427318e-04]]",[],0.0,0.0
1787152912.464214,1.612313772293136,0.6405009783721072,2.2386964501455786,"[ 2.07869540e-06 -4.57097773e-07  0.00000000e+00  0.00000000e+00
  0.00000000e+00 -1.30312966e-07 -4.57097773e-07  2.06204729e-06
  0.00000000e+00  0.00000000e+00  0.00000000e+00  6.41362423e-08
  0.00000000e+00  0.00000000e+00  0.00000000e+00  0.00000000e+00
  0.00000000e+00  0.00000000e+00  0.00000000e+00  0.00000000e+00
  0.00000000e+00  0.00000000e+00  0.00000000e+00  0.00000000e+00
  0.00000000e+00  0.00000000e+00  0.00000000e+00  0.00000000e+00
  0.00000000e+00  0.00000000e+00 -1.30312966e-07  6.41362423e-08
  0.00000000e+00  0.00000000e+00  0.00000000e+00  3.11251295e-06]","[[ 4.19996499e-05  1.12208535e-03]
 [-4.67748431e-05  5.94427318e-04]]",[],0.0,0.0
1787152912.5125463,1.612313772293136,0.6405009783721072,2.238718001147004,"[ 2.07886291e-06 -4.57310115e-07  0.00000000e+00  0.00000000e+00
  0.00000000e+00 -1.30869667e-07 -4.57310115e-07  2.06231647e-06
  0.00000000e+00  0.00000000e+00  0.00000000e+00  6.48419511e-08
  0.00000000e+00  0.00000000e+00  0.00000000e+00  0.00000000e+00
  0.00000000e+00  0.00000000e+00  0.00000000e+00  0.00000000e+00
  0.00000000e+00  0.00000000e+00  0.00000000e+00  0.00000000e+00
  0.00000000e+00  0.00000000e+00  0.00000000e+00  0.00000000e+00
  0.00000000e+00  0.00000000e+00 -1.30869667e-07  6.48419511e-08
  0.00000000e+00  0.00000000e+00  0.00000000e+00  3.14902522e-06]","[[ 4.19996499e-05  1.12208535e-03]
 [-4.67748431e-05  5.94427318e-04]]",[],0.0,0.0
1787152912.5632536,1.612313772293136,0.6405009783721072,2.238732516004246,"[ 2.07897573e-06 -4.57453126e-07  0.00000000e+00  0.00000000e+00
  0.00000000e+00 -1.31244606e-07 -4.57453126e-07  2.06249775e-06
  0.00000000e+00  0.00000000e+00  0.00000000e+00  6.53172290e-08
  0.00000000e+00  0.00000000e+00  0.00000000e+00  0.00000000e+00
  0.00000000e+00  0.00000000e+00  0.00000000e+00  0.00000000e+00
  0.00000000e+00  0.00000000e+00  0.00000000e+00  0.00000000e+00
  0.00000000e+00  0.00000000e+00  0.00000000e+00  0.00000000e+00
  0.00000000e+00  0.00000000e+00 -1.31244606e-07  6.53172290e-08
  0.00000000e+00  0.00000000e+00  0.00000000e+00  3.17361572e-06]","[[ 4.19996499e-05  1.12208535e-03]
 [-4.67748431e-05  5.94427318e-04]]",[],0.0,0.0
1787152912.6152318,1.612313772293136,0.6405009783721072,2.2387548252010987,"[ 2.07915351e-06 -4.57678472e-07  0.00000000e+00  0.00000000e+00
  0.00000000e+00 -1.31835419e-07 -4.57678472e-07  2.06278339e-06
  0.00000000e+00  0.00000000e+00  0.00000000e+00  6.60661244e-08
  0.00000000e+00  0.00000000e+00  0.00000000e+00  0.00000000e+00
  0.00000000e+00  0.00000000e+00  0.00000000e+00  0.00000000e+00
  0.00000000e+00  0.00000000e+00  0.00000000e+00  0.00000000e+00
  0.00000000e+00  0.00000000e+00  0.00000000e+00  0.00000000e+00
