time,x,y,yaw,cov_prop,K_gain,innovation,v_ekf,omega_ekf
1786955628.9444387,1.225975692297605e-15,-2.230894335751971e-20,-0.00011179427356111661,"[ 9.99840265e-03 -6.78175823e-14  0.00000000e+00  0.00000000e+00
  0.00000000e+00  2.46638459e-09 -6.78175823e-14  9.99840026e-03
  0.00000000e+00  0.00000000e+00  0.00000000e+00 -6.97966421e-14
  0.00000000e+00  0.00000000e+00  0.00000000e+00  0.00000000e+00
  0.00000000e+00  0.00000000e+00  0.00000000e+00  0.00000000e+00
  0.00000000e+00  0.00000000e+00  0.00000000e+00  0.00000000e+00
  0.00000000e+00  0.00000000e+00  0.00000000e+00  0.00000000e+00
  0.00000000e+00  0.00000000e+00  2.46638459e-09 -6.97966421e-14
  0.00000000e+00  0.00000000e+00  0.00000000e+00  9.99845035e-03]","[[ 9.99840265e-06 -6.78175823e-17  2.46638459e-12]
 [-6.78175823e-17  9.99840026e-06 -6.97966421e-17]
 [ 2.46638459e-12 -6.97966421e-17  9.99845035e-06]]",[-9.50254763e-16  1.45061455e-20  1.11795391e-04],0.0,0.0
1786955628.9942245,2.6404821410091526e-15,-8.142708845323965e-20,-0.000310532951004916,"[ 9.99820310e-03 -1.29953887e-13  0.00000000e+00  0.00000000e+00
  0.00000000e+00  2.85320951e-09 -1.29953887e-13  9.99820032e-03
  0.00000000e+00  0.00000000e+00  0.00000000e+00 -1.33746216e-13
  0.00000000e+00  0.00000000e+00  0.00000000e+00  0.00000000e+00
  0.00000000e+00  0.00000000e+00  0.00000000e+00  0.00000000e+00
  0.00000000e+00  0.00000000e+00  0.00000000e+00  0.00000000e+00
  0.00000000e+00  0.00000000e+00  0.00000000e+00  0.00000000e+00
  0.00000000e+00  0.00000000e+00  2.85320951e-09 -1.33746216e-13
  0.00000000e+00  0.00000000e+00  0.00000000e+00  9.99825827e-03]","[[ 9.99830284e-06 -8.47901837e-17  2.62259814e-12]
 [-8.47901837e-17  9.99830029e-06 -8.72645399e-17]
 [ 2.62259814e-12 -8.72645399e-17  9.99835356e-06]]",[-1.22597569e-15  2.23089434e-20  2.01522228e-04],0.0,0.0
1786955629.0472803,4.580032861233608e-15,-2.385499440201313e-19,-0.00028808562647197894,"[ 9.99800385e-03 -3.34977983e-13  0.00000000e+00  0.00000000e+00
  0.00000000e+00  3.54644313e-09 -3.34977983e-13  9.99800040e-03
  0.00000000e+00  0.00000000e+00  0.00000000e+00 -3.44753356e-13
  0.00000000e+00  0.00000000e+00  0.00000000e+00  0.00000000e+00
  0.00000000e+00  0.00000000e+00  0.00000000e+00  0.00000000e+00
  0.00000000e+00  0.00000000e+00  0.00000000e+00  0.00000000e+00
  0.00000000e+00  0.00000000e+00  0.00000000e+00  0.00000000e+00
  0.00000000e+00  0.00000000e+00  3.54644313e-09 -3.44753356e-13
  0.00000000e+00  0.00000000e+00  0.00000000e+00  9.99807243e-03]","[[ 9.99800385e-06 -3.34977983e-16  3.54644313e-12]
 [-3.34977983e-16  9.99800040e-06 -3.44753356e-16]
 [ 3.54644313e-12 -3.44753356e-16  9.99807243e-06]]",[-3.55837893e-15  1.39231857e-19  2.88088507e-04],0.0,0.0
1786955629.099144,6.371593126261681e-15,-4.337218082358356e-19,-0.00021187754109153195,"[ 9.99780435e-03 -4.45936182e-13  0.00000000e+00  0.00000000e+00
  0.00000000e+00  3.97394358e-09 -4.45936182e-13  9.99780048e-03
  0.00000000e+00  0.00000000e+00  0.00000000e+00 -4.58949552e-13
  0.00000000e+00  0.00000000e+00  0.00000000e+00  0.00000000e+00
  0.00000000e+00  0.00000000e+00  0.00000000e+00  0.00000000e+00
  0.00000000e+00  0.00000000e+00  0.00000000e+00  0.00000000e+00
  0.00000000e+00  0.00000000e+00  0.00000000e+00  0.00000000e+00
  0.00000000e+00  0.00000000e+00  3.97394358e-09 -4.58949552e-13
  0.00000000e+00  0.00000000e+00  0.00000000e+00  9.99788120e-03]","[[ 9.99780435e-06 -4.45936182e-16  3.97394358e-12]
 [-4.45936182e-16  9.99780048e-06 -4.58949552e-16]
 [ 3.97394358e-12 -4.58949552e-16  9.99788120e-06]]",[-5.52965060e-15  3.36483098e-19  2.11879659e-04],0.0,0.0
1786955629.145073,8.548909492966928e-15,-7.021785001387588e-19,-0.00015397169293418497,"[ 9.99750494e-03 -5.37442281e-13  0.00000000e+00  0.00000000e+00
  0.00000000e+00  4.44614755e-09 -5.37442281e-13  9.99750062e-03
  0.00000000e+00  0.00000000e+00  0.00000000e+00 -5.53125994e-13
  0.00000000e+00  0.00000000e+00  0.00000000e+00  0.00000000e+00
  0.00000000e+00  0.00000000e+00  0.00000000e+00  0.00000000e+00
  0.00000000e+00  0.00000000e+00  0.00000000e+00  0.00000000e+00
  0.00000000e+00  0.00000000e+00  0.00000000e+00  0.00000000e+00
  0.00000000e+00  0.00000000e+00  4.44614755e-09 -5.53125994e-13
  0.00000000e+00  0.00000000e+00  0.00000000e+00  9.99759093e-03]","[[ 9.99750494e-06 -5.37442281e-16  4.44614755e-12]
 [-5.37442281e-16  9.99750062e-06 -5.53125994e-16]
 [ 4.44614755e-12 -5.53125994e-16  9.99759093e-06]]",[-7.86440041e-15  6.17018072e-19  1.53973232e-04],0.0,0.0
1786955629.218467,9.015623581888045e-15,-7.606104520389754e-19,-1.464912138349206e-05,"[ 9.99730537e-03 -5.74894445e-13  0.00000000e+00  0.00000000e+00
  0.00000000e+00  4.77224803e-09 -5.74894445e-13  9.99730073e-03
  0.00000000e+00  0.00000000e+00  0.00000000e+00 -5.91671090e-13
  0.00000000e+00  0.00000000e+00  0.00000000e+00  0.00000000e+00
  0.00000000e+00  0.00000000e+00  0.00000000e+00  0.00000000e+00
  0.00000000e+00  0.00000000e+00  0.00000000e+00  0.00000000e+00
  0.00000000e+00  0.00000000e+00  0.00000000e+00  0.00000000e+00
  0.00000000e+00  0.00000000e+00  4.77224803e-09 -5.91671090e-13
  0.00000000e+00  0.00000000e+00  0.00000000e+00  9.99739766e-03]","[[ 9.99730537e-06 -5.74894445e-16  4.77224803e-12]
 [-5.74894445e-16  9.99730073e-06 -5.91671090e-16]
 [ 4.77224803e-12 -5.91671090e-16  9.99739766e-06]]",[-8.94580308e-15  7.51950421e-19  1.46492678e-05],0.0,0.0
1786955629.2562408,7.786067960834656e-15,-6.3444646101547455e-19,0.00010991277439043044,"[ 9.99710660e-03 -5.89851398e-13  0.00000000e+00  0.00000000e+00
  0.00000000e+00  5.92857925e-09 -5.89851398e-13  9.99710084e-03
  0.00000000e+00  0.00000000e+00  0.00000000e+00 -6.07064519e-13
  0.00000000e+00  0.00000000e+00  0.00000000e+00  0.00000000e+00
  0.00000000e+00  0.00000000e+00  0.00000000e+00  0.00000000e+00
  0.00000000e+00  0.00000000e+00  0.00000000e+00  0.00000000e+00
  0.00000000e+00  0.00000000e+00  0.00000000e+00  0.00000000e+00
  0.00000000e+00  0.00000000e+00  5.92857925e-09 -6.07064519e-13
  0.00000000e+00  0.00000000e+00  0.00000000e+00  9.99722125e-03]","[[ 9.99710660e-06 -5.89851398e-16  5.92857925e-12]
 [-5.89851398e-16  9.99710084e-06 -6.07064519e-16]
 [ 5.92857925e-12 -6.07064519e-16  9.99722125e-06]]",[-8.43778542e-15  7.01178283e-19 -1.09913873e-04],0.0,0.0
1786955629.3058977,6.483615696555104e-15,-5.156905979004093e-19,0.0001028069902870854,"[ 9.99690708e-03 -5.50551599e-13  0.00000000e+00  0.00000000e+00
  0.00000000e+00  6.29944136e-09 -5.50551599e-13  9.99690096e-03
  0.00000000e+00  0.00000000e+00  0.00000000e+00 -5.66617869e-13
  0.00000000e+00  0.00000000e+00  0.00000000e+00  0.00000000e+00
  0.00000000e+00  0.00000000e+00  0.00000000e+00  0.00000000e+00
  0.00000000e+00  0.00000000e+00  0.00000000e+00  0.00000000e+00
  0.00000000e+00  0.00000000e+00  0.00000000e+00  0.00000000e+00
  0.00000000e+00  0.00000000e+00  6.29944136e-09 -5.66617869e-13
  0.00000000e+00  0.00000000e+00  0.00000000e+00  9.99702891e-03]","[[ 9.99690708e-06 -5.50551599e-16  6.29944136e-12]
 [-5.50551599e-16  9.99690096e-06 -5.66617869e-16]
 [ 6.29944136e-12 -5.66617869e-16  9.99702891e-06]]",[-7.13132007e-15  5.73949196e-19 -1.02808018e-04],0.0,0.0
1786955629.348398,5.3538840399786804e-15,-4.3096346682995717e-19,6.715655124445163e-05,"[ 9.99670807e-03 -4.64564848e-13  0.00000000e+00  0.00000000e+00
  0.00000000e+00  7.18687184e-09 -4.64564848e-13  9.99670109e-03
  0.00000000e+00  0.00000000e+00  0.00000000e+00 -4.78121843e-13
  0.00000000e+00  0.00000000e+00  0.00000000e+00  0.00000000e+00
  0.00000000e+00  0.00000000e+00  0.00000000e+00  0.00000000e+00
  0.00000000e+00  0.00000000e+00  0.00000000e+00  0.00000000e+00
  0.00000000e+00  0.00000000e+00  0.00000000e+00  0.00000000e+00
  0.00000000e+00  0.00000000e+00  7.18687184e-09 -4.78121843e-13
  0.00000000e+00  0.00000000e+00  0.00000000e+00  9.99684706e-03]","[[ 9.99680743e-06 -5.21042361e-16  6.59461685e-12]
 [-5.21042361e-16  9.99680102e-06 -5.36247489e-16]
 [ 6.59461685e-12 -5.36247489e-16  9.99693496e-06]]",[-6.48361570e-15  5.15690598e-19 -9.81039774e-05],0.0,0.0
1786955629.3950098,5.633002932247868e-15,-4.487918722675078e-19,-4.73234656088728e-05,"[ 9.99650837e-03 -4.58132062e-13  0.00000000e+00  0.00000000e+00
  0.00000000e+00  7.35690409e-09 -4.58132062e-13  9.99650122e-03
  0.00000000e+00  0.00000000e+00  0.00000000e+00 -4.71501335e-13
  0.00000000e+00  0.00000000e+00  0.00000000e+00  0.00000000e+00
  0.00000000e+00  0.00000000e+00  0.00000000e+00  0.00000000e+00
  0.00000000e+00  0.00000000e+00  0.00000000e+00  0.00000000e+00
  0.00000000e+00  0.00000000e+00  0.00000000e+00  0.00000000e+00
  0.00000000e+00  0.00000000e+00  7.35690409e-09 -4.71501335e-13
  0.00000000e+00  0.00000000e+00  0.00000000e+00  9.99665065e-03]","[[ 9.99650837e-06 -4.58132062e-16  7.35690409e-12]
 [-4.58132062e-16  9.99650122e-06 -4.71501335e-16]
 [ 7.35690409e-12 -4.71501335e-16  9.99665065e-06]]",[-5.28489808e-15  4.26482835e-19  4.73239387e-05],0.0,0.0
1786955629.445624,6.835139524510909e-15,-5.250433458078972e-19,-3.753875238832194e-05,"[ 9.99620908e-03 -4.83740844e-13  0.00000000e+00  0.00000000e+00
  0.00000000e+00  7.85474640e-09 -4.83740844e-13  9.99620144e-03
  0.00000000e+00  0.00000000e+00  0.00000000e+00 -4.97857434e-13
  0.00000000e+00  0.00000000e+00  0.00000000e+00  0.00000000e+00
  0.00000000e+00  0.00000000e+00  0.00000000e+00  0.00000000e+00
  0.00000000e+00  0.00000000e+00  0.00000000e+00  0.00000000e+00
  0.00000000e+00  0.00000000e+00  0.00000000e+00  0.00000000e+00
  0.00000000e+00  0.00000000e+00  7.85474640e-09 -4.97857434e-13
  0.00000000e+00  0.00000000e+00  0.00000000e+00  9.99636098e-03]","[[ 9.99620908e-06 -4.83740844e-16  7.85474640e-12]
 [-4.83740844e-16  9.99620144e-06 -4.97857434e-16]
 [ 7.85474640e-12 -4.97857434e-16  9.99636098e-06]]",[-6.54034458e-15  5.06359274e-19  3.75391276e-05],0.0,0.0
1786955629.4943027,6.6153146316494275e-15,-5.116877644940755e-19,2.0088896008019223e-05,"[ 9.99590978e-03 -4.91875148e-13  0.00000000e+00  0.00000000e+00
  0.00000000e+00  8.33461262e-09 -4.91875148e-13  9.99590168e-03
  0.00000000e+00  0.00000000e+00  0.00000000e+00 -5.06229114e-13
  0.00000000e+00  0.00000000e+00  0.00000000e+00  0.00000000e+00
  0.00000000e+00  0.00000000e+00  0.00000000e+00  0.00000000e+00
  0.00000000e+00  0.00000000e+00  0.00000000e+00  0.00000000e+00
  0.00000000e+00  0.00000000e+00  0.00000000e+00  0.00000000e+00
  0.00000000e+00  0.00000000e+00  8.33461262e-09 -5.06229114e-13
  0.00000000e+00  0.00000000e+00  0.00000000e+00  9.99607096e-03]","[[ 9.99590978e-06 -4.91875148e-16  8.33461262e-12]
 [-4.91875148e-16  9.99590168e-06 -5.06229114e-16]
 [ 8.33461262e-12 -5.06229114e-16  9.99607096e-06]]",[-6.78281727e-15  5.21862667e-19 -2.00890968e-05],0.0,0.0
1786955629.5447497,6.079075556493739e-15,-4.804602527256545e-19,3.485535652014704e-05,"[ 9.99571027e-03 -4.84243193e-13  0.00000000e+00  0.00000000e+00
  0.00000000e+00  8.66417147e-09 -4.84243193e-13  9.99570185e-03
  0.00000000e+00  0.00000000e+00  0.00000000e+00 -4.98374443e-13
  0.00000000e+00  0.00000000e+00  0.00000000e+00  0.00000000e+00
  0.00000000e+00  0.00000000e+00  0.00000000e+00  0.00000000e+00
  0.00000000e+00  0.00000000e+00  0.00000000e+00  0.00000000e+00
  0.00000000e+00  0.00000000e+00  0.00000000e+00  0.00000000e+00
  0.00000000e+00  0.00000000e+00  8.66417147e-09 -4.98374443e-13
  0.00000000e+00  0.00000000e+00  0.00000000e+00  9.99587782e-03]","[[ 9.99571027e-06 -4.84243193e-16  8.66417147e-12]
 [-4.84243193e-16  9.99570185e-06 -4.98374443e-16]
 [ 8.66417147e-12 -4.98374443e-16  9.99587782e-06]]",[-6.38113514e-15  4.97836421e-19 -3.48557049e-05],0.0,0.0
1786955629.5947917,5.140322070259014e-15,-4.2965142398959223e-19,3.515937221543197e-05,"[ 9.99541097e-03 -4.69018400e-13  0.00000000e+00  0.00000000e+00
  0.00000000e+00  9.11416437e-09 -4.69018400e-13  9.99540212e-03
  0.00000000e+00  0.00000000e+00  0.00000000e+00 -4.82705357e-13
  0.00000000e+00  0.00000000e+00  0.00000000e+00  0.00000000e+00
  0.00000000e+00  0.00000000e+00  0.00000000e+00  0.00000000e+00
  0.00000000e+00  0.00000000e+00  0.00000000e+00  0.00000000e+00
  0.00000000e+00  0.00000000e+00  0.00000000e+00  0.00000000e+00
  0.00000000e+00  0.00000000e+00  9.11416437e-09 -4.82705357e-13
  0.00000000e+00  0.00000000e+00  0.00000000e+00  9.99558723e-03]","[[ 9.99541097e-06 -4.69018400e-16  9.11416437e-12]
 [-4.69018400e-16  9.99540212e-06 -4.82705357e-16]
 [ 9.11416437e-12 -4.82705357e-16  9.99558723e-06]]",[-5.46082815e-15  4.46627675e-19 -3.51597237e-05],0.0,0.0
1786955629.649517,4.787099634790641e-15,-4.1271219372844064e-19,3.65465581850799e-05,"[ 9.99531160e-03 -4.50236283e-13  0.00000000e+00  0.00000000e+00
  0.00000000e+00  9.66349620e-09 -4.50236283e-13  9.99530221e-03
  0.00000000e+00  0.00000000e+00  0.00000000e+00 -4.63375139e-13
  0.00000000e+00  0.00000000e+00  0.00000000e+00  0.00000000e+00
  0.00000000e+00  0.00000000e+00  0.00000000e+00  0.00000000e+00
  0.00000000e+00  0.00000000e+00  0.00000000e+00  0.00000000e+00
  0.00000000e+00  0.00000000e+00  0.00000000e+00  0.00000000e+00
  0.00000000e+00  0.00000000e+00  9.66349620e-09 -4.63375139e-13
  0.00000000e+00  0.00000000e+00  0.00000000e+00  9.99549848e-03]","[[ 9.99531160e-06 -4.50236283e-16  9.66349620e-12]
 [-4.50236283e-16  9.99530221e-06 -4.63375139e-16]
 [ 9.66349620e-12 -4.63375139e-16  9.99549848e-06]]",[-5.14032207e-15  4.29651424e-19 -3.65469235e-05],0.0,0.0
1786955629.6941185,4.975879520162341e-15,-4.2070072313851265e-19,-3.776253526543982e-05,"[ 9.99501247e-03 -4.35238306e-13  0.00000000e+00  0.00000000e+00
  0.00000000e+00  1.02659882e-08 -4.35238306e-13  9.99500250e-03
  0.00000000e+00  0.00000000e+00  0.00000000e+00 -4.47939489e-13
  0.00000000e+00  0.00000000e+00  0.00000000e+00  0.00000000e+00
  0.00000000e+00  0.00000000e+00  0.00000000e+00  0.00000000e+00
  0.00000000e+00  0.00000000e+00  0.00000000e+00  0.00000000e+00
  0.00000000e+00  0.00000000e+00  0.00000000e+00  0.00000000e+00
  0.00000000e+00  0.00000000e+00  1.02659882e-08 -4.47939489e-13
  0.00000000e+00  0.00000000e+00  0.00000000e+00  9.99521101e-03]","[[ 9.99501247e-06 -4.35238306e-16  1.02659882e-11]
 [-4.35238306e-16  9.99500250e-06 -4.47939489e-16]
 [ 1.02659882e-11 -4.47939489e-16  9.99521101e-06]]",[-4.58825176e-15  4.03789259e-19  3.77629127e-05],0.0,0.0
1786955629.7451878,7.243818392919837e-15,-5.206584505256302e-19,-0.00013746982390117068,"[ 9.99481302e-03 -4.57635168e-13  0.00000000e+00  0.00000000e+00
  0.00000000e+00  1.06184789e-08 -4.57635168e-13  9.99480270e-03
  0.00000000e+00  0.00000000e+00  0.00000000e+00 -4.70989938e-13
  0.00000000e+00  0.00000000e+00  0.00000000e+00  0.00000000e+00
  0.00000000e+00  0.00000000e+00  0.00000000e+00  0.00000000e+00
  0.00000000e+00  0.00000000e+00  0.00000000e+00  0.00000000e+00
  0.00000000e+00  0.00000000e+00  0.00000000e+00  0.00000000e+00
  0.00000000e+00  0.00000000e+00  1.06184789e-08 -4.70989938e-13
  0.00000000e+00  0.00000000e+00  0.00000000e+00  9.99501837e-03]","[[ 9.99481302e-06 -4.57635168e-16  1.06184789e-11]
 [-4.57635168e-16  9.99480270e-06 -4.70989938e-16]
 [ 1.06184789e-11 -4.70989938e-16  9.99501837e-06]]",[-5.78414119e-15  4.55915456e-19  1.37471198e-04],0.0,0.0
1786955629.7942731,1.1449973338856623e-14,-7.14576669589513e-19,-0.00022000417016920792,"[ 9.99461347e-03 -4.95560086e-13  0.00000000e+00  0.00000000e+00
  0.00000000e+00  1.08616240e-08 -4.95560086e-13  9.99460291e-03
  0.00000000e+00  0.00000000e+00  0.00000000e+00 -5.10021586e-13
  0.00000000e+00  0.00000000e+00  0.00000000e+00  0.00000000e+00
  0.00000000e+00  0.00000000e+00  0.00000000e+00  0.00000000e+00
  0.00000000e+00  0.00000000e+00  0.00000000e+00  0.00000000e+00
  0.00000000e+00  0.00000000e+00  0.00000000e+00  0.00000000e+00
  0.00000000e+00  0.00000000e+00  1.08616240e-08 -5.10021586e-13
  0.00000000e+00  0.00000000e+00  0.00000000e+00  9.99482352e-03]","[[ 9.99461347e-06 -4.95560086e-16  1.08616240e-11]
 [-4.95560086e-16  9.99460291e-06 -5.10021586e-16]
 [ 1.08616240e-11 -5.10021586e-16  9.99482352e-06]]",[-9.06043743e-15  6.02374693e-19  2.20006369e-04],0.0,0.0
1786955629.8595908,2.198607256927639e-14,-1.2715344078395828e-18,-0.000360178179045434,"[ 9.99431424e-03 -6.11906656e-13  0.00000000e+00  0.00000000e+00
  0.00000000e+00  1.13114349e-08 -6.11906656e-13  9.99430325e-03
  0.00000000e+00  0.00000000e+00  0.00000000e+00 -6.29763397e-13
  0.00000000e+00  0.00000000e+00  0.00000000e+00  0.00000000e+00
  0.00000000e+00  0.00000000e+00  0.00000000e+00  0.00000000e+00
  0.00000000e+00  0.00000000e+00  0.00000000e+00  0.00000000e+00
  0.00000000e+00  0.00000000e+00  0.00000000e+00  0.00000000e+00
  0.00000000e+00  0.00000000e+00  1.13114349e-08 -6.29763397e-13
  0.00000000e+00  0.00000000e+00  0.00000000e+00  9.99453299e-03]","[[ 9.99431424e-06 -6.11906656e-16  1.13114349e-11]
 [-6.11906656e-16  9.99430325e-06 -6.29763397e-16]
 [ 1.13114349e-11 -6.29763397e-16  9.99453299e-06]]",[-1.79120788e-14  1.04471555e-18  3.60181779e-04],0.0,0.0
1786955629.8974226,3.911871924516193e-14,-2.478348422969979e-18,-0.0005470688304618497,"[ 9.99401525e-03 -8.70015203e-13  0.00000000e+00  0.00000000e+00
  0.00000000e+00  1.19911891e-08 -8.70015203e-13  9.99400360e-03
  0.00000000e+00  0.00000000e+00  0.00000000e+00 -8.95404115e-13
  0.00000000e+00  0.00000000e+00  0.00000000e+00  0.00000000e+00
  0.00000000e+00  0.00000000e+00  0.00000000e+00  0.00000000e+00
  0.00000000e+00  0.00000000e+00  0.00000000e+00  0.00000000e+00
  0.00000000e+00  0.00000000e+00  0.00000000e+00  0.00000000e+00
  0.00000000e+00  0.00000000e+00  1.19911891e-08 -8.95404115e-13
  0.00000000e+00  0.00000000e+00  0.00000000e+00  9.99424714e-03]","[[ 9.99411493e-06 -7.78515388e-16  1.17845371e-11]
 [-7.78515388e-16  9.99410348e-06 -8.01234134e-16]
 [ 1.17845371e-11 -8.01234134e-16  9.99434283e-06]]",[-2.71942572e-14  1.62376485e-18  4.55256564e-04],0.0,0.0
1786955629.9469893,5.5045151371074804e-14,-3.7939293933578475e-18,-0.0006941058831038126,"[ 9.99381575e-03 -1.02276122e-12  0.00000000e+00  0.00000000e+00
  0.00000000e+00  1.22587067e-08 -1.02276122e-12  9.99380384e-03
  0.00000000e+00  0.00000000e+00  0.00000000e+00 -1.05260761e-12
  0.00000000e+00  0.00000000e+00  0.00000000e+00  0.00000000e+00
  0.00000000e+00  0.00000000e+00  0.00000000e+00  0.00000000e+00
  0.00000000e+00  0.00000000e+00  0.00000000e+00  0.00000000e+00
  0.00000000e+00  0.00000000e+00  0.00000000e+00  0.00000000e+00
  0.00000000e+00  0.00000000e+00  1.22587067e-08 -1.05260761e-12
  0.00000000e+00  0.00000000e+00  0.00000000e+00  9.99405282e-03]","[[ 9.99381575e-06 -1.02276122e-15  1.22587067e-11]
 [-1.02276122e-15  9.99380384e-06 -1.05260761e-15]
 [ 1.22587067e-11 -1.05260761e-15  9.99405282e-06]]",[-4.65366910e-14  3.06333157e-18  6.94112820e-04],0.0,0.0
1786955629.997074,8.540454289537088e-14,-6.937355574493617e-18,-0.0008036855960305012,"[ 9.99351661e-03 -1.38730090e-12  0.00000000e+00  0.00000000e+00
  0.00000000e+00  1.27491035e-08 -1.38730090e-12  9.99350422e-03
  0.00000000e+00  0.00000000e+00  0.00000000e+00 -1.42778543e-12
  0.00000000e+00  0.00000000e+00  0.00000000e+00  0.00000000e+00
  0.00000000e+00  0.00000000e+00  0.00000000e+00  0.00000000e+00
  0.00000000e+00  0.00000000e+00  0.00000000e+00  0.00000000e+00
  0.00000000e+00  0.00000000e+00  0.00000000e+00  0.00000000e+00
  0.00000000e+00  0.00000000e+00  1.27491035e-08 -1.42778543e-12
  0.00000000e+00  0.00000000e+00  0.00000000e+00  9.99376316e-03]","[[ 9.99351661e-06 -1.38730090e-15  1.27491035e-11]
 [-1.38730090e-15  9.99350422e-06 -1.42778543e-15]
 [ 1.27491035e-11 -1.42778543e-15  9.99376316e-06]]",[-7.51589207e-14  5.78991138e-18  8.03693628e-04],0.0,0.0
1786955630.0443747,1.0534975764166955e-13,-9.41144980876665e-18,-0.0007493520314048041,"[ 9.99331715e-03 -1.60977700e-12  0.00000000e+00  0.00000000e+00
  0.00000000e+00  1.30358668e-08 -1.60977700e-12  9.99330449e-03
  0.00000000e+00  0.00000000e+00  0.00000000e+00 -1.65675392e-12
  0.00000000e+00  0.00000000e+00  0.00000000e+00  0.00000000e+00
  0.00000000e+00  0.00000000e+00  0.00000000e+00  0.00000000e+00
  0.00000000e+00  0.00000000e+00  0.00000000e+00  0.00000000e+00
  0.00000000e+00  0.00000000e+00  0.00000000e+00  0.00000000e+00
  0.00000000e+00  0.00000000e+00  1.30358668e-08 -1.65675392e-12
  0.00000000e+00  0.00000000e+00  0.00000000e+00  9.99356925e-03]","[[ 9.99331715e-06 -1.60977700e-15  1.30358668e-11]
 [-1.60977700e-15  9.99330449e-06 -1.65675392e-15]
 [ 1.30358668e-11 -1.65675392e-15  9.99356925e-06]]",[-9.55821619e-14  8.17002713e-18  7.49359520e-04],0.0,0.0
1786955630.0943513,1.3129617982604937e-13,-1.306764041667058e-17,-0.0005820481278302482,"[ 9.99301802e-03 -1.93201350e-12  0.00000000e+00  0.00000000e+00
  0.00000000e+00  1.35051693e-08 -1.93201350e-12  9.99300490e-03
  0.00000000e+00  0.00000000e+00  0.00000000e+00 -1.98839404e-12
  0.00000000e+00  0.00000000e+00  0.00000000e+00  0.00000000e+00
  0.00000000e+00  0.00000000e+00  0.00000000e+00  0.00000000e+00
  0.00000000e+00  0.00000000e+00  0.00000000e+00  0.00000000e+00
  0.00000000e+00  0.00000000e+00  0.00000000e+00  0.00000000e+00
  0.00000000e+00  0.00000000e+00  1.35051693e-08 -1.98839404e-12
  0.00000000e+00  0.00000000e+00  0.00000000e+00  9.99327919e-03]","[[ 9.99301802e-06 -1.93201350e-15  1.35051693e-11]
 [-1.93201350e-15  9.99300490e-06 -1.98839404e-15]
 [ 1.35051693e-11 -1.98839404e-15  9.99327919e-06]]",[-1.23436676e-13  1.19104068e-17  5.82053944e-04],0.0,0.0
1786955630.1443331,1.4405228911473661e-13,-1.5032057469708367e-17,-0.0004285222699742519,"[ 9.99281859e-03 -2.08826707e-12  0.00000000e+00  0.00000000e+00
  0.00000000e+00  1.37992159e-08 -2.08826707e-12  9.99280518e-03
  0.00000000e+00  0.00000000e+00  0.00000000e+00 -2.14920745e-12
  0.00000000e+00  0.00000000e+00  0.00000000e+00  0.00000000e+00
  0.00000000e+00  0.00000000e+00  0.00000000e+00  0.00000000e+00
  0.00000000e+00  0.00000000e+00  0.00000000e+00  0.00000000e+00
  0.00000000e+00  0.00000000e+00  0.00000000e+00  0.00000000e+00
  0.00000000e+00  0.00000000e+00  1.37992159e-08 -2.14920745e-12
  0.00000000e+00  0.00000000e+00  0.00000000e+00  9.99308545e-03]","[[ 9.99281859e-06 -2.08826707e-15  1.37992159e-11]
 [-2.08826707e-15  9.99280518e-06 -2.14920745e-15]
 [ 1.37992159e-11 -2.14920745e-15  9.99308545e-06]]",[-1.38140339e-13  1.41112060e-17  4.28526552e-04],0.0,0.0
1786955630.1944163,1.6268146170604775e-13,-1.8053551511098502e-17,-0.00044425835978323397,"[ 9.99251951e-03 -2.29941810e-12  0.00000000e+00  0.00000000e+00
  0.00000000e+00  1.42986283e-08 -2.29941810e-12  9.99250562e-03
  0.00000000e+00  0.00000000e+00  0.00000000e+00 -2.36652032e-12
  0.00000000e+00  0.00000000e+00  0.00000000e+00  0.00000000e+00
  0.00000000e+00  0.00000000e+00  0.00000000e+00  0.00000000e+00
  0.00000000e+00  0.00000000e+00  0.00000000e+00  0.00000000e+00
  0.00000000e+00  0.00000000e+00  0.00000000e+00  0.00000000e+00
  0.00000000e+00  0.00000000e+00  1.42986283e-08 -2.36652032e-12
  0.00000000e+00  0.00000000e+00  0.00000000e+00  9.99279603e-03]","[[ 9.99251951e-06 -2.29941810e-15  1.42986283e-11]
 [-2.29941810e-15  9.99250562e-06 -2.36652032e-15]
 [ 1.42986283e-11 -2.36652032e-15  9.99279603e-06]]",[-1.56330675e-13  1.70023645e-17  4.44262799e-04],0.0,0.0
1786955630.244854,1.7570852662642563e-13,-2.0260897845113122e-17,-0.00045113240729444104,"[ 9.99232009e-03 -2.42288772e-12  0.00000000e+00  0.00000000e+00
  0.00000000e+00  1.45831287e-08 -2.42288772e-12  9.99230592e-03
  0.00000000e+00  0.00000000e+00  0.00000000e+00 -2.49359306e-12
  0.00000000e+00  0.00000000e+00  0.00000000e+00  0.00000000e+00
  0.00000000e+00  0.00000000e+00  0.00000000e+00  0.00000000e+00
  0.00000000e+00  0.00000000e+00  0.00000000e+00  0.00000000e+00
  0.00000000e+00  0.00000000e+00  0.00000000e+00  0.00000000e+00
  0.00000000e+00  0.00000000e+00  1.45831287e-08 -2.49359306e-12
  0.00000000e+00  0.00000000e+00  0.00000000e+00  9.99260211e-03]","[[ 9.99232009e-06 -2.42288772e-15  1.45831287e-11]
 [-2.42288772e-15  9.99230592e-06 -2.49359306e-15]
 [ 1.45831287e-11 -2.49359306e-15  9.99260211e-06]]",[-1.69131229e-13  1.91361372e-17  4.51136915e-04],0.0,0.0
1786955630.294261,2.0374370658253637e-13,-2.5284396297555757e-17,-0.0006847603341939568,"[ 9.99202105e-03 -2.68732774e-12  0.00000000e+00  0.00000000e+00
  0.00000000e+00  1.50820232e-08 -2.68732774e-12  9.99200639e-03
  0.00000000e+00  0.00000000e+00  0.00000000e+00 -2.76575004e-12
  0.00000000e+00  0.00000000e+00  0.00000000e+00  0.00000000e+00
  0.00000000e+00  0.00000000e+00  0.00000000e+00  0.00000000e+00
  0.00000000e+00  0.00000000e+00  0.00000000e+00  0.00000000e+00
  0.00000000e+00  0.00000000e+00  0.00000000e+00  0.00000000e+00
  0.00000000e+00  0.00000000e+00  1.50820232e-08 -2.76575004e-12
  0.00000000e+00  0.00000000e+00  0.00000000e+00  9.99231272e-03]","[[ 9.99202105e-06 -2.68732774e-15  1.50820232e-11]
 [-2.68732774e-15  9.99200639e-06 -2.76575004e-15]
 [ 1.50820232e-11 -2.76575004e-15  9.99231272e-06]]",[-1.93417965e-13  2.33907352e-17  6.84767177e-04],0.0,0.0
1786955630.346798,2.2656294683381319e-13,-2.9622736112595013e-17,-0.0007774272368905599,"[ 9.99182164e-03 -2.87353840e-12  0.00000000e+00  0.00000000e+00
  0.00000000e+00  1.53544850e-08 -2.87353840e-12  9.99180672e-03
  0.00000000e+00  0.00000000e+00  0.00000000e+00 -2.95739476e-12
  0.00000000e+00  0.00000000e+00  0.00000000e+00  0.00000000e+00
  0.00000000e+00  0.00000000e+00  0.00000000e+00  0.00000000e+00
  0.00000000e+00  0.00000000e+00  0.00000000e+00  0.00000000e+00
  0.00000000e+00  0.00000000e+00  0.00000000e+00  0.00000000e+00
  0.00000000e+00  0.00000000e+00  1.53544850e-08 -2.95739476e-12
  0.00000000e+00  0.00000000e+00  0.00000000e+00  9.99211857e-03]","[[ 9.99182164e-06 -2.87353840e-15  1.53544850e-11]
 [-2.87353840e-15  9.99180672e-06 -2.95739476e-15]
 [ 1.53544850e-11 -2.95739476e-15  9.99211857e-06]]",[-2.14627977e-13  2.73238269e-17  7.77435005e-04],0.0,0.0
1786955630.394977,2.675965776653254e-13,-3.80501066630847e-17,-0.0008772050786980401,"[ 9.99152260e-03 -3.26430491e-12  0.00000000e+00  0.00000000e+00
  0.00000000e+00  1.58321253e-08 -3.26430491e-12  9.99150722e-03
  0.00000000e+00  0.00000000e+00  0.00000000e+00 -3.35956480e-12
  0.00000000e+00  0.00000000e+00  0.00000000e+00  0.00000000e+00
  0.00000000e+00  0.00000000e+00  0.00000000e+00  0.00000000e+00
  0.00000000e+00  0.00000000e+00  0.00000000e+00  0.00000000e+00
  0.00000000e+00  0.00000000e+00  0.00000000e+00  0.00000000e+00
  0.00000000e+00  0.00000000e+00  1.58321253e-08 -3.35956480e-12
  0.00000000e+00  0.00000000e+00  0.00000000e+00  9.99182878e-03]","[[ 9.99152260e-06 -3.26430491e-15  1.58321253e-11]
 [-3.26430491e-15  9.99150722e-06 -3.35956480e-15]
 [ 1.58321253e-11 -3.35956480e-15  9.99182878e-06]]",[-2.53710953e-13  3.51034006e-17  8.77213844e-04],0.0,0.0
1786955630.4470913,2.945803998466279e-13,-4.402596601336395e-17,-0.0008290235851391438,"[ 9.99132323e-03 -3.50922803e-12  0.00000000e+00  0.00000000e+00
  0.00000000e+00  1.61227542e-08 -3.50922803e-12  9.99130756e-03
  0.00000000e+00  0.00000000e+00  0.00000000e+00 -3.61163539e-12
  0.00000000e+00  0.00000000e+00  0.00000000e+00  0.00000000e+00
  0.00000000e+00  0.00000000e+00  0.00000000e+00  0.00000000e+00
  0.00000000e+00  0.00000000e+00  0.00000000e+00  0.00000000e+00
  0.00000000e+00  0.00000000e+00  0.00000000e+00  0.00000000e+00
  0.00000000e+00  0.00000000e+00  1.61227542e-08 -3.61163539e-12
  0.00000000e+00  0.00000000e+00  0.00000000e+00  9.99163502e-03]","[[ 9.99132323e-06 -3.50922803e-15  1.61227542e-11]
 [-3.50922803e-15  9.99130756e-06 -3.61163539e-15]
 [ 1.61227542e-11 -3.61163539e-15  9.99163502e-06]]",[-2.81216933e-13  4.10322151e-17  8.29031869e-04],0.0,0.0
1786955630.4950328,3.3371434960607137e-13,-5.3267686252334546e-17,-0.0007567726692601084,"[ 9.99102422e-03 -3.88524537e-12  0.00000000e+00  0.00000000e+00
  0.00000000e+00  1.65947292e-08 -3.88524537e-12  9.99100809e-03
  0.00000000e+00  0.00000000e+00  0.00000000e+00 -3.99862582e-12
  0.00000000e+00  0.00000000e+00  0.00000000e+00  0.00000000e+00
  0.00000000e+00  0.00000000e+00  0.00000000e+00  0.00000000e+00
  0.00000000e+00  0.00000000e+00  0.00000000e+00  0.00000000e+00
  0.00000000e+00  0.00000000e+00  0.00000000e+00  0.00000000e+00
  0.00000000e+00  0.00000000e+00  1.65947292e-08 -3.99862582e-12
  0.00000000e+00  0.00000000e+00  0.00000000e+00  9.99134514e-03]","[[ 9.99102422e-06 -3.88524537e-15  1.65947292e-11]
 [-3.88524537e-15  9.99100809e-06 -3.99862582e-15]
 [ 1.65947292e-11 -3.99862582e-15  9.99134514e-06]]",[-3.21158995e-13  5.02421073e-17  7.56780231e-04],0.0,0.0
1786955630.5463374,3.5607039012229233e-13,-5.882482495635132e-17,-0.0006281695264265252,"[ 9.99082495e-03 -4.15085846e-12  0.00000000e+00  0.00000000e+00
  0.00000000e+00  1.69728159e-08 -4.15085846e-12  9.99080846e-03
  0.00000000e+00  0.00000000e+00  0.00000000e+00 -4.27199014e-12
  0.00000000e+00  0.00000000e+00  0.00000000e+00  0.00000000e+00
  0.00000000e+00  0.00000000e+00  0.00000000e+00  0.00000000e+00
  0.00000000e+00  0.00000000e+00  0.00000000e+00  0.00000000e+00
  0.00000000e+00  0.00000000e+00  0.00000000e+00  0.00000000e+00
  0.00000000e+00  0.00000000e+00  1.69728159e-08 -4.27199014e-12
  0.00000000e+00  0.00000000e+00  0.00000000e+00  9.99115318e-03]","[[ 9.99082495e-06 -4.15085846e-15  1.69728159e-11]
 [-4.15085846e-15  9.99080846e-06 -4.27199014e-15]
 [ 1.69728159e-11 -4.27199014e-15  9.99115318e-06]]",[-3.45411929e-13  5.61418250e-17  6.28175803e-04],0.0,0.0
1786955630.5947616,3.7773904152805577e-13,-6.436890895874051e-17,-0.0003149781466369462,"[ 9.99052591e-03 -4.35704919e-12  0.00000000e+00  0.00000000e+00
  0.00000000e+00  1.73880545e-08 -4.35704919e-12  9.99050902e-03
  0.00000000e+00  0.00000000e+00  0.00000000e+00 -4.48419796e-12
  0.00000000e+00  0.00000000e+00  0.00000000e+00  0.00000000e+00
  0.00000000e+00  0.00000000e+00  0.00000000e+00  0.00000000e+00
  0.00000000e+00  0.00000000e+00  0.00000000e+00  0.00000000e+00
  0.00000000e+00  0.00000000e+00  0.00000000e+00  0.00000000e+00
  0.00000000e+00  0.00000000e+00  1.73880545e-08 -4.48419796e-12
  0.00000000e+00  0.00000000e+00  0.00000000e+00  9.99086218e-03]","[[ 9.99052591e-06 -4.35704919e-15  1.73880545e-11]
 [-4.35704919e-15  9.99050902e-06 -4.48419796e-15]
 [ 1.73880545e-11 -4.48419796e-15  9.99086218e-06]]",[-3.72265849e-13  6.29570995e-17  3.14981294e-04],0.0,0.0
1786955630.644355,3.836793047783066e-13,-6.590371866374934e-17,-0.00012051894110820527,"[ 9.99032659e-03 -4.43582056e-12  0.00000000e+00  0.00000000e+00
  0.00000000e+00  1.76922627e-08 -4.43582056e-12  9.99030940e-03
  0.00000000e+00  0.00000000e+00  0.00000000e+00 -4.56526805e-12
  0.00000000e+00  0.00000000e+00  0.00000000e+00  0.00000000e+00
  0.00000000e+00  0.00000000e+00  0.00000000e+00  0.00000000e+00
  0.00000000e+00  0.00000000e+00  0.00000000e+00  0.00000000e+00
  0.00000000e+00  0.00000000e+00  0.00000000e+00  0.00000000e+00
  0.00000000e+00  0.00000000e+00  1.76922627e-08 -4.56526805e-12
  0.00000000e+00  0.00000000e+00  0.00000000e+00  9.99066874e-03]","[[ 9.99032659e-06 -4.43582056e-15  1.76922627e-11]
 [-4.43582056e-15  9.99030940e-06 -4.56526805e-15]
 [ 1.76922627e-11 -4.56526805e-15  9.99066874e-06]]",[-3.81550843e-13  6.53541648e-17  1.20520145e-04],0.0,0.0
1786955630.69478,3.9397562709409855e-13,-6.854109263856922e-17,-0.0002172895718648427,"[ 9.99002762e-03 -4.50593996e-12  0.00000000e+00  0.00000000e+00
  0.00000000e+00  1.81490489e-08 -4.50593996e-12  9.99000999e-03
  0.00000000e+00  0.00000000e+00  0.00000000e+00 -4.63743368e-12
  0.00000000e+00  0.00000000e+00  0.00000000e+00  0.00000000e+00
  0.00000000e+00  0.00000000e+00  0.00000000e+00  0.00000000e+00
  0.00000000e+00  0.00000000e+00  0.00000000e+00  0.00000000e+00
  0.00000000e+00  0.00000000e+00  0.00000000e+00  0.00000000e+00
  0.00000000e+00  0.00000000e+00  1.81490489e-08 -4.63743368e-12
  0.00000000e+00  0.00000000e+00  0.00000000e+00  9.99037861e-03]","[[ 9.99002762e-06 -4.50593996e-15  1.81490489e-11]
 [-4.50593996e-15  9.99000999e-06 -4.63743368e-15]
 [ 1.81490489e-11 -4.63743368e-15  9.99037861e-06]]",[-3.90035885e-13  6.75340913e-17  2.17291743e-04],0.0,0.0
1786955630.7449207,4.031475532679248e-13,-7.088161636182469e-17,-0.0002601067445535676,"[ 9.98982833e-03 -4.57462135e-12  0.00000000e+00  0.00000000e+00
  0.00000000e+00  1.84594661e-08 -4.57462135e-12  9.98981039e-03
  0.00000000e+00  0.00000000e+00  0.00000000e+00 -4.70811933e-12
  0.00000000e+00  0.00000000e+00  0.00000000e+00  0.00000000e+00
  0.00000000e+00  0.00000000e+00  0.00000000e+00  0.00000000e+00
  0.00000000e+00  0.00000000e+00  0.00000000e+00  0.00000000e+00
  0.00000000e+00  0.00000000e+00  0.00000000e+00  0.00000000e+00
  0.00000000e+00  0.00000000e+00  1.84594661e-08 -4.70811933e-12
  0.00000000e+00  0.00000000e+00  0.00000000e+00  9.99018531e-03]","[[ 9.98982833e-06 -4.57462135e-15  1.84594661e-11]
 [-4.57462135e-15  9.98981039e-06 -4.70811933e-15]
 [ 1.84594661e-11 -4.70811933e-15  9.99018531e-06]]",[-3.98350053e-13  6.96576864e-17  2.60109343e-04],0.0,0.0
1786955630.797471,4.167911867222501e-13,-7.436673770129748e-17,-0.00039621833188174804,"[ 9.98962904e-03 -4.66078775e-12  0.00000000e+00  0.00000000e+00
  0.00000000e+00  1.87640983e-08 -4.66078775e-12  9.98961080e-03
  0.00000000e+00  0.00000000e+00  0.00000000e+00 -4.79680025e-12
  0.00000000e+00  0.00000000e+00  0.00000000e+00  0.00000000e+00
  0.00000000e+00  0.00000000e+00  0.00000000e+00  0.00000000e+00
  0.00000000e+00  0.00000000e+00  0.00000000e+00  0.00000000e+00
  0.00000000e+00  0.00000000e+00  0.00000000e+00  0.00000000e+00
  0.00000000e+00  0.00000000e+00  1.87640983e-08 -4.79680025e-12
  0.00000000e+00  0.00000000e+00  0.00000000e+00  9.98999191e-03]","[[ 9.98962904e-06 -4.66078775e-15  1.87640983e-11]
 [-4.66078775e-15  9.98961080e-06 -4.79680025e-15]
 [ 1.87640983e-11 -4.79680025e-15  9.98999191e-06]]",[-4.09360522e-13  7.24668624e-17  3.96222290e-04],0.0,0.0
1786955630.8443139,4.435738112261917e-13,-8.13005701966498e-17,-0.00047889355893815383,"[ 9.98933015e-03 -4.86519886e-12  0.00000000e+00  0.00000000e+00
  0.00000000e+00  1.92614598e-08 -4.86519886e-12  9.98931144e-03
  0.00000000e+00  0.00000000e+00  0.00000000e+00 -5.00717652e-12
  0.00000000e+00  0.00000000e+00  0.00000000e+00  0.00000000e+00
  0.00000000e+00  0.00000000e+00  0.00000000e+00  0.00000000e+00
  0.00000000e+00  0.00000000e+00  0.00000000e+00  0.00000000e+00
  0.00000000e+00  0.00000000e+00  0.00000000e+00  0.00000000e+00
  0.00000000e+00  0.00000000e+00  1.92614598e-08 -5.00717652e-12
  0.00000000e+00  0.00000000e+00  0.00000000e+00  9.98970265e-03]","[[ 9.98933015e-06 -4.86519886e-15  1.92614598e-11]
 [-4.86519886e-15  9.98931144e-06 -5.00717652e-15]
 [ 1.92614598e-11 -5.00717652e-15  9.98970265e-06]]",[-4.34353869e-13  7.89034299e-17  4.78898343e-04],0.0,0.0
1786955630.895059,4.710431223157319e-13,-8.853923935850616e-17,-0.0004272206373308052,"[ 9.98903125e-03 -5.08521772e-12  0.00000000e+00  0.00000000e+00
  0.00000000e+00  1.97276323e-08 -5.08521772e-12  9.98901209e-03
  0.00000000e+00  0.00000000e+00  0.00000000e+00 -5.23361601e-12
  0.00000000e+00  0.00000000e+00  0.00000000e+00  0.00000000e+00
  0.00000000e+00  0.00000000e+00  0.00000000e+00  0.00000000e+00
  0.00000000e+00  0.00000000e+00  0.00000000e+00  0.00000000e+00
  0.00000000e+00  0.00000000e+00  0.00000000e+00  0.00000000e+00
  0.00000000e+00  0.00000000e+00  1.97276323e-08 -5.23361601e-12
  0.00000000e+00  0.00000000e+00  0.00000000e+00  9.98941276e-03]","[[ 9.98903125e-06 -5.08521772e-15  1.97276323e-11]
 [-5.08521772e-15  9.98901209e-06 -5.23361601e-15]
 [ 1.97276323e-11 -5.23361601e-15  9.98941276e-06]]",[-4.62619608e-13  8.63041703e-17  4.27224905e-04],0.0,0.0
1786955630.945392,4.844211200302535e-13,-9.21109386099987e-17,-0.00031342022547242726,"[ 9.98883199e-03 -5.19975913e-12  0.00000000e+00  0.00000000e+00
  0.00000000e+00  2.00247423e-08 -5.19975913e-12  9.98881253e-03
  0.00000000e+00  0.00000000e+00  0.00000000e+00 -5.35149999e-12
  0.00000000e+00  0.00000000e+00  0.00000000e+00  0.00000000e+00
  0.00000000e+00  0.00000000e+00  0.00000000e+00  0.00000000e+00
  0.00000000e+00  0.00000000e+00  0.00000000e+00  0.00000000e+00
  0.00000000e+00  0.00000000e+00  0.00000000e+00  0.00000000e+00
  0.00000000e+00  0.00000000e+00  2.00247423e-08 -5.35149999e-12
  0.00000000e+00  0.00000000e+00  0.00000000e+00  9.98921924e-03]","[[ 9.98883199e-06 -5.19975913e-15  2.00247423e-11]
 [-5.19975913e-15  9.98881253e-06 -5.35149999e-15]
 [ 2.00247423e-11 -5.35149999e-15  9.98921924e-06]]",[-4.78149674e-13  9.04345569e-17  3.13423356e-04],0.0,0.0
1786955630.9944932,4.964407792988896e-13,-9.532749444323611e-17,-0.00011965308919315021,"[ 9.98853317e-03 -5.33236629e-12  0.00000000e+00  0.00000000e+00
  0.00000000e+00  2.05390840e-08 -5.33236629e-12  9.98851321e-03
  0.00000000e+00  0.00000000e+00  0.00000000e+00 -5.48797691e-12
  0.00000000e+00  0.00000000e+00  0.00000000e+00  0.00000000e+00
  0.00000000e+00  0.00000000e+00  0.00000000e+00  0.00000000e+00
  0.00000000e+00  0.00000000e+00  0.00000000e+00  0.00000000e+00
  0.00000000e+00  0.00000000e+00  0.00000000e+00  0.00000000e+00
  0.00000000e+00  0.00000000e+00  2.05390840e-08 -5.48797691e-12
  0.00000000e+00  0.00000000e+00  0.00000000e+00  9.98893037e-03]","[[ 9.98853317e-06 -5.33236629e-15  2.05390840e-11]
 [-5.33236629e-15  9.98851321e-06 -5.48797691e-15]
 [ 2.05390840e-11 -5.48797691e-15  9.98893037e-06]]",[-4.93988124e-13  9.46717801e-17  1.19654284e-04],0.0,0.0
1786955631.045421,4.958562444486519e-13,-9.517489329998847e-17,6.250605289759292e-05,"[ 9.98833390e-03 -5.35178298e-12  0.00000000e+00  0.00000000e+00
  0.00000000e+00  2.08215315e-08 -5.35178298e-12  9.98831367e-03
  0.00000000e+00  0.00000000e+00  0.00000000e+00 -5.50796021e-12
  0.00000000e+00  0.00000000e+00  0.00000000e+00  0.00000000e+00
  0.00000000e+00  0.00000000e+00  0.00000000e+00  0.00000000e+00
  0.00000000e+00  0.00000000e+00  0.00000000e+00  0.00000000e+00
  0.00000000e+00  0.00000000e+00  0.00000000e+00  0.00000000e+00
  0.00000000e+00  0.00000000e+00  2.08215315e-08 -5.50796021e-12
  0.00000000e+00  0.00000000e+00  0.00000000e+00  9.98873657e-03]","[[ 9.98833390e-06 -5.35178298e-15  2.08215315e-11]
 [-5.35178298e-15  9.98831367e-06 -5.50796021e-15]
 [ 2.08215315e-11 -5.50796021e-15  9.98873657e-06]]",[-4.97162695e-13  9.55201317e-17 -6.25066773e-05],0.0,0.0
1786955631.0941863,4.936908704515544e-13,-9.460961882178796e-17,-1.956770289401888e-05,"[ 9.98803506e-03 -5.32413721e-12  0.00000000e+00  0.00000000e+00
  0.00000000e+00  2.12774719e-08 -5.32413721e-12  9.98801438e-03
  0.00000000e+00  0.00000000e+00  0.00000000e+00 -5.47950767e-12
  0.00000000e+00  0.00000000e+00  0.00000000e+00  0.00000000e+00
  0.00000000e+00  0.00000000e+00  0.00000000e+00  0.00000000e+00
  0.00000000e+00  0.00000000e+00  0.00000000e+00  0.00000000e+00
  0.00000000e+00  0.00000000e+00  0.00000000e+00  0.00000000e+00
  0.00000000e+00  0.00000000e+00  2.12774719e-08 -5.47950767e-12
  0.00000000e+00  0.00000000e+00  0.00000000e+00  9.98844654e-03]","[[ 9.98803506e-06 -5.32413721e-15  2.12774719e-11]
 [-5.32413721e-15  9.98801438e-06 -5.47950767e-15]
 [ 2.12774719e-11 -5.47950767e-15  9.98844654e-06]]",[-4.93279442e-13  9.45033403e-17  1.95678983e-05],0.0,0.0
1786955631.1445744,4.989981034636903e-13,-9.596444054506556e-17,-0.00013525065212727228,"[ 9.98783583e-03 -5.34160806e-12  0.00000000e+00  0.00000000e+00
  0.00000000e+00  2.15790725e-08 -5.34160806e-12  9.98781487e-03
  0.00000000e+00  0.00000000e+00  0.00000000e+00 -5.49748836e-12
  0.00000000e+00  0.00000000e+00  0.00000000e+00  0.00000000e+00
  0.00000000e+00  0.00000000e+00  0.00000000e+00  0.00000000e+00
  0.00000000e+00  0.00000000e+00  0.00000000e+00  0.00000000e+00
  0.00000000e+00  0.00000000e+00  0.00000000e+00  0.00000000e+00
  0.00000000e+00  0.00000000e+00  2.15790725e-08 -5.49748836e-12
  0.00000000e+00  0.00000000e+00  0.00000000e+00  9.98825315e-03]","[[ 9.98783583e-06 -5.34160806e-15  2.15790725e-11]
 [-5.34160806e-15  9.98781487e-06 -5.49748836e-15]
 [ 2.15790725e-11 -5.49748836e-15  9.98825315e-06]]",[-4.96084445e-13  9.52218453e-17  1.35252003e-04],0.0,0.0
1786955631.1945226,5.107702522299859e-13,-9.894630838577261e-17,-0.00019010891790482992,"[ 9.98753703e-03 -5.41490651e-12  0.00000000e+00  0.00000000e+00
  0.00000000e+00  2.20506327e-08 -5.41490651e-12  9.98751561e-03
  0.00000000e+00  0.00000000e+00  0.00000000e+00 -5.57292580e-12
  0.00000000e+00  0.00000000e+00  0.00000000e+00  0.00000000e+00
  0.00000000e+00  0.00000000e+00  0.00000000e+00  0.00000000e+00
  0.00000000e+00  0.00000000e+00  0.00000000e+00  0.00000000e+00
  0.00000000e+00  0.00000000e+00  0.00000000e+00  0.00000000e+00
  0.00000000e+00  0.00000000e+00  2.20506327e-08 -5.57292580e-12
  0.00000000e+00  0.00000000e+00  0.00000000e+00  9.98796346e-03]","[[ 9.98753703e-06 -5.41490651e-15  2.20506327e-11]
 [-5.41490651e-15  9.98751561e-06 -5.57292580e-15]
 [ 2.20506327e-11 -5.57292580e-15  9.98796346e-06]]",[-5.06583248e-13  9.78878126e-17  1.90110817e-04],0.0,0.0
1786955631.2449214,5.197569851591432e-13,-1.0121225357382725e-16,-0.0002093545670938113,"[ 9.98733784e-03 -5.47384853e-12  0.00000000e+00  0.00000000e+00
  0.00000000e+00  2.23664651e-08 -5.47384853e-12  9.98731611e-03
  0.00000000e+00  0.00000000e+00  0.00000000e+00 -5.63358786e-12
  0.00000000e+00  0.00000000e+00  0.00000000e+00  0.00000000e+00
  0.00000000e+00  0.00000000e+00  0.00000000e+00  0.00000000e+00
  0.00000000e+00  0.00000000e+00  0.00000000e+00  0.00000000e+00
  0.00000000e+00  0.00000000e+00  0.00000000e+00  0.00000000e+00
  0.00000000e+00  0.00000000e+00  2.23664651e-08 -5.63358786e-12
  0.00000000e+00  0.00000000e+00  0.00000000e+00  9.98777038e-03]","[[ 9.98733784e-06 -5.47384853e-15  2.23664651e-11]
 [-5.47384853e-15  9.98731611e-06 -5.63358786e-15]
 [ 2.23664651e-11 -5.63358786e-15  9.98777038e-06]]",[-5.15079561e-13  1.00033824e-16  2.09356658e-04],0.0,0.0
1786955631.2944984,5.339881246260095e-13,-1.0479166062048776e-16,-0.00016714127852957003,"[ 9.98703906e-03 -5.57501950e-12  0.00000000e+00  0.00000000e+00
  0.00000000e+00  2.28304212e-08 -5.57501950e-12  9.98701688e-03
  0.00000000e+00  0.00000000e+00  0.00000000e+00 -5.73771121e-12
  0.00000000e+00  0.00000000e+00  0.00000000e+00  0.00000000e+00
  0.00000000e+00  0.00000000e+00  0.00000000e+00  0.00000000e+00
  0.00000000e+00  0.00000000e+00  0.00000000e+00  0.00000000e+00
  0.00000000e+00  0.00000000e+00  0.00000000e+00  0.00000000e+00
  0.00000000e+00  0.00000000e+00  2.28304212e-08 -5.73771121e-12
  0.00000000e+00  0.00000000e+00  0.00000000e+00  9.98748057e-03]","[[ 9.98703906e-06 -5.57501950e-15  2.28304212e-11]
 [-5.57501950e-15  9.98701688e-06 -5.73771121e-15]
 [ 2.28304212e-11 -5.73771121e-15  9.98748057e-06]]",[-5.30177476e-13  1.03833680e-16  1.67142948e-04],0.0,0.0
1786955631.3442957,5.369495322578934e-13,-1.0553408772000144e-16,-3.0666078141283755e-05,"[ 9.98683988e-03 -5.61481925e-12  0.00000000e+00  0.00000000e+00
  0.00000000e+00  2.31385985e-08 -5.61481925e-12  9.98681740e-03
  0.00000000e+00  0.00000000e+00  0.00000000e+00 -5.77867240e-12
  0.00000000e+00  0.00000000e+00  0.00000000e+00  0.00000000e+00
  0.00000000e+00  0.00000000e+00  0.00000000e+00  0.00000000e+00
  0.00000000e+00  0.00000000e+00  0.00000000e+00  0.00000000e+00
  0.00000000e+00  0.00000000e+00  0.00000000e+00  0.00000000e+00
  0.00000000e+00  0.00000000e+00  2.31385985e-08 -5.77867240e-12
  0.00000000e+00  0.00000000e+00  0.00000000e+00  9.98728736e-03]","[[ 9.98683988e-06 -5.61481925e-15  2.31385985e-11]
 [-5.61481925e-15  9.98681740e-06 -5.77867240e-15]
 [ 2.31385985e-11 -5.77867240e-15  9.98728736e-06]]",[-5.36245310e-13  1.05357929e-16  3.06663844e-05],0.0,0.0
1786955631.3943605,5.283665096538616e-13,-1.0343141787664083e-16,0.0002370215034885881,"[ 9.98654114e-03 -5.59787200e-12  0.00000000e+00  0.00000000e+00
  0.00000000e+00  2.36081161e-08 -5.59787200e-12  9.98651820e-03
  0.00000000e+00  0.00000000e+00  0.00000000e+00 -5.76123058e-12
  0.00000000e+00  0.00000000e+00  0.00000000e+00  0.00000000e+00
  0.00000000e+00  0.00000000e+00  0.00000000e+00  0.00000000e+00
  0.00000000e+00  0.00000000e+00  0.00000000e+00  0.00000000e+00
  0.00000000e+00  0.00000000e+00  0.00000000e+00  0.00000000e+00
  0.00000000e+00  0.00000000e+00  2.36081161e-08 -5.76123058e-12
  0.00000000e+00  0.00000000e+00  0.00000000e+00  9.98699769e-03]","[[ 9.98654114e-06 -5.59787200e-15  2.36081161e-11]
 [-5.59787200e-15  9.98651820e-06 -5.76123058e-15]
 [ 2.36081161e-11 -5.76123058e-15  9.98699769e-06]]",[-5.33967529e-13  1.04798014e-16 -2.37023871e-04],0.0,0.0
1786955631.4444258,5.07846997567179e-13,-9.853004011243118e-17,0.0004985143069218267,"[ 9.98634197e-03 -5.50893060e-12  0.00000000e+00  0.00000000e+00
  0.00000000e+00  2.39064567e-08 -5.50893060e-12  9.98631874e-03
  0.00000000e+00  0.00000000e+00  0.00000000e+00 -5.66969368e-12
  0.00000000e+00  0.00000000e+00  0.00000000e+00  0.00000000e+00
  0.00000000e+00  0.00000000e+00  0.00000000e+00  0.00000000e+00
  0.00000000e+00  0.00000000e+00  0.00000000e+00  0.00000000e+00
  0.00000000e+00  0.00000000e+00  0.00000000e+00  0.00000000e+00
  0.00000000e+00  0.00000000e+00  2.39064567e-08 -5.66969368e-12
  0.00000000e+00  0.00000000e+00  0.00000000e+00  9.98680429e-03]","[[ 9.98634197e-06 -5.50893060e-15  2.39064567e-11]
 [-5.50893060e-15  9.98631874e-06 -5.66969368e-15]
 [ 2.39064567e-11 -5.66969368e-15  9.98680429e-06]]",[-5.19770018e-13  1.01357504e-16 -4.98519286e-04],0.0,0.0
1786955631.4961858,4.759557432625714e-13,-9.124793462456816e-17,0.00040877009497819467,"[ 9.98604325e-03 -5.29890080e-12  0.00000000e+00  0.00000000e+00
  0.00000000e+00  2.43657815e-08 -5.29890080e-12  9.98601957e-03
  0.00000000e+00  0.00000000e+00  0.00000000e+00 -5.45353474e-12
  0.00000000e+00  0.00000000e+00  0.00000000e+00  0.00000000e+00
  0.00000000e+00  0.00000000e+00  0.00000000e+00  0.00000000e+00
  0.00000000e+00  0.00000000e+00  0.00000000e+00  0.00000000e+00
  0.00000000e+00  0.00000000e+00  0.00000000e+00  0.00000000e+00
  0.00000000e+00  0.00000000e+00  2.43657815e-08 -5.45353474e-12
  0.00000000e+00  0.00000000e+00  0.00000000e+00  9.98651445e-03]","[[ 9.98604325e-06 -5.29890080e-15  2.43657815e-11]
 [-5.29890080e-15  9.98601957e-06 -5.45353474e-15]
 [ 2.43657815e-11 -5.45353474e-15  9.98651445e-06]]",[-4.85920698e-13  9.34781323e-17 -4.08774177e-04],0.0,0.0
1786955631.5448391,4.573084116575728e-13,-8.718612774508363e-17,0.00037928688693522616,"[ 9.98584412e-03 -5.17834979e-12  0.00000000e+00  0.00000000e+00
  0.00000000e+00  2.46794638e-08 -5.17834979e-12  9.98582014e-03
  0.00000000e+00  0.00000000e+00  0.00000000e+00 -5.32946578e-12
  0.00000000e+00  0.00000000e+00  0.00000000e+00  0.00000000e+00
  0.00000000e+00  0.00000000e+00  0.00000000e+00  0.00000000e+00
  0.00000000e+00  0.00000000e+00  0.00000000e+00  0.00000000e+00
  0.00000000e+00  0.00000000e+00  0.00000000e+00  0.00000000e+00
  0.00000000e+00  0.00000000e+00  2.46794638e-08 -5.32946578e-12
  0.00000000e+00  0.00000000e+00  0.00000000e+00  9.98632139e-03]","[[ 9.98584412e-06 -5.17834979e-15  2.46794638e-11]
 [-5.17834979e-15  9.98582014e-06 -5.32946578e-15]
 [ 2.46794638e-11 -5.32946578e-15  9.98632139e-06]]",[-4.66673762e-13  8.92084352e-17 -3.79290675e-04],0.0,0.0
1786955631.594151,4.287075340552318e-13,-8.121453488616425e-17,0.00038305835356444723,"[ 9.98554542e-03 -5.00720432e-12  0.00000000e+00  0.00000000e+00
  0.00000000e+00  2.51403116e-08 -5.00720432e-12  9.98552099e-03
  0.00000000e+00  0.00000000e+00  0.00000000e+00 -5.15332591e-12
  0.00000000e+00  0.00000000e+00  0.00000000e+00  0.00000000e+00
  0.00000000e+00  0.00000000e+00  0.00000000e+00  0.00000000e+00
  0.00000000e+00  0.00000000e+00  0.00000000e+00  0.00000000e+00
  0.00000000e+00  0.00000000e+00  0.00000000e+00  0.00000000e+00
  0.00000000e+00  0.00000000e+00  2.51403116e-08 -5.15332591e-12
  0.00000000e+00  0.00000000e+00  0.00000000e+00  9.98603161e-03]","[[ 9.98554542e-06 -5.00720432e-15  2.51403116e-11]
 [-5.00720432e-15  9.98552099e-06 -5.15332591e-15]
 [ 2.51403116e-11 -5.15332591e-15  9.98603161e-06]]",[-4.38342214e-13  8.31894098e-17 -3.83062179e-04],0.0,0.0
1786955631.6448088,4.0910840647200813e-13,-7.731034264565537e-17,0.0003867518402480563,"[ 9.98534633e-03 -4.88163273e-12  0.00000000e+00  0.00000000e+00
  0.00000000e+00  2.54753252e-08 -4.88163273e-12  9.98532158e-03
  0.00000000e+00  0.00000000e+00  0.00000000e+00 -5.02408986e-12
  0.00000000e+00  0.00000000e+00  0.00000000e+00  0.00000000e+00
  0.00000000e+00  0.00000000e+00  0.00000000e+00  0.00000000e+00
  0.00000000e+00  0.00000000e+00  0.00000000e+00  0.00000000e+00
  0.00000000e+00  0.00000000e+00  0.00000000e+00  0.00000000e+00
  0.00000000e+00  0.00000000e+00  2.54753252e-08 -5.02408986e-12
  0.00000000e+00  0.00000000e+00  0.00000000e+00  9.98583899e-03]","[[ 9.98534633e-06 -4.88163273e-15  2.54753252e-11]
 [-4.88163273e-15  9.98532158e-06 -5.02408986e-15]
 [ 2.54753252e-11 -5.02408986e-15  9.98583899e-06]]",[-4.18965317e-13  7.92542294e-17 -3.86755702e-04],0.0,0.0
1786955631.6945143,3.734007436151834e-13,-7.051119079840364e-17,0.0005610933811448506,"[ 9.98504763e-03 -4.71244363e-12  0.00000000e+00  0.00000000e+00
  0.00000000e+00  2.59031541e-08 -4.71244363e-12  9.98502247e-03
  0.00000000e+00  0.00000000e+00  0.00000000e+00 -4.84996344e-12
  0.00000000e+00  0.00000000e+00  0.00000000e+00  0.00000000e+00
  0.00000000e+00  0.00000000e+00  0.00000000e+00  0.00000000e+00
  0.00000000e+00  0.00000000e+00  0.00000000e+00  0.00000000e+00
  0.00000000e+00  0.00000000e+00  0.00000000e+00  0.00000000e+00
  0.00000000e+00  0.00000000e+00  2.59031541e-08 -4.84996344e-12
  0.00000000e+00  0.00000000e+00  0.00000000e+00  9.98554857e-03]","[[ 9.98504763e-06 -4.71244363e-15  2.59031541e-11]
 [-4.71244363e-15  9.98502247e-06 -4.84996344e-15]
 [ 2.59031541e-11 -4.84996344e-15  9.98554857e-06]]",[-3.87938851e-13  7.32332316e-17 -5.61098984e-04],0.0,0.0
1786955631.7452314,3.3549030915945346e-13,-6.36884718546882e-17,0.0007469502797765591,"[ 9.98484854e-03 -4.52115890e-12  0.00000000e+00  0.00000000e+00
  0.00000000e+00  2.62144479e-08 -4.52115890e-12  9.98482307e-03
  0.00000000e+00  0.00000000e+00  0.00000000e+00 -4.65309657e-12
  0.00000000e+00  0.00000000e+00  0.00000000e+00  0.00000000e+00
  0.00000000e+00  0.00000000e+00  0.00000000e+00  0.00000000e+00
  0.00000000e+00  0.00000000e+00  0.00000000e+00  0.00000000e+00
  0.00000000e+00  0.00000000e+00  0.00000000e+00  0.00000000e+00
  0.00000000e+00  0.00000000e+00  2.62144479e-08 -4.65309657e-12
  0.00000000e+00  0.00000000e+00  0.00000000e+00  9.98535550e-03]","[[ 9.98484854e-06 -4.52115890e-15  2.62144479e-11]
 [-4.52115890e-15  9.98482307e-06 -4.65309657e-15]
 [ 2.62144479e-11 -4.65309657e-15  9.98535550e-06]]",[-3.55074939e-13  6.71648090e-17 -7.46957738e-04],0.0,0.0
1786955631.7949305,2.677419538526393e-13,-5.2439199869764375e-17,0.00092665729405228,"[ 9.98454992e-03 -4.15764502e-12  0.00000000e+00  0.00000000e+00
  0.00000000e+00  2.66846174e-08 -4.15764502e-12  9.98452399e-03
  0.00000000e+00  0.00000000e+00  0.00000000e+00 -4.27897447e-12
  0.00000000e+00  0.00000000e+00  0.00000000e+00  0.00000000e+00
  0.00000000e+00  0.00000000e+00  0.00000000e+00  0.00000000e+00
  0.00000000e+00  0.00000000e+00  0.00000000e+00  0.00000000e+00
  0.00000000e+00  0.00000000e+00  0.00000000e+00  0.00000000e+00
  0.00000000e+00  0.00000000e+00  2.66846174e-08 -4.27897447e-12
  0.00000000e+00  0.00000000e+00  0.00000000e+00  9.98506596e-03]","[[ 9.98454992e-06 -4.15764502e-15  2.66846174e-11]
 [-4.15764502e-15  9.98452399e-06 -4.27897447e-15]
 [ 2.66846174e-11 -4.27897447e-15  9.98506596e-06]]",[-2.92472616e-13  5.64049455e-17 -9.26666547e-04],0.0,0.0
1786955631.8444629,2.1033591484646391e-13,-4.3865084172721047e-17,0.0010977066753512512,"[ 9.98435084e-03 -3.86900475e-12  0.00000000e+00  0.00000000e+00
  0.00000000e+00  2.69940564e-08 -3.86900475e-12  9.98432461e-03
  0.00000000e+00  0.00000000e+00  0.00000000e+00 -3.98191093e-12
  0.00000000e+00  0.00000000e+00  0.00000000e+00  0.00000000e+00
  0.00000000e+00  0.00000000e+00  0.00000000e+00  0.00000000e+00
  0.00000000e+00  0.00000000e+00  0.00000000e+00  0.00000000e+00
  0.00000000e+00  0.00000000e+00  0.00000000e+00  0.00000000e+00
  0.00000000e+00  0.00000000e+00  2.69940564e-08 -3.98191093e-12
  0.00000000e+00  0.00000000e+00  0.00000000e+00  9.98487287e-03]","[[ 9.98435084e-06 -3.86900475e-15  2.69940564e-11]
 [-3.86900475e-15  9.98432461e-06 -3.98191093e-15]
 [ 2.69940564e-11 -3.98191093e-15  9.98487287e-06]]",[-2.39970163e-13  4.82365796e-17 -1.09771764e-03],0.0,0.0
1786955631.8949468,1.2159479088395835e-13,-3.2177163785061785e-17,0.001046370614064429,"[ 9.98405227e-03 -3.34182834e-12  0.00000000e+00  0.00000000e+00
  0.00000000e+00  2.74860014e-08 -3.34182834e-12  9.98402556e-03
  0.00000000e+00  0.00000000e+00  0.00000000e+00 -3.43935007e-12
  0.00000000e+00  0.00000000e+00  0.00000000e+00  0.00000000e+00
  0.00000000e+00  0.00000000e+00  0.00000000e+00  0.00000000e+00
  0.00000000e+00  0.00000000e+00  0.00000000e+00  0.00000000e+00
  0.00000000e+00  0.00000000e+00  0.00000000e+00  0.00000000e+00
  0.00000000e+00  0.00000000e+00  2.74860014e-08 -3.43935007e-12
  0.00000000e+00  0.00000000e+00  0.00000000e+00  9.98458381e-03]","[[ 9.98405227e-06 -3.34182834e-15  2.74860014e-11]
 [-3.34182834e-15  9.98402556e-06 -3.43935007e-15]
 [ 2.74860014e-11 -3.43935007e-15  9.98458381e-06]]",[-1.50357123e-13  3.57763918e-17 -1.04638106e-03],0.0,0.0
1786955631.9477923,7.026441564657006e-14,-2.6677627453908246e-17,0.0009091301210766289,"[ 9.98385333e-03 -2.89981047e-12  0.00000000e+00  0.00000000e+00
  0.00000000e+00  2.79209799e-08 -2.89981047e-12  9.98382620e-03
  0.00000000e+00  0.00000000e+00  0.00000000e+00 -2.98443294e-12
  0.00000000e+00  0.00000000e+00  0.00000000e+00  0.00000000e+00
  0.00000000e+00  0.00000000e+00  0.00000000e+00  0.00000000e+00
  0.00000000e+00  0.00000000e+00  0.00000000e+00  0.00000000e+00
  0.00000000e+00  0.00000000e+00  0.00000000e+00  0.00000000e+00
  0.00000000e+00  0.00000000e+00  2.79209799e-08 -2.98443294e-12
  0.00000000e+00  0.00000000e+00  0.00000000e+00  9.98439329e-03]","[[ 9.98385333e-06 -2.89981047e-15  2.79209799e-11]
 [-2.89981047e-15  9.98382620e-06 -2.98443294e-15]
 [ 2.79209799e-11 -2.98443294e-15  9.98439329e-06]]",[-9.56494279e-14  2.93911859e-17 -9.09139198e-04],0.0,0.0
1786955631.9942293,2.495909977756003e-15,-2.0190344158410363e-17,0.0007657617374117189,"[ 9.98355478e-03 -2.49584050e-12  0.00000000e+00  0.00000000e+00
  0.00000000e+00  2.84091759e-08 -2.49584050e-12  9.98352718e-03
  0.00000000e+00  0.00000000e+00  0.00000000e+00 -2.56867413e-12
  0.00000000e+00  0.00000000e+00  0.00000000e+00  0.00000000e+00
  0.00000000e+00  0.00000000e+00  0.00000000e+00  0.00000000e+00
  0.00000000e+00  0.00000000e+00  0.00000000e+00  0.00000000e+00
  0.00000000e+00  0.00000000e+00  0.00000000e+00  0.00000000e+00
  0.00000000e+00  0.00000000e+00  2.84091759e-08 -2.56867413e-12
  0.00000000e+00  0.00000000e+00  0.00000000e+00  9.98410418e-03]","[[ 9.98355478e-06 -2.49584050e-15  2.84091759e-11]
 [-2.49584050e-15  9.98352718e-06 -2.56867413e-15]
 [ 2.84091759e-11 -2.56867413e-15  9.98410418e-06]]",[-2.42510292e-14  2.21575774e-17 -7.65769383e-04],0.0,0.0
1786955632.0458019,-4.062271093120588e-14,-1.656183512514062e-17,0.0007599107012694618,"[ 9.98335572e-03 -2.28781476e-12  0.00000000e+00  0.00000000e+00
  0.00000000e+00  2.86910969e-08 -2.28781476e-12  9.98332784e-03
  0.00000000e+00  0.00000000e+00  0.00000000e+00 -2.35457769e-12
  0.00000000e+00  0.00000000e+00  0.00000000e+00  0.00000000e+00
  0.00000000e+00  0.00000000e+00  0.00000000e+00  0.00000000e+00
  0.00000000e+00  0.00000000e+00  0.00000000e+00  0.00000000e+00
  0.00000000e+00  0.00000000e+00  0.00000000e+00  0.00000000e+00
  0.00000000e+00  0.00000000e+00  2.86910969e-08 -2.35457769e-12
  0.00000000e+00  0.00000000e+00  0.00000000e+00  9.98391057e-03]","[[ 9.98335572e-06 -2.28781476e-15  2.86910969e-11]
 [-2.28781476e-15  9.98332784e-06 -2.35457769e-15]
 [ 2.86910969e-11 -2.35457769e-15  9.98391057e-06]]",[ 1.88200096e-14  1.83513050e-17 -7.59918288e-04],0.0,0.0
1786955632.094394,-1.0956368772386486e-13,-1.1552817296372813e-17,0.0008149115640798676,"[ 9.98305719e-03 -1.93029461e-12  0.00000000e+00  0.00000000e+00
  0.00000000e+00  2.91647762e-08 -1.93029461e-12  9.98302885e-03
  0.00000000e+00  0.00000000e+00  0.00000000e+00 -1.98662424e-12
  0.00000000e+00  0.00000000e+00  0.00000000e+00  0.00000000e+00
  0.00000000e+00  0.00000000e+00  0.00000000e+00  0.00000000e+00
  0.00000000e+00  0.00000000e+00  0.00000000e+00  0.00000000e+00
  0.00000000e+00  0.00000000e+00  0.00000000e+00  0.00000000e+00
  0.00000000e+00  0.00000000e+00  2.91647762e-08 -1.98662424e-12
  0.00000000e+00  0.00000000e+00  0.00000000e+00  9.98362120e-03]","[[ 9.98305719e-06 -1.93029461e-15  2.91647762e-11]
 [-1.93029461e-15  9.98302885e-06 -1.98662424e-15]
 [ 2.91647762e-11 -1.98662424e-15  9.98362120e-06]]",[ 8.57975936e-14  1.31718880e-17 -8.14919700e-04],0.0,0.0
1786955632.1450784,-1.5918557273375748e-13,-8.50720844264185e-18,0.0008475154723894817,"[ 9.98285816e-03 -1.68910232e-12  0.00000000e+00  0.00000000e+00
  0.00000000e+00  2.94631283e-08 -1.68910232e-12  9.98282953e-03
  0.00000000e+00  0.00000000e+00  0.00000000e+00 -1.73839336e-12
  0.00000000e+00  0.00000000e+00  0.00000000e+00  0.00000000e+00
  0.00000000e+00  0.00000000e+00  0.00000000e+00  0.00000000e+00
  0.00000000e+00  0.00000000e+00  0.00000000e+00  0.00000000e+00
  0.00000000e+00  0.00000000e+00  0.00000000e+00  0.00000000e+00
  0.00000000e+00  0.00000000e+00  2.94631283e-08 -1.73839336e-12
  0.00000000e+00  0.00000000e+00  0.00000000e+00  9.98342794e-03]","[[ 9.98285816e-06 -1.68910232e-15  2.94631283e-11]
 [-1.68910232e-15  9.98282953e-06 -1.73839336e-15]
 [ 2.94631283e-11 -1.73839336e-15  9.98342794e-06]]",[ 1.34216206e-13  9.98063806e-18 -8.47523934e-04],0.0,0.0
1786955632.1943092,-2.3545185171257217e-13,-4.7650938842033604e-18,0.000845940669803813,"[ 9.98255967e-03 -1.28754494e-12  0.00000000e+00  0.00000000e+00
  0.00000000e+00  2.99452439e-08 -1.28754494e-12  9.98253057e-03
  0.00000000e+00  0.00000000e+00  0.00000000e+00 -1.32511754e-12
  0.00000000e+00  0.00000000e+00  0.00000000e+00  0.00000000e+00
  0.00000000e+00  0.00000000e+00  0.00000000e+00  0.00000000e+00
  0.00000000e+00  0.00000000e+00  0.00000000e+00  0.00000000e+00
  0.00000000e+00  0.00000000e+00  0.00000000e+00  0.00000000e+00
  0.00000000e+00  0.00000000e+00  2.99452439e-08 -1.32511754e-12
  0.00000000e+00  0.00000000e+00  0.00000000e+00  9.98313877e-03]","[[ 9.98255967e-06 -1.28754494e-15  2.99452439e-11]
 [-1.28754494e-15  9.98253057e-06 -1.32511754e-15]
 [ 2.99452439e-11 -1.32511754e-15  9.98313877e-06]]",[ 2.10121797e-13  5.88613465e-18 -8.45949115e-04],0.0,0.0
1786955632.2447667,-2.852950279381968e-13,-2.8790426049372365e-18,0.0008198820399085704,"[ 9.98236065e-03 -1.05140165e-12  0.00000000e+00  0.00000000e+00
  0.00000000e+00  3.02334788e-08 -1.05140165e-12  9.98233127e-03
  0.00000000e+00  0.00000000e+00  0.00000000e+00 -1.08208300e-12
  0.00000000e+00  0.00000000e+00  0.00000000e+00  0.00000000e+00
  0.00000000e+00  0.00000000e+00  0.00000000e+00  0.00000000e+00
  0.00000000e+00  0.00000000e+00  0.00000000e+00  0.00000000e+00
  0.00000000e+00  0.00000000e+00  0.00000000e+00  0.00000000e+00
  0.00000000e+00  0.00000000e+00  3.02334788e-08 -1.08208300e-12
  0.00000000e+00  0.00000000e+00  0.00000000e+00  9.98294533e-03]","[[ 9.98236065e-06 -1.05140165e-15  3.02334788e-11]
 [-1.05140165e-15  9.98233127e-06 -1.08208300e-15]
 [ 3.02334788e-11 -1.08208300e-15  9.98294533e-06]]",[ 2.60509495e-13  3.76626948e-18 -8.19890225e-04],0.0,0.0
1786955632.2949271,-3.570190646732051e-13,-9.551997351155624e-19,0.0007322343824114342,"[ 9.98206223e-03 -6.37009957e-13  0.00000000e+00  0.00000000e+00
  0.00000000e+00  3.07576076e-08 -6.37009957e-13  9.98203234e-03
  0.00000000e+00  0.00000000e+00  0.00000000e+00 -6.55598351e-13
  0.00000000e+00  0.00000000e+00  0.00000000e+00  0.00000000e+00
  0.00000000e+00  0.00000000e+00  0.00000000e+00  0.00000000e+00
  0.00000000e+00  0.00000000e+00  0.00000000e+00  0.00000000e+00
  0.00000000e+00  0.00000000e+00  0.00000000e+00  0.00000000e+00
  0.00000000e+00  0.00000000e+00  3.07576076e-08 -6.55598351e-13
  0.00000000e+00  0.00000000e+00  0.00000000e+00  9.98265704e-03]","[[ 9.98206223e-06 -6.37009957e-16  3.07576076e-11]
 [-6.37009957e-16  9.98203234e-06 -6.55598351e-16]
 [ 3.07576076e-11 -6.55598351e-16  9.98265704e-06]]",[ 3.34500401e-13  1.43527051e-18 -7.32241692e-04],0.0,0.0
1786955632.3486297,-3.9808707138783777e-13,-2.5709349868445605e-19,0.0006470142261774116,"[ 9.98186319e-03 -4.63316293e-13  0.00000000e+00  0.00000000e+00
  0.00000000e+00  3.10103728e-08 -4.63316293e-13  9.98183306e-03
  0.00000000e+00  0.00000000e+00  0.00000000e+00 -4.76835895e-13
  0.00000000e+00  0.00000000e+00  0.00000000e+00  0.00000000e+00
  0.00000000e+00  0.00000000e+00  0.00000000e+00  0.00000000e+00
  0.00000000e+00  0.00000000e+00  0.00000000e+00  0.00000000e+00
  0.00000000e+00  0.00000000e+00  0.00000000e+00  0.00000000e+00
  0.00000000e+00  0.00000000e+00  3.10103728e-08 -4.76835895e-13
  0.00000000e+00  0.00000000e+00  0.00000000e+00  9.98246290e-03]","[[ 9.98186319e-06 -4.63316293e-16  3.10103728e-11]
 [-4.63316293e-16  9.98183306e-06 -4.76835895e-16]
 [ 3.10103728e-11 -4.76835895e-16  9.98246290e-06]]",[ 3.78026492e-13  5.65621832e-19 -6.47020685e-04],0.0,0.0
1786955632.3944368,-4.538347577135897e-13,9.593509767839815e-20,0.000602739356160953,"[ 9.98156485e-03 -1.19131493e-13  0.00000000e+00  0.00000000e+00
  0.00000000e+00  3.15787932e-08 -1.19131493e-13  9.98153416e-03
  0.00000000e+00  0.00000000e+00  0.00000000e+00 -1.22606990e-13
  0.00000000e+00  0.00000000e+00  0.00000000e+00  0.00000000e+00
  0.00000000e+00  0.00000000e+00  0.00000000e+00  0.00000000e+00
  0.00000000e+00  0.00000000e+00  0.00000000e+00  0.00000000e+00
  0.00000000e+00  0.00000000e+00  0.00000000e+00  0.00000000e+00
  0.00000000e+00  0.00000000e+00  3.15787932e-08 -1.22606990e-13
  0.00000000e+00  0.00000000e+00  0.00000000e+00  9.98217554e-03]","[[ 9.98156485e-06 -1.19131493e-16  3.15787932e-11]
 [-1.19131493e-16  9.98153416e-06 -1.22606990e-16]
 [ 3.15787932e-11 -1.22606990e-16  9.98217554e-06]]",[ 4.34805126e-13 -2.20345219e-20 -6.02745373e-04],0.0,0.0
1786955632.4443512,-4.943590723831715e-13,8.498231508679065e-20,0.0006499645438893253,"[9.98136587e-03 5.74499951e-14 0.00000000e+00 0.00000000e+00
 0.00000000e+00 3.18729547e-08 5.74499951e-14 9.98133490e-03
 0.00000000e+00 0.00000000e+00 0.00000000e+00 5.91275516e-14
 0.00000000e+00 0.00000000e+00 0.00000000e+00 0.00000000e+00
 0.00000000e+00 0.00000000e+00 0.00000000e+00 0.00000000e+00
 0.00000000e+00 0.00000000e+00 0.00000000e+00 0.00000000e+00
 0.00000000e+00 0.00000000e+00 0.00000000e+00 0.00000000e+00
 0.00000000e+00 0.00000000e+00 3.18729547e-08 5.91275516e-14
 0.00000000e+00 0.00000000e+00 0.00000000e+00 9.98198226e-03]","[[9.98136587e-06 5.74499951e-17 3.18729547e-11]
 [5.74499951e-17 9.98133490e-06 5.91275516e-17]
 [3.18729547e-11 5.91275516e-17 9.98198226e-06]]",[ 4.73647303e-13 -1.23414743e-19 -6.49971032e-04],0.0,0.0
1786955632.4949255,-5.595472904644133e-13,-4.415124110425006e-19,0.000685003759429481,"[9.98106744e-03 3.49375565e-13 0.00000000e+00 0.00000000e+00
 0.00000000e+00 3.23237305e-08 3.49375565e-13 9.98103603e-03
 0.00000000e+00 0.00000000e+00 0.00000000e+00 3.59572189e-13
 0.00000000e+00 0.00000000e+00 0.00000000e+00 0.00000000e+00
 0.00000000e+00 0.00000000e+00 0.00000000e+00 0.00000000e+00
 0.00000000e+00 0.00000000e+00 0.00000000e+00 0.00000000e+00
 0.00000000e+00 0.00000000e+00 0.00000000e+00 0.00000000e+00
 0.00000000e+00 0.00000000e+00 3.23237305e-08 3.59572189e-13
 0.00000000e+00 0.00000000e+00 0.00000000e+00 9.98169254e-03]","[[9.98106744e-06 3.49375565e-16 3.23237305e-11]
 [3.49375565e-16 9.98103603e-06 3.59572189e-16]
 [3.23237305e-11 3.59572189e-16 9.98169254e-06]]",[ 5.37410556e-13  1.95203600e-19 -6.85010597e-04],0.0,0.0
1786955632.5458975,-6.050519127459793e-13,-1.241003823141184e-18,0.000699823806162847,"[9.98086854e-03 5.80112249e-13 0.00000000e+00 0.00000000e+00
 0.00000000e+00 3.26681372e-08 5.80112249e-13 9.98083679e-03
 0.00000000e+00 0.00000000e+00 0.00000000e+00 5.97042310e-13
 0.00000000e+00 0.00000000e+00 0.00000000e+00 0.00000000e+00
 0.00000000e+00 0.00000000e+00 0.00000000e+00 0.00000000e+00
 0.00000000e+00 0.00000000e+00 0.00000000e+00 0.00000000e+00
 0.00000000e+00 0.00000000e+00 0.00000000e+00 0.00000000e+00
 0.00000000e+00 0.00000000e+00 3.26681372e-08 5.97042310e-13
 0.00000000e+00 0.00000000e+00 0.00000000e+00 9.98150030e-03]","[[9.98086854e-06 5.80112249e-16 3.26681372e-11]
 [5.80112249e-16 9.98083679e-06 5.97042310e-16]
 [3.26681372e-11 5.97042310e-16 9.98150030e-06]]",[ 5.82195555e-13  8.23183447e-19 -6.99830792e-04],0.0,0.0
1786955632.5963972,-6.889055694309734e-13,-3.3872647597458522e-18,0.0008885560536557869,"[9.98057017e-03 9.55387549e-13 0.00000000e+00 0.00000000e+00
 0.00000000e+00 3.31563875e-08 9.55387549e-13 9.98053795e-03
 0.00000000e+00 0.00000000e+00 0.00000000e+00 9.83269053e-13
 0.00000000e+00 0.00000000e+00 0.00000000e+00 0.00000000e+00
 0.00000000e+00 0.00000000e+00 0.00000000e+00 0.00000000e+00
 0.00000000e+00 0.00000000e+00 0.00000000e+00 0.00000000e+00
 0.00000000e+00 0.00000000e+00 0.00000000e+00 0.00000000e+00
 0.00000000e+00 0.00000000e+00 3.31563875e-08 9.83269053e-13
 0.00000000e+00 0.00000000e+00 0.00000000e+00 9.98121137e-03]","[[9.98057017e-06 9.55387549e-16 3.31563875e-11]
 [9.55387549e-16 9.98053795e-06 9.83269053e-16]
 [3.31563875e-11 9.83269053e-16 9.98121137e-06]]",[ 6.59450548e-13  2.51359146e-18 -8.88564923e-04],0.0,0.0
1786955632.6444387,-7.506021462901386e-13,-5.739336495378449e-18,0.0009260352360409565,"[9.98037128e-03 1.25550912e-12 0.00000000e+00 0.00000000e+00
 0.00000000e+00 3.35016184e-08 1.25550912e-12 9.98033873e-03
 0.00000000e+00 0.00000000e+00 0.00000000e+00 1.29214892e-12
 0.00000000e+00 0.00000000e+00 0.00000000e+00 0.00000000e+00
 0.00000000e+00 0.00000000e+00 0.00000000e+00 0.00000000e+00
 0.00000000e+00 0.00000000e+00 0.00000000e+00 0.00000000e+00
 0.00000000e+00 0.00000000e+00 0.00000000e+00 0.00000000e+00
 0.00000000e+00 0.00000000e+00 3.35016184e-08 1.29214892e-12
 0.00000000e+00 0.00000000e+00 0.00000000e+00 9.98101917e-03]","[[9.98037128e-06 1.25550912e-15 3.35016184e-11]
 [1.25550912e-15 9.98033873e-06 1.29214892e-15]
 [3.35016184e-11 1.29214892e-15 9.98101917e-06]]",[ 7.19585339e-13  4.54279446e-18 -9.26044479e-04],0.0,0.0
1786955632.6945894,-8.479244335799642e-13,-1.0369021400780877e-17,0.0009630892560061889,"[9.98007294e-03 1.69591533e-12 0.00000000e+00 0.00000000e+00
 0.00000000e+00 3.39797620e-08 1.69591533e-12 9.98003992e-03
 0.00000000e+00 0.00000000e+00 0.00000000e+00 1.74540731e-12
 0.00000000e+00 0.00000000e+00 0.00000000e+00 0.00000000e+00
 0.00000000e+00 0.00000000e+00 0.00000000e+00 0.00000000e+00
 0.00000000e+00 0.00000000e+00 0.00000000e+00 0.00000000e+00
 0.00000000e+00 0.00000000e+00 0.00000000e+00 0.00000000e+00
 0.00000000e+00 0.00000000e+00 3.39797620e-08 1.74540731e-12
 0.00000000e+00 0.00000000e+00 0.00000000e+00 9.98073006e-03]","[[9.98007294e-06 1.69591533e-15 3.39797620e-11]
 [1.69591533e-15 9.98003992e-06 1.74540731e-15]
 [3.39797620e-11 1.74540731e-15 9.98073006e-06]]",[ 8.15206699e-13  8.68810830e-18 -9.63098868e-04],0.0,0.0
1786955632.744386,-9.136423608571695e-13,-1.4360717041145793e-17,0.0009606029135209583,"[9.97987411e-03 2.05840922e-12 0.00000000e+00 0.00000000e+00
 0.00000000e+00 3.43665092e-08 2.05840922e-12 9.97984072e-03
 0.00000000e+00 0.00000000e+00 0.00000000e+00 2.11847970e-12
 0.00000000e+00 0.00000000e+00 0.00000000e+00 0.00000000e+00
 0.00000000e+00 0.00000000e+00 0.00000000e+00 0.00000000e+00
 0.00000000e+00 0.00000000e+00 0.00000000e+00 0.00000000e+00
 0.00000000e+00 0.00000000e+00 0.00000000e+00 0.00000000e+00
 0.00000000e+00 0.00000000e+00 3.43665092e-08 2.11847970e-12
 0.00000000e+00 0.00000000e+00 0.00000000e+00 9.98053872e-03]","[[9.97987411e-06 2.05840922e-15 3.43665092e-11]
 [2.05840922e-15 9.97984072e-06 2.11847970e-15]
 [3.43665092e-11 2.11847970e-15 9.98053872e-06]]",[ 8.80638251e-13  1.23258020e-17 -9.60612501e-04],0.0,0.0
1786955632.7949765,-1.01383778950844e-12,-2.1259132610214936e-17,0.0009453849452181198,"[9.97957575e-03 2.46568523e-12 0.00000000e+00 0.00000000e+00
 0.00000000e+00 3.47966146e-08 2.46568523e-12 9.97954194e-03
 0.00000000e+00 0.00000000e+00 0.00000000e+00 2.53764107e-12
 0.00000000e+00 0.00000000e+00 0.00000000e+00 0.00000000e+00
 0.00000000e+00 0.00000000e+00 0.00000000e+00 0.00000000e+00
 0.00000000e+00 0.00000000e+00 0.00000000e+00 0.00000000e+00
 0.00000000e+00 0.00000000e+00 0.00000000e+00 0.00000000e+00
 0.00000000e+00 0.00000000e+00 3.47966146e-08 2.53764107e-12
 0.00000000e+00 0.00000000e+00 0.00000000e+00 9.98024867e-03]","[[9.97957575e-06 2.46568523e-15 3.47966146e-11]
 [2.46568523e-15 9.97954194e-06 2.53764107e-15]
 [3.47966146e-11 2.53764107e-15 9.98024867e-06]]",[ 9.80951055e-13  1.88602492e-17 -9.45394380e-04],0.0,0.0
1786955632.844396,-1.0765064023611971e-12,-2.619005336157434e-17,0.0008771882327445193,"[9.97937688e-03 2.75468222e-12 0.00000000e+00 0.00000000e+00
 0.00000000e+00 3.51159095e-08 2.75468222e-12 9.97934276e-03
 0.00000000e+00 0.00000000e+00 0.00000000e+00 2.83507173e-12
 0.00000000e+00 0.00000000e+00 0.00000000e+00 0.00000000e+00
 0.00000000e+00 0.00000000e+00 0.00000000e+00 0.00000000e+00
 0.00000000e+00 0.00000000e+00 0.00000000e+00 0.00000000e+00
 0.00000000e+00 0.00000000e+00 0.00000000e+00 0.00000000e+00
 0.00000000e+00 0.00000000e+00 3.51159095e-08 2.83507173e-12
 0.00000000e+00 0.00000000e+00 0.00000000e+00 9.98005598e-03]","[[9.97937688e-06 2.75468222e-15 3.51159095e-11]
 [2.75468222e-15 9.97934276e-06 2.83507173e-15]
 [3.51159095e-11 2.83507173e-15 9.98005598e-06]]",[ 1.04571327e-12  2.37033735e-17 -8.77196987e-04],0.0,0.0
1786955632.8943152,-1.1655928711265425e-12,-3.39890137039938e-17,0.0007858488230776393,"[9.97907857e-03 3.13850168e-12 0.00000000e+00 0.00000000e+00
 0.00000000e+00 3.55682789e-08 3.13850168e-12 9.97904401e-03
 0.00000000e+00 0.00000000e+00 0.00000000e+00 3.23009199e-12
 0.00000000e+00 0.00000000e+00 0.00000000e+00 0.00000000e+00
 0.00000000e+00 0.00000000e+00 0.00000000e+00 0.00000000e+00
 0.00000000e+00 0.00000000e+00 0.00000000e+00 0.00000000e+00
 0.00000000e+00 0.00000000e+00 0.00000000e+00 0.00000000e+00
 0.00000000e+00 0.00000000e+00 3.55682789e-08 3.23009199e-12
 0.00000000e+00 0.00000000e+00 0.00000000e+00 9.97976641e-03]","[[9.97907857e-06 3.13850168e-15 3.55682789e-11]
 [3.13850168e-15 9.97904401e-06 3.23009199e-15]
 [3.55682789e-11 3.23009199e-15 9.97976641e-06]]",[ 1.13765265e-12  3.14509382e-17 -7.85856666e-04],0.0,0.0
1786955632.944289,-1.2125649036496663e-12,-3.846286966088614e-17,0.0006141667142394169,"[9.97887972e-03 3.36728282e-12 0.00000000e+00 0.00000000e+00
 0.00000000e+00 3.58836190e-08 3.36728282e-12 9.97884485e-03
 0.00000000e+00 0.00000000e+00 0.00000000e+00 3.46554951e-12
 0.00000000e+00 0.00000000e+00 0.00000000e+00 0.00000000e+00
 0.00000000e+00 0.00000000e+00 0.00000000e+00 0.00000000e+00
 0.00000000e+00 0.00000000e+00 0.00000000e+00 0.00000000e+00
 0.00000000e+00 0.00000000e+00 0.00000000e+00 0.00000000e+00
 0.00000000e+00 0.00000000e+00 3.58836190e-08 3.46554951e-12
 0.00000000e+00 0.00000000e+00 0.00000000e+00 9.97957366e-03]","[[9.97887972e-06 3.36728282e-15 3.58836190e-11]
 [3.36728282e-15 9.97884485e-06 3.46554951e-15]
 [3.58836190e-11 3.46554951e-15 9.97957366e-06]]",[ 1.19053804e-12  3.63347858e-17 -6.14172843e-04],0.0,0.0
1786955632.9942412,-1.2789613383354211e-12,-4.522266125679408e-17,0.0006183875239216263,"[9.97858147e-03 3.66322475e-12 0.00000000e+00 0.00000000e+00
 0.00000000e+00 3.63806341e-08 3.66322475e-12 9.97854613e-03
 0.00000000e+00 0.00000000e+00 0.00000000e+00 3.77012769e-12
 0.00000000e+00 0.00000000e+00 0.00000000e+00 0.00000000e+00
 0.00000000e+00 0.00000000e+00 0.00000000e+00 0.00000000e+00
 0.00000000e+00 0.00000000e+00 0.00000000e+00 0.00000000e+00
 0.00000000e+00 0.00000000e+00 0.00000000e+00 0.00000000e+00
 0.00000000e+00 0.00000000e+00 3.63806341e-08 3.77012769e-12
 0.00000000e+00 0.00000000e+00 0.00000000e+00 9.97928503e-03]","[[9.97858147e-06 3.66322475e-15 3.63806341e-11]
 [3.66322475e-15 9.97854613e-06 3.77012769e-15]
 [3.63806341e-11 3.77012769e-15 9.97928503e-06]]",[ 1.25647632e-12  4.28916661e-17 -6.18393695e-04],0.0,0.0
1786955633.045851,-1.3272637238652926e-12,-5.038202232562797e-17,0.0006904437406145547,"[9.97838262e-03 3.84156720e-12 0.00000000e+00 0.00000000e+00
 0.00000000e+00 3.66734109e-08 3.84156720e-12 9.97834699e-03
 0.00000000e+00 0.00000000e+00 0.00000000e+00 3.95367458e-12
 0.00000000e+00 0.00000000e+00 0.00000000e+00 0.00000000e+00
 0.00000000e+00 0.00000000e+00 0.00000000e+00 0.00000000e+00
 0.00000000e+00 0.00000000e+00 0.00000000e+00 0.00000000e+00
 0.00000000e+00 0.00000000e+00 0.00000000e+00 0.00000000e+00
 0.00000000e+00 0.00000000e+00 3.66734109e-08 3.95367458e-12
 0.00000000e+00 0.00000000e+00 0.00000000e+00 9.97909184e-03]","[[9.97838262e-06 3.84156720e-15 3.66734109e-11]
 [3.84156720e-15 9.97834699e-06 3.95367458e-15]
 [3.66734109e-11 3.95367458e-15 9.97909184e-06]]",[ 1.30195554e-12  4.76526807e-17 -6.90450631e-04],0.0,0.0
1786955633.0949783,-1.415570209891994e-12,-6.038421231734948e-17,0.0008197788782546844,"[9.97808438e-03 4.18191463e-12 0.00000000e+00 0.00000000e+00
 0.00000000e+00 3.71382652e-08 4.18191463e-12 9.97804829e-03
 0.00000000e+00 0.00000000e+00 0.00000000e+00 4.30395416e-12
 0.00000000e+00 0.00000000e+00 0.00000000e+00 0.00000000e+00
 0.00000000e+00 0.00000000e+00 0.00000000e+00 0.00000000e+00
 0.00000000e+00 0.00000000e+00 0.00000000e+00 0.00000000e+00
 0.00000000e+00 0.00000000e+00 0.00000000e+00 0.00000000e+00
 0.00000000e+00 0.00000000e+00 3.71382652e-08 4.30395416e-12
 0.00000000e+00 0.00000000e+00 0.00000000e+00 9.97880259e-03]","[[9.97808438e-06 4.18191463e-15 3.71382652e-11]
 [4.18191463e-15 9.97804829e-06 4.30395416e-15]
 [3.71382652e-11 4.30395416e-15 9.97880259e-06]]",[ 1.38513856e-12  5.68564537e-17 -8.19787059e-04],0.0,0.0
1786955633.1455941,-1.4772490568730003e-12,-6.780388415362623e-17,0.0008275895454685767,"[9.97788556e-03 4.42714881e-12 0.00000000e+00 0.00000000e+00
 0.00000000e+00 3.74441410e-08 4.42714881e-12 9.97784917e-03
 0.00000000e+00 0.00000000e+00 0.00000000e+00 4.55634486e-12
 0.00000000e+00 0.00000000e+00 0.00000000e+00 0.00000000e+00
 0.00000000e+00 0.00000000e+00 0.00000000e+00 0.00000000e+00
 0.00000000e+00 0.00000000e+00 0.00000000e+00 0.00000000e+00
 0.00000000e+00 0.00000000e+00 0.00000000e+00 0.00000000e+00
 0.00000000e+00 0.00000000e+00 3.74441410e-08 4.55634486e-12
 0.00000000e+00 0.00000000e+00 0.00000000e+00 9.97860968e-03]","[[9.97788556e-06 4.42714881e-15 3.74441410e-11]
 [4.42714881e-15 9.97784917e-06 4.55634486e-15]
 [3.74441410e-11 4.55634486e-15 9.97860968e-06]]",[ 1.44627480e-12  6.40337021e-17 -8.27597804e-04],0.0,0.0
1786955633.194215,-1.5698654845300085e-12,-7.96829776410184e-17,0.0008266279567310519,"[9.97758739e-03 4.83742348e-12 0.00000000e+00 0.00000000e+00
 0.00000000e+00 3.79582813e-08 4.83742348e-12 9.97755051e-03
 0.00000000e+00 0.00000000e+00 0.00000000e+00 4.97859234e-12
 0.00000000e+00 0.00000000e+00 0.00000000e+00 0.00000000e+00
 0.00000000e+00 0.00000000e+00 0.00000000e+00 0.00000000e+00
 0.00000000e+00 0.00000000e+00 0.00000000e+00 0.00000000e+00
 0.00000000e+00 0.00000000e+00 0.00000000e+00 0.00000000e+00
 0.00000000e+00 0.00000000e+00 3.79582813e-08 4.97859234e-12
 0.00000000e+00 0.00000000e+00 0.00000000e+00 9.97832146e-03]","[[9.97758739e-06 4.83742348e-15 3.79582813e-11]
 [4.83742348e-15 9.97755051e-06 4.97859234e-15]
 [3.79582813e-11 4.97859234e-15 9.97832146e-06]]",[ 1.53850315e-12  7.55682470e-17 -8.26636205e-04],0.0,0.0
1786955633.2450483,-1.6348478274183582e-12,-8.85059175791253e-17,0.000860758313717902,"[9.97738865e-03 5.13694930e-12 0.00000000e+00 0.00000000e+00
 0.00000000e+00 3.83257272e-08 5.13694930e-12 9.97735141e-03
 0.00000000e+00 0.00000000e+00 0.00000000e+00 5.28685905e-12
 0.00000000e+00 0.00000000e+00 0.00000000e+00 0.00000000e+00
 0.00000000e+00 0.00000000e+00 0.00000000e+00 0.00000000e+00
 0.00000000e+00 0.00000000e+00 0.00000000e+00 0.00000000e+00
 0.00000000e+00 0.00000000e+00 0.00000000e+00 0.00000000e+00
 0.00000000e+00 0.00000000e+00 3.83257272e-08 5.28685905e-12
 0.00000000e+00 0.00000000e+00 0.00000000e+00 9.97812982e-03]","[[9.97738865e-06 5.13694930e-15 3.83257272e-11]
 [5.13694930e-15 9.97735141e-06 5.28685905e-15]
 [3.83257272e-11 5.28685905e-15 9.97812982e-06]]",[ 1.60187429e-12  8.39560020e-17 -8.60766903e-04],0.0,0.0
1786955633.2954998,-1.7312430000727274e-12,-1.0224374940742895e-16,0.0008052390592045988,"[9.97709040e-03 5.46503629e-12 0.00000000e+00 0.00000000e+00
 0.00000000e+00 3.87205694e-08 5.46503629e-12 9.97705278e-03
 0.00000000e+00 0.00000000e+00 0.00000000e+00 5.62452042e-12
 0.00000000e+00 0.00000000e+00 0.00000000e+00 0.00000000e+00
 0.00000000e+00 0.00000000e+00 0.00000000e+00 0.00000000e+00
 0.00000000e+00 0.00000000e+00 0.00000000e+00 0.00000000e+00
 0.00000000e+00 0.00000000e+00 0.00000000e+00 0.00000000e+00
 0.00000000e+00 0.00000000e+00 3.87205694e-08 5.62452042e-12
 0.00000000e+00 0.00000000e+00 0.00000000e+00 9.97783921e-03]","[[9.97709040e-06 5.46503629e-15 3.87205694e-11]
 [5.46503629e-15 9.97705278e-06 5.62452042e-15]
 [3.87205694e-11 5.62452042e-15 9.97783921e-06]]",[ 1.70008034e-12  9.77155956e-17 -8.05247094e-04],0.0,0.0
1786955633.34435,-1.790148489522715e-12,-1.1103396869098857e-16,0.0007478280258794712,"[9.97689163e-03 5.70567897e-12 0.00000000e+00 0.00000000e+00
 0.00000000e+00 3.90347346e-08 5.70567897e-12 9.97685370e-03
 0.00000000e+00 0.00000000e+00 0.00000000e+00 5.87218563e-12
 0.00000000e+00 0.00000000e+00 0.00000000e+00 0.00000000e+00
 0.00000000e+00 0.00000000e+00 0.00000000e+00 0.00000000e+00
 0.00000000e+00 0.00000000e+00 0.00000000e+00 0.00000000e+00
 0.00000000e+00 0.00000000e+00 0.00000000e+00 0.00000000e+00
 0.00000000e+00 0.00000000e+00 3.90347346e-08 5.87218563e-12
 0.00000000e+00 0.00000000e+00 0.00000000e+00 9.97764651e-03]","[[9.97689163e-06 5.70567897e-15 3.90347346e-11]
 [5.70567897e-15 9.97685370e-06 5.87218563e-15]
 [3.90347346e-11 5.87218563e-15 9.97764651e-06]]",[ 1.76097450e-12  1.06643604e-16 -7.47835488e-04],0.0,0.0
1786955633.394499,-1.876090442515071e-12,-1.2435263004863358e-16,0.0007414963973171317,"[9.97659346e-03 6.02316786e-12 0.00000000e+00 0.00000000e+00
 0.00000000e+00 3.94798376e-08 6.02316786e-12 9.97655510e-03
 0.00000000e+00 0.00000000e+00 0.00000000e+00 6.19893959e-12
 0.00000000e+00 0.00000000e+00 0.00000000e+00 0.00000000e+00
 0.00000000e+00 0.00000000e+00 0.00000000e+00 0.00000000e+00
 0.00000000e+00 0.00000000e+00 0.00000000e+00 0.00000000e+00
 0.00000000e+00 0.00000000e+00 0.00000000e+00 0.00000000e+00
 0.00000000e+00 0.00000000e+00 3.94798376e-08 6.19893959e-12
 0.00000000e+00 0.00000000e+00 0.00000000e+00 9.97735695e-03]","[[9.97659346e-06 6.02316786e-15 3.94798376e-11]
 [6.02316786e-15 9.97655510e-06 6.19893959e-15]
 [3.94798376e-11 6.19893959e-15 9.97735695e-06]]",[ 1.84683442e-12  1.19757288e-16 -7.41503796e-04],0.0,0.0
1786955633.4452868,-1.938312198933313e-12,-1.3434289561113227e-16,0.0007980784854706435,"[9.97639470e-03 6.25026319e-12 0.00000000e+00 0.00000000e+00
 0.00000000e+00 3.97878730e-08 6.25026319e-12 9.97635604e-03
 0.00000000e+00 0.00000000e+00 0.00000000e+00 6.43266209e-12
 0.00000000e+00 0.00000000e+00 0.00000000e+00 0.00000000e+00
 0.00000000e+00 0.00000000e+00 0.00000000e+00 0.00000000e+00
 0.00000000e+00 0.00000000e+00 0.00000000e+00 0.00000000e+00
 0.00000000e+00 0.00000000e+00 0.00000000e+00 0.00000000e+00
 0.00000000e+00 0.00000000e+00 3.97878730e-08 6.43266209e-12
 0.00000000e+00 0.00000000e+00 0.00000000e+00 9.97716415e-03]","[[9.97639470e-06 6.25026319e-15 3.97878730e-11]
 [6.25026319e-15 9.97635604e-06 6.43266209e-15]
 [3.97878730e-11 6.43266209e-15 9.97716415e-06]]",[ 1.90657706e-12  1.29210364e-16 -7.98086448e-04],0.0,0.0
1786955633.4957514,-2.036424656101601e-12,-1.507371107830136e-16,0.000814644352745475,"[9.97609659e-03 6.63216493e-12 0.00000000e+00 0.00000000e+00
 0.00000000e+00 4.02716379e-08 6.63216493e-12 9.97605746e-03
 0.00000000e+00 0.00000000e+00 0.00000000e+00 6.82570865e-12
 0.00000000e+00 0.00000000e+00 0.00000000e+00 0.00000000e+00
 0.00000000e+00 0.00000000e+00 0.00000000e+00 0.00000000e+00
 0.00000000e+00 0.00000000e+00 0.00000000e+00 0.00000000e+00
 0.00000000e+00 0.00000000e+00 0.00000000e+00 0.00000000e+00
 0.00000000e+00 0.00000000e+00 4.02716379e-08 6.82570865e-12
 0.00000000e+00 0.00000000e+00 0.00000000e+00 9.97687540e-03]","[[9.97609659e-06 6.63216493e-15 4.02716379e-11]
 [6.63216493e-15 9.97605746e-06 6.82570865e-15]
 [4.02716379e-11 6.82570865e-15 9.97687540e-06]]",[ 2.00363725e-12  1.45177979e-16 -8.14652480e-04],0.0,0.0
1786955633.5469742,-2.1012774377272613e-12,-1.6195334726579424e-16,0.0007968935585243032,"[9.97589783e-03 6.86133195e-12 0.00000000e+00 0.00000000e+00
 0.00000000e+00 4.05615135e-08 6.86133195e-12 9.97585842e-03
 0.00000000e+00 0.00000000e+00 0.00000000e+00 7.06156330e-12
 0.00000000e+00 0.00000000e+00 0.00000000e+00 0.00000000e+00
 0.00000000e+00 0.00000000e+00 0.00000000e+00 0.00000000e+00
 0.00000000e+00 0.00000000e+00 0.00000000e+00 0.00000000e+00
 0.00000000e+00 0.00000000e+00 0.00000000e+00 0.00000000e+00
 0.00000000e+00 0.00000000e+00 4.05615135e-08 7.06156330e-12
 0.00000000e+00 0.00000000e+00 0.00000000e+00 9.97668224e-03]","[[9.97589783e-06 6.86133195e-15 4.05615135e-11]
 [6.86133195e-15 9.97585842e-06 7.06156330e-15]
 [4.05615135e-11 7.06156330e-15 9.97668224e-06]]",[ 2.06897455e-12  1.56327536e-16 -7.96901509e-04],0.0,0.0
1786955633.5948691,-2.218412312300441e-12,-1.831185096773523e-16,0.0010027214897512238,"[9.97559980e-03 7.30403418e-12 0.00000000e+00 0.00000000e+00
 0.00000000e+00 4.10880401e-08 7.30403418e-12 9.97555988e-03
 0.00000000e+00 0.00000000e+00 0.00000000e+00 7.51718467e-12
 0.00000000e+00 0.00000000e+00 0.00000000e+00 0.00000000e+00
 0.00000000e+00 0.00000000e+00 0.00000000e+00 0.00000000e+00
 0.00000000e+00 0.00000000e+00 0.00000000e+00 0.00000000e+00
 0.00000000e+00 0.00000000e+00 0.00000000e+00 0.00000000e+00
 0.00000000e+00 0.00000000e+00 4.10880401e-08 7.51718467e-12
 0.00000000e+00 0.00000000e+00 0.00000000e+00 9.97639439e-03]","[[9.97559980e-06 7.30403418e-15 4.10880401e-11]
 [7.30403418e-15 9.97555988e-06 7.51718467e-15]
 [4.10880401e-11 7.51718467e-15 9.97639439e-06]]",[ 2.17723376e-12  1.75582543e-16 -1.00273149e-03],0.0,0.0
1786955633.6451333,-2.303959748785728e-12,-1.9916496717055685e-16,0.001038486611525169,"[9.97540107e-03 7.60286587e-12 0.00000000e+00 0.00000000e+00
 0.00000000e+00 4.13888346e-08 7.60286587e-12 9.97536086e-03
 0.00000000e+00 0.00000000e+00 0.00000000e+00 7.82473704e-12
 0.00000000e+00 0.00000000e+00 0.00000000e+00 0.00000000e+00
 0.00000000e+00 0.00000000e+00 0.00000000e+00 0.00000000e+00
 0.00000000e+00 0.00000000e+00 0.00000000e+00 0.00000000e+00
 0.00000000e+00 0.00000000e+00 0.00000000e+00 0.00000000e+00
 0.00000000e+00 0.00000000e+00 4.13888346e-08 7.82473704e-12
 0.00000000e+00 0.00000000e+00 0.00000000e+00 9.97620148e-03]","[[9.97540107e-06 7.60286587e-15 4.13888346e-11]
 [7.60286587e-15 9.97536086e-06 7.82473704e-15]
 [4.13888346e-11 7.82473704e-15 9.97620148e-06]]",[ 2.26100012e-12  1.91040907e-16 -1.03849697e-03],0.0,0.0
1786955633.6942656,-2.434366270986147e-12,-2.247331650437768e-16,0.001032461002187457,"[9.97510301e-03 8.07960735e-12 0.00000000e+00 0.00000000e+00
 0.00000000e+00 4.18570984e-08 8.07960735e-12 9.97506234e-03
 0.00000000e+00 0.00000000e+00 0.00000000e+00 8.31539109e-12
 0.00000000e+00 0.00000000e+00 0.00000000e+00 0.00000000e+00
 0.00000000e+00 0.00000000e+00 0.00000000e+00 0.00000000e+00
 0.00000000e+00 0.00000000e+00 0.00000000e+00 0.00000000e+00
 0.00000000e+00 0.00000000e+00 0.00000000e+00 0.00000000e+00
 0.00000000e+00 0.00000000e+00 4.18570984e-08 8.31539109e-12
 0.00000000e+00 0.00000000e+00 0.00000000e+00 9.97591248e-03]","[[9.97510301e-06 8.07960735e-15 4.18570984e-11]
 [8.07960735e-15 9.97506234e-06 8.31539109e-15]
 [4.18570984e-11 8.31539109e-15 9.97591248e-06]]",[ 2.39117387e-12  2.16149919e-16 -1.03247130e-03],0.0,0.0
1786955633.7454083,-2.5184455545369414e-12,-2.4185475883953044e-16,0.0009889923456936067,"[9.97490432e-03 8.39740250e-12 0.00000000e+00 0.00000000e+00
 0.00000000e+00 4.21756999e-08 8.39740250e-12 9.97486334e-03
 0.00000000e+00 0.00000000e+00 0.00000000e+00 8.64246033e-12
 0.00000000e+00 0.00000000e+00 0.00000000e+00 0.00000000e+00
 0.00000000e+00 0.00000000e+00 0.00000000e+00 0.00000000e+00
 0.00000000e+00 0.00000000e+00 0.00000000e+00 0.00000000e+00
 0.00000000e+00 0.00000000e+00 0.00000000e+00 0.00000000e+00
 0.00000000e+00 0.00000000e+00 4.21756999e-08 8.64246033e-12
 0.00000000e+00 0.00000000e+00 0.00000000e+00 9.97571995e-03]","[[9.97490432e-06 8.39740250e-15 4.21756999e-11]
 [8.39740250e-15 9.97486334e-06 8.64246033e-15]
 [4.21756999e-11 8.64246033e-15 9.97571995e-06]]",[ 2.47675840e-12  2.33309674e-16 -9.89002212e-04],0.0,0.0
1786955633.7949457,-2.640642099724355e-12,-2.6756702319816973e-16,0.0009628156010239586,"[9.97460628e-03 8.82344762e-12 0.00000000e+00 0.00000000e+00
 0.00000000e+00 4.26266964e-08 8.82344762e-12 9.97456486e-03
 0.00000000e+00 0.00000000e+00 0.00000000e+00 9.08093852e-12
 0.00000000e+00 0.00000000e+00 0.00000000e+00 0.00000000e+00
 0.00000000e+00 0.00000000e+00 0.00000000e+00 0.00000000e+00
 0.00000000e+00 0.00000000e+00 0.00000000e+00 0.00000000e+00
 0.00000000e+00 0.00000000e+00 0.00000000e+00 0.00000000e+00
 0.00000000e+00 0.00000000e+00 4.26266964e-08 9.08093852e-12
 0.00000000e+00 0.00000000e+00 0.00000000e+00 9.97543063e-03]","[[9.97460628e-06 8.82344762e-15 4.26266964e-11]
 [8.82344762e-15 9.97456486e-06 9.08093852e-15]
 [4.26266964e-11 9.08093852e-15 9.97543063e-06]]",[ 2.59962597e-12  2.58826248e-16 -9.62825206e-04],0.0,0.0
1786955633.8443625,-2.725152594510147e-12,-2.859543306221696e-16,0.0009945535113904391,"[9.97440764e-03 9.15643437e-12 0.00000000e+00 0.00000000e+00
 0.00000000e+00 4.29782274e-08 9.15643437e-12 9.97436588e-03
 0.00000000e+00 0.00000000e+00 0.00000000e+00 9.42364268e-12
 0.00000000e+00 0.00000000e+00 0.00000000e+00 0.00000000e+00
 0.00000000e+00 0.00000000e+00 0.00000000e+00 0.00000000e+00
 0.00000000e+00 0.00000000e+00 0.00000000e+00 0.00000000e+00
 0.00000000e+00 0.00000000e+00 0.00000000e+00 0.00000000e+00
 0.00000000e+00 0.00000000e+00 4.29782274e-08 9.42364268e-12
 0.00000000e+00 0.00000000e+00 0.00000000e+00 9.97523879e-03]","[[9.97440764e-06 9.15643437e-15 4.29782274e-11]
 [9.15643437e-15 9.97436588e-06 9.42364268e-15]
 [4.29782274e-11 9.42364268e-15 9.97523879e-06]]",[ 2.68243478e-12  2.76584679e-16 -9.94563432e-04],0.0,0.0
1786955633.8952177,-2.8551785848657023e-12,-3.151316248026866e-16,0.0009919929647437264,"[9.97410960e-03 9.57764424e-12 0.00000000e+00 0.00000000e+00
 0.00000000e+00 4.34080204e-08 9.57764424e-12 9.97406742e-03
 0.00000000e+00 0.00000000e+00 0.00000000e+00 9.85714452e-12
 0.00000000e+00 0.00000000e+00 0.00000000e+00 0.00000000e+00
 0.00000000e+00 0.00000000e+00 0.00000000e+00 0.00000000e+00
 0.00000000e+00 0.00000000e+00 0.00000000e+00 0.00000000e+00
 0.00000000e+00 0.00000000e+00 0.00000000e+00 0.00000000e+00
 0.00000000e+00 0.00000000e+00 4.34080204e-08 9.85714452e-12
 0.00000000e+00 0.00000000e+00 0.00000000e+00 9.97494906e-03]","[[9.97410960e-06 9.57764424e-15 4.34080204e-11]
 [9.57764424e-15 9.97406742e-06 9.85714452e-15]
 [4.34080204e-11 9.85714452e-15 9.97494906e-06]]",[ 2.81214575e-12  3.05356355e-16 -9.92002860e-04],0.0,0.0
1786955633.9446526,-2.9391232382450336e-12,-3.3454039232104117e-16,0.0009534996439275468,"[9.97391093e-03 9.86101537e-12 0.00000000e+00 0.00000000e+00
 0.00000000e+00 4.37033333e-08 9.86101537e-12 9.97386846e-03
 0.00000000e+00 0.00000000e+00 0.00000000e+00 1.01487851e-11
 0.00000000e+00 0.00000000e+00 0.00000000e+00 0.00000000e+00
 0.00000000e+00 0.00000000e+00 0.00000000e+00 0.00000000e+00
 0.00000000e+00 0.00000000e+00 0.00000000e+00 0.00000000e+00
 0.00000000e+00 0.00000000e+00 0.00000000e+00 0.00000000e+00
 0.00000000e+00 0.00000000e+00 4.37033333e-08 1.01487851e-11
 0.00000000e+00 0.00000000e+00 0.00000000e+00 9.97475610e-03]","[[9.97391093e-06 9.86101537e-15 4.37033333e-11]
 [9.86101537e-15 9.97386846e-06 1.01487851e-14]
 [4.37033333e-11 1.01487851e-14 9.97475610e-06]]",[ 2.89748061e-12  3.24866673e-16 -9.53509155e-04],0.0,0.0
1786955633.9942756,-3.0693777188575727e-12,-3.6549706038672876e-16,0.0010017298444786604,"[9.97361297e-03 1.03122777e-11 0.00000000e+00 0.00000000e+00
 0.00000000e+00 4.41798103e-08 1.03122777e-11 9.97357004e-03
 0.00000000e+00 0.00000000e+00 0.00000000e+00 1.06132165e-11
 0.00000000e+00 0.00000000e+00 0.00000000e+00 0.00000000e+00
 0.00000000e+00 0.00000000e+00 0.00000000e+00 0.00000000e+00
 0.00000000e+00 0.00000000e+00 0.00000000e+00 0.00000000e+00
 0.00000000e+00 0.00000000e+00 0.00000000e+00 0.00000000e+00
 0.00000000e+00 0.00000000e+00 4.41798103e-08 1.06132165e-11
 0.00000000e+00 0.00000000e+00 0.00000000e+00 9.97446735e-03]","[[9.97361297e-06 1.03122777e-14 4.41798103e-11]
 [1.03122777e-14 9.97357004e-06 1.06132165e-14]
 [4.41798103e-11 1.06132165e-14 9.97446735e-06]]",[ 3.02515121e-12  3.54868918e-16 -1.00173984e-03],0.0,0.0
1786955634.044289,-3.1624400144640402e-12,-3.882555670609466e-16,0.001081522179923411,"[9.97341436e-03 1.06489720e-11 0.00000000e+00 0.00000000e+00
 0.00000000e+00 4.45217669e-08 1.06489720e-11 9.97337110e-03
 0.00000000e+00 0.00000000e+00 0.00000000e+00 1.09597364e-11
 0.00000000e+00 0.00000000e+00 0.00000000e+00 0.00000000e+00
 0.00000000e+00 0.00000000e+00 0.00000000e+00 0.00000000e+00
 0.00000000e+00 0.00000000e+00 0.00000000e+00 0.00000000e+00
 0.00000000e+00 0.00000000e+00 0.00000000e+00 0.00000000e+00
 0.00000000e+00 0.00000000e+00 4.45217669e-08 1.09597364e-11
 0.00000000e+00 0.00000000e+00 0.00000000e+00 9.97427536e-03]","[[9.97341436e-06 1.06489720e-14 4.45217669e-11]
 [1.06489720e-14 9.97337110e-06 1.09597364e-14]
 [4.45217669e-11 1.09597364e-14 9.97427536e-06]]",[ 3.11431932e-12  3.76406005e-16 -1.08153297e-03],0.0,0.0
1786955634.0958724,-3.319740708913837e-12,-4.2785501790375447e-16,0.0011888537512589896,"[9.97311639e-03 1.11395482e-11 0.00000000e+00 0.00000000e+00
 0.00000000e+00 4.49620534e-08 1.11395482e-11 9.97307270e-03
 0.00000000e+00 0.00000000e+00 0.00000000e+00 1.14646289e-11
 0.00000000e+00 0.00000000e+00 0.00000000e+00 0.00000000e+00
 0.00000000e+00 0.00000000e+00 0.00000000e+00 0.00000000e+00
 0.00000000e+00 0.00000000e+00 0.00000000e+00 0.00000000e+00
 0.00000000e+00 0.00000000e+00 0.00000000e+00 0.00000000e+00
 0.00000000e+00 0.00000000e+00 4.49620534e-08 1.14646289e-11
 0.00000000e+00 0.00000000e+00 0.00000000e+00 9.97398590e-03]","[[9.97311639e-06 1.11395482e-14 4.49620534e-11]
 [1.11395482e-14 9.97307270e-06 1.14646289e-14]
 [4.49620534e-11 1.14646289e-14 9.97398590e-06]]",[ 3.26631945e-12  4.14229246e-16 -1.18886561e-03],0.0,0.0
1786955634.1444077,-3.4269562798974545e-12,-4.55668206692763e-16,0.0011870184971822795,"[9.97291775e-03 1.14733357e-11 0.00000000e+00 0.00000000e+00
 0.00000000e+00 4.52497184e-08 1.14733357e-11 9.97287378e-03
 0.00000000e+00 0.00000000e+00 0.00000000e+00 1.18081573e-11
 0.00000000e+00 0.00000000e+00 0.00000000e+00 0.00000000e+00
 0.00000000e+00 0.00000000e+00 0.00000000e+00 0.00000000e+00
 0.00000000e+00 0.00000000e+00 0.00000000e+00 0.00000000e+00
 0.00000000e+00 0.00000000e+00 0.00000000e+00 0.00000000e+00
 0.00000000e+00 0.00000000e+00 4.52497184e-08 1.18081573e-11
 0.00000000e+00 0.00000000e+00 0.00000000e+00 9.97379282e-03]","[[9.97291775e-06 1.14733357e-14 4.52497184e-11]
 [1.14733357e-14 9.97287378e-06 1.18081573e-14]
 [4.52497184e-11 1.18081573e-14 9.97379282e-06]]",[ 3.37327713e-12  4.41655970e-16 -1.18703034e-03],0.0,0.0
1786955634.1943903,-3.5817759437602614e-12,-4.97051396875644e-16,0.0011233818438602938,"[9.97261983e-03 1.19947287e-11 0.00000000e+00 0.00000000e+00
 0.00000000e+00 4.57118526e-08 1.19947287e-11 9.97257542e-03
 0.00000000e+00 0.00000000e+00 0.00000000e+00 1.23447659e-11
 0.00000000e+00 0.00000000e+00 0.00000000e+00 0.00000000e+00
 0.00000000e+00 0.00000000e+00 0.00000000e+00 0.00000000e+00
 0.00000000e+00 0.00000000e+00 0.00000000e+00 0.00000000e+00
 0.00000000e+00 0.00000000e+00 0.00000000e+00 0.00000000e+00
 0.00000000e+00 0.00000000e+00 4.57118526e-08 1.23447659e-11
 0.00000000e+00 0.00000000e+00 0.00000000e+00 9.97350385e-03]","[[9.97261983e-06 1.19947287e-14 4.57118526e-11]
 [1.19947287e-14 9.97257542e-06 1.23447659e-14]
 [4.57118526e-11 1.23447659e-14 9.97350385e-06]]",[ 3.53045877e-12  4.83188191e-16 -1.12339305e-03],0.0,0.0
1786955634.2449791,-3.681248680828477e-12,-5.24339342110331e-16,0.0010438498269365049,"[9.97242123e-03 1.23256729e-11 0.00000000e+00 0.00000000e+00
 0.00000000e+00 4.60136855e-08 1.23256729e-11 9.97237652e-03
 0.00000000e+00 0.00000000e+00 0.00000000e+00 1.26853680e-11
 0.00000000e+00 0.00000000e+00 0.00000000e+00 0.00000000e+00
 0.00000000e+00 0.00000000e+00 0.00000000e+00 0.00000000e+00
 0.00000000e+00 0.00000000e+00 0.00000000e+00 0.00000000e+00
 0.00000000e+00 0.00000000e+00 0.00000000e+00 0.00000000e+00
 0.00000000e+00 0.00000000e+00 4.60136855e-08 1.26853680e-11
 0.00000000e+00 0.00000000e+00 0.00000000e+00 9.97331108e-03]","[[9.97242123e-06 1.23256729e-14 4.60136855e-11]
 [1.23256729e-14 9.97237652e-06 1.26853680e-14]
 [4.60136855e-11 1.26853680e-14 9.97331108e-06]]",[ 3.63325306e-12  5.11102688e-16 -1.04386024e-03],0.0,0.0
1786955634.2965405,-3.806576194587646e-12,-5.595457955521714e-16,0.0008753202298805718,"[9.97212335e-03 1.27714761e-11 0.00000000e+00 0.00000000e+00
 0.00000000e+00 4.64853531e-08 1.27714761e-11 9.97207818e-03
 0.00000000e+00 0.00000000e+00 0.00000000e+00 1.31441808e-11
 0.00000000e+00 0.00000000e+00 0.00000000e+00 0.00000000e+00
 0.00000000e+00 0.00000000e+00 0.00000000e+00 0.00000000e+00
 0.00000000e+00 0.00000000e+00 0.00000000e+00 0.00000000e+00
 0.00000000e+00 0.00000000e+00 0.00000000e+00 0.00000000e+00
 0.00000000e+00 0.00000000e+00 4.64853531e-08 1.31441808e-11
 0.00000000e+00 0.00000000e+00 0.00000000e+00 9.97302232e-03]","[[9.97212335e-06 1.27714761e-14 4.64853531e-11]
 [1.27714761e-14 9.97207818e-06 1.31441808e-14]
 [4.64853531e-11 1.31441808e-14 9.97302232e-06]]",[ 3.76592377e-12  5.48045779e-16 -8.75328960e-04],0.0,0.0
1786955634.3459387,-3.8896361989448445e-12,-5.832840078236792e-16,0.000900183977482705,"[9.97192476e-03 1.30286735e-11 0.00000000e+00 0.00000000e+00
 0.00000000e+00 4.67857896e-08 1.30286735e-11 9.97187930e-03
 0.00000000e+00 0.00000000e+00 0.00000000e+00 1.34088839e-11
 0.00000000e+00 0.00000000e+00 0.00000000e+00 0.00000000e+00
 0.00000000e+00 0.00000000e+00 0.00000000e+00 0.00000000e+00
 0.00000000e+00 0.00000000e+00 0.00000000e+00 0.00000000e+00
 0.00000000e+00 0.00000000e+00 0.00000000e+00 0.00000000e+00
 0.00000000e+00 0.00000000e+00 4.67857896e-08 1.34088839e-11
 0.00000000e+00 0.00000000e+00 0.00000000e+00 9.97282954e-03]","[[9.97192476e-06 1.30286735e-14 4.67857896e-11]
 [1.30286735e-14 9.97187930e-06 1.34088839e-14]
 [4.67857896e-11 1.34088839e-14 9.97282954e-06]]",[ 3.84755833e-12  5.71219121e-16 -9.00192955e-04],0.0,0.0
1786955634.3949943,-4.021603505787671e-12,-6.217069180422153e-16,0.0009362525779823551,"[9.97162692e-03 1.34555293e-11 0.00000000e+00 0.00000000e+00
 0.00000000e+00 4.72611068e-08 1.34555293e-11 9.97158099e-03
 0.00000000e+00 0.00000000e+00 0.00000000e+00 1.38481964e-11
 0.00000000e+00 0.00000000e+00 0.00000000e+00 0.00000000e+00
 0.00000000e+00 0.00000000e+00 0.00000000e+00 0.00000000e+00
 0.00000000e+00 0.00000000e+00 0.00000000e+00 0.00000000e+00
 0.00000000e+00 0.00000000e+00 0.00000000e+00 0.00000000e+00
 0.00000000e+00 0.00000000e+00 4.72611068e-08 1.38481964e-11
 0.00000000e+00 0.00000000e+00 0.00000000e+00 9.97254089e-03]","[[9.97162692e-06 1.34555293e-14 4.72611068e-11]
 [1.34555293e-14 9.97158099e-06 1.38481964e-14]
 [4.72611068e-11 1.38481964e-14 9.97254089e-06]]",[ 3.97739439e-12  6.08747449e-16 -9.36261915e-04],0.0,0.0
1786955634.4455,-4.109374126572959e-12,-6.476970731813879e-16,0.0009213247548389703,"[9.97142834e-03 1.37250283e-11 0.00000000e+00 0.00000000e+00
 0.00000000e+00 4.75572717e-08 1.37250283e-11 9.97138213e-03
 0.00000000e+00 0.00000000e+00 0.00000000e+00 1.41255600e-11
 0.00000000e+00 0.00000000e+00 0.00000000e+00 0.00000000e+00
 0.00000000e+00 0.00000000e+00 0.00000000e+00 0.00000000e+00
 0.00000000e+00 0.00000000e+00 0.00000000e+00 0.00000000e+00
 0.00000000e+00 0.00000000e+00 0.00000000e+00 0.00000000e+00
 0.00000000e+00 0.00000000e+00 4.75572717e-08 1.41255600e-11
 0.00000000e+00 0.00000000e+00 0.00000000e+00 9.97234804e-03]","[[9.97142834e-06 1.37250283e-14 4.75572717e-11]
 [1.37250283e-14 9.97138213e-06 1.41255600e-14]
 [4.75572717e-11 1.41255600e-14 9.97234804e-06]]",[ 4.06559854e-12  6.34689044e-16 -9.21333943e-04],0.0,0.0
1786955634.495662,-4.24747356491294e-12,-6.893385645983028e-16,0.0009709034805842621,"[9.97113056e-03 1.41957845e-11 0.00000000e+00 0.00000000e+00
 0.00000000e+00 4.80663904e-08 1.41957845e-11 9.97108386e-03
 0.00000000e+00 0.00000000e+00 0.00000000e+00 1.46100540e-11
 0.00000000e+00 0.00000000e+00 0.00000000e+00 0.00000000e+00
 0.00000000e+00 0.00000000e+00 0.00000000e+00 0.00000000e+00
 0.00000000e+00 0.00000000e+00 0.00000000e+00 0.00000000e+00
 0.00000000e+00 0.00000000e+00 0.00000000e+00 0.00000000e+00
 0.00000000e+00 0.00000000e+00 4.80663904e-08 1.46100540e-11
 0.00000000e+00 0.00000000e+00 0.00000000e+00 9.97206011e-03]","[[9.97113056e-06 1.41957845e-14 4.80663904e-11]
 [1.41957845e-14 9.97108386e-06 1.46100540e-14]
 [4.80663904e-11 1.46100540e-14 9.97206011e-06]]",[ 4.20084716e-12  6.75160203e-16 -9.70913163e-04],0.0,0.0
1786955634.5445924,-4.341239346925729e-12,-7.1812494030249465e-16,0.0009724095794592102,"[9.97093200e-03 1.44691025e-11 0.00000000e+00 0.00000000e+00
 0.00000000e+00 4.83546803e-08 1.44691025e-11 9.97088502e-03
 0.00000000e+00 0.00000000e+00 0.00000000e+00 1.48913481e-11
 0.00000000e+00 0.00000000e+00 0.00000000e+00 0.00000000e+00
 0.00000000e+00 0.00000000e+00 0.00000000e+00 0.00000000e+00
 0.00000000e+00 0.00000000e+00 0.00000000e+00 0.00000000e+00
 0.00000000e+00 0.00000000e+00 0.00000000e+00 0.00000000e+00
 0.00000000e+00 0.00000000e+00 4.83546803e-08 1.48913481e-11
 0.00000000e+00 0.00000000e+00 0.00000000e+00 9.97186712e-03]","[[9.97093200e-06 1.44691025e-14 4.83546803e-11]
 [1.44691025e-14 9.97088502e-06 1.48913481e-14]
 [4.83546803e-11 1.48913481e-14 9.97186712e-06]]",[ 4.29426114e-12  7.03651322e-16 -9.72419276e-04],0.0,0.0
1786955634.5969722,-4.4779886177580555e-12,-7.607722655595687e-16,0.0009348597676694939,"[9.97063417e-03 1.48702883e-11 0.00000000e+00 0.00000000e+00
 0.00000000e+00 4.87875631e-08 1.48702883e-11 9.97058677e-03
 0.00000000e+00 0.00000000e+00 0.00000000e+00 1.53042416e-11
 0.00000000e+00 0.00000000e+00 0.00000000e+00 0.00000000e+00
 0.00000000e+00 0.00000000e+00 0.00000000e+00 0.00000000e+00
 0.00000000e+00 0.00000000e+00 0.00000000e+00 0.00000000e+00
 0.00000000e+00 0.00000000e+00 0.00000000e+00 0.00000000e+00
 0.00000000e+00 0.00000000e+00 4.87875631e-08 1.53042416e-11
 0.00000000e+00 0.00000000e+00 0.00000000e+00 9.97157767e-03]","[[9.97063417e-06 1.48702883e-14 4.87875631e-11]
 [1.48702883e-14 9.97058677e-06 1.53042416e-14]
 [4.87875631e-11 1.53042416e-14 9.97157767e-06]]",[ 4.43242283e-12  7.46472246e-16 -9.34869090e-04],0.0,0.0
1786955634.6442964,-4.568797585633217e-12,-7.895624368969392e-16,0.0009119974487834527,"[9.97043568e-03 1.51785550e-11 0.00000000e+00 0.00000000e+00
 0.00000000e+00 4.91244065e-08 1.51785550e-11 9.97038795e-03
 0.00000000e+00 0.00000000e+00 0.00000000e+00 1.56215042e-11
 0.00000000e+00 0.00000000e+00 0.00000000e+00 0.00000000e+00
 0.00000000e+00 0.00000000e+00 0.00000000e+00 0.00000000e+00
 0.00000000e+00 0.00000000e+00 0.00000000e+00 0.00000000e+00
 0.00000000e+00 0.00000000e+00 0.00000000e+00 0.00000000e+00
 0.00000000e+00 0.00000000e+00 4.91244065e-08 1.56215042e-11
 0.00000000e+00 0.00000000e+00 0.00000000e+00 9.97138569e-03]","[[9.97043568e-06 1.51785550e-14 4.91244065e-11]
 [1.51785550e-14 9.97038795e-06 1.56215042e-14]
 [4.91244065e-11 1.56215042e-14 9.97138569e-06]]",[ 4.52404091e-12  7.75323253e-16 -9.12006543e-04],0.0,0.0
1786955634.6956344,-4.694724401310409e-12,-8.300417836515463e-16,0.0008087170964876655,"[9.97013788e-03 1.55505757e-11 0.00000000e+00 0.00000000e+00
 0.00000000e+00 4.95554043e-08 1.55505757e-11 9.97008973e-03
 0.00000000e+00 0.00000000e+00 0.00000000e+00 1.60043813e-11
 0.00000000e+00 0.00000000e+00 0.00000000e+00 0.00000000e+00
 0.00000000e+00 0.00000000e+00 0.00000000e+00 0.00000000e+00
 0.00000000e+00 0.00000000e+00 0.00000000e+00 0.00000000e+00
 0.00000000e+00 0.00000000e+00 0.00000000e+00 0.00000000e+00
 0.00000000e+00 0.00000000e+00 4.95554043e-08 1.60043813e-11
 0.00000000e+00 0.00000000e+00 0.00000000e+00 9.97109622e-03]","[[9.97013788e-06 1.55505757e-14 4.95554043e-11]
 [1.55505757e-14 9.97008973e-06 1.60043813e-14]
 [4.95554043e-11 1.60043813e-14 9.97109622e-06]]",[ 4.65469411e-12  8.17106785e-16 -8.08725160e-04],0.0,0.0
1786955634.7448788,-4.7676340498711895e-12,-8.537622953699664e-16,0.0007081898655272312,"[9.96993938e-03 1.57875304e-11 0.00000000e+00 0.00000000e+00
 0.00000000e+00 4.98654015e-08 1.57875304e-11 9.96989093e-03
 0.00000000e+00 0.00000000e+00 0.00000000e+00 1.62482510e-11
 0.00000000e+00 0.00000000e+00 0.00000000e+00 0.00000000e+00
 0.00000000e+00 0.00000000e+00 0.00000000e+00 0.00000000e+00
 0.00000000e+00 0.00000000e+00 0.00000000e+00 0.00000000e+00
 0.00000000e+00 0.00000000e+00 0.00000000e+00 0.00000000e+00
 0.00000000e+00 0.00000000e+00 4.98654015e-08 1.62482510e-11
 0.00000000e+00 0.00000000e+00 0.00000000e+00 9.97090372e-03]","[[9.96993938e-06 1.57875304e-14 4.98654015e-11]
 [1.57875304e-14 9.96989093e-06 1.62482510e-14]
 [4.98654015e-11 1.62482510e-14 9.97090372e-06]]",[ 4.73236671e-12  8.42263731e-16 -7.08196927e-04],0.0,0.0
1786955634.7943113,-4.87689602449087e-12,-8.896473370609666e-16,0.0007343567826318954,"[9.96964164e-03 1.61097196e-11 0.00000000e+00 0.00000000e+00
 0.00000000e+00 5.03254683e-08 1.61097196e-11 9.96959274e-03
 0.00000000e+00 0.00000000e+00 0.00000000e+00 1.65798424e-11
 0.00000000e+00 0.00000000e+00 0.00000000e+00 0.00000000e+00
 0.00000000e+00 0.00000000e+00 0.00000000e+00 0.00000000e+00
 0.00000000e+00 0.00000000e+00 0.00000000e+00 0.00000000e+00
 0.00000000e+00 0.00000000e+00 0.00000000e+00 0.00000000e+00
 0.00000000e+00 0.00000000e+00 5.03254683e-08 1.65798424e-11
 0.00000000e+00 0.00000000e+00 0.00000000e+00 9.97061487e-03]","[[9.96964164e-06 1.61097196e-14 5.03254683e-11]
 [1.61097196e-14 9.96959274e-06 1.65798424e-14]
 [5.03254683e-11 1.65798424e-14 9.97061487e-06]]",[ 4.83998706e-12  8.77480444e-16 -7.34364105e-04],0.0,0.0
1786955634.844401,-4.952071951339586e-12,-9.145815163431368e-16,0.0007471053274503703,"[9.96944317e-03 1.63393421e-11 0.00000000e+00 0.00000000e+00
 0.00000000e+00 5.06448888e-08 1.63393421e-11 9.96939396e-03
 0.00000000e+00 0.00000000e+00 0.00000000e+00 1.68161657e-11
 0.00000000e+00 0.00000000e+00 0.00000000e+00 0.00000000e+00
 0.00000000e+00 0.00000000e+00 0.00000000e+00 0.00000000e+00
 0.00000000e+00 0.00000000e+00 0.00000000e+00 0.00000000e+00
 0.00000000e+00 0.00000000e+00 0.00000000e+00 0.00000000e+00
 0.00000000e+00 0.00000000e+00 5.06448888e-08 1.68161657e-11
 0.00000000e+00 0.00000000e+00 0.00000000e+00 9.97042258e-03]","[[9.96944317e-06 1.63393421e-14 5.06448888e-11]
 [1.63393421e-14 9.96939396e-06 1.68161657e-14]
 [5.06448888e-11 1.68161657e-14 9.97042258e-06]]",[ 4.91428350e-12  9.02026937e-16 -7.47112776e-04],0.0,0.0
1786955634.894389,-5.072487834451364e-12,-9.549082471454677e-16,0.0008126881248813336,"[9.96914546e-03 1.66831013e-11 0.00000000e+00 0.00000000e+00
 0.00000000e+00 5.11051538e-08 1.66831013e-11 9.96909580e-03
 0.00000000e+00 0.00000000e+00 0.00000000e+00 1.71699566e-11
 0.00000000e+00 0.00000000e+00 0.00000000e+00 0.00000000e+00
 0.00000000e+00 0.00000000e+00 0.00000000e+00 0.00000000e+00
 0.00000000e+00 0.00000000e+00 0.00000000e+00 0.00000000e+00
 0.00000000e+00 0.00000000e+00 0.00000000e+00 0.00000000e+00
 0.00000000e+00 0.00000000e+00 5.11051538e-08 1.71699566e-11
 0.00000000e+00 0.00000000e+00 0.00000000e+00 9.97013377e-03]","[[9.96914546e-06 1.66831013e-14 5.11051538e-11]
 [1.66831013e-14 9.96909580e-06 1.71699566e-14]
 [5.11051538e-11 1.71699566e-14 9.97013377e-06]]",[ 5.03100502e-12  9.40963669e-16 -8.12696228e-04],0.0,0.0
1786955634.9444356,-5.15909481846117e-12,-9.842090346110784e-16,0.0008480350509230129,"[9.96894699e-03 1.69243332e-11 0.00000000e+00 0.00000000e+00
 0.00000000e+00 5.14044108e-08 1.69243332e-11 9.96889704e-03
 0.00000000e+00 0.00000000e+00 0.00000000e+00 1.74182282e-11
 0.00000000e+00 0.00000000e+00 0.00000000e+00 0.00000000e+00
 0.00000000e+00 0.00000000e+00 0.00000000e+00 0.00000000e+00
 0.00000000e+00 0.00000000e+00 0.00000000e+00 0.00000000e+00
 0.00000000e+00 0.00000000e+00 0.00000000e+00 0.00000000e+00
 0.00000000e+00 0.00000000e+00 5.14044108e-08 1.74182282e-11
 0.00000000e+00 0.00000000e+00 0.00000000e+00 9.96994109e-03]","[[9.96894699e-06 1.69243332e-14 5.14044108e-11]
 [1.69243332e-14 9.96889704e-06 1.74182282e-14]
 [5.14044108e-11 1.74182282e-14 9.96994109e-06]]",[ 5.11555264e-12  9.69447284e-16 -8.48043506e-04],0.0,0.0
1786955634.995485,-5.292871497178791e-12,-1.0299786219842911e-15,0.0008720105381514467,"[9.96864931e-03 1.73126851e-11 0.00000000e+00 0.00000000e+00
 0.00000000e+00 5.18698738e-08 1.73126851e-11 9.96859891e-03
 0.00000000e+00 0.00000000e+00 0.00000000e+00 1.78179131e-11
 0.00000000e+00 0.00000000e+00 0.00000000e+00 0.00000000e+00
 0.00000000e+00 0.00000000e+00 0.00000000e+00 0.00000000e+00
 0.00000000e+00 0.00000000e+00 0.00000000e+00 0.00000000e+00
 0.00000000e+00 0.00000000e+00 0.00000000e+00 0.00000000e+00
 0.00000000e+00 0.00000000e+00 5.18698738e-08 1.78179131e-11
 0.00000000e+00 0.00000000e+00 0.00000000e+00 9.96965241e-03]","[[9.96864931e-06 1.73126851e-14 5.18698738e-11]
 [1.73126851e-14 9.96859891e-06 1.78179131e-14]
 [5.18698738e-11 1.78179131e-14 9.96965241e-06]]",[ 5.24769228e-12  1.01445117e-15 -8.72019232e-04],0.0,0.0
1786955635.04465,-5.382507083212679e-12,-1.0609971930010975e-15,0.0008407855031165037,"[9.96845086e-03 1.75716091e-11 0.00000000e+00 0.00000000e+00
 0.00000000e+00 5.21726250e-08 1.75716091e-11 9.96840017e-03
 0.00000000e+00 0.00000000e+00 0.00000000e+00 1.80843931e-11
 0.00000000e+00 0.00000000e+00 0.00000000e+00 0.00000000e+00
 0.00000000e+00 0.00000000e+00 0.00000000e+00 0.00000000e+00
 0.00000000e+00 0.00000000e+00 0.00000000e+00 0.00000000e+00
 0.00000000e+00 0.00000000e+00 0.00000000e+00 0.00000000e+00
 0.00000000e+00 0.00000000e+00 5.21726250e-08 1.80843931e-11
 0.00000000e+00 0.00000000e+00 0.00000000e+00 9.96945982e-03]","[[9.96845086e-06 1.75716091e-14 5.21726250e-11]
 [1.75716091e-14 9.96840017e-06 1.80843931e-14]
 [5.21726250e-11 1.80843931e-14 9.96945982e-06]]",[ 5.33869388e-12  1.04580237e-15 -8.40793885e-04],0.0,0.0
1786955635.0956657,-5.5031980117722154e-12,-1.1032028142516108e-15,0.0007530879111379285,"[9.96815323e-03 1.79425418e-11 0.00000000e+00 0.00000000e+00
 0.00000000e+00 5.26485663e-08 1.79425418e-11 9.96810207e-03
 0.00000000e+00 0.00000000e+00 0.00000000e+00 1.84661504e-11
 0.00000000e+00 0.00000000e+00 0.00000000e+00 0.00000000e+00
 0.00000000e+00 0.00000000e+00 0.00000000e+00 0.00000000e+00
 0.00000000e+00 0.00000000e+00 0.00000000e+00 0.00000000e+00
 0.00000000e+00 0.00000000e+00 0.00000000e+00 0.00000000e+00
 0.00000000e+00 0.00000000e+00 5.26485663e-08 1.84661504e-11
 0.00000000e+00 0.00000000e+00 0.00000000e+00 9.96917139e-03]","[[9.96815323e-06 1.79425418e-14 5.26485663e-11]
 [1.79425418e-14 9.96810207e-06 1.84661504e-14]
 [5.26485663e-11 1.84661504e-14 9.96917139e-06]]",[ 5.46360308e-12  1.08930690e-15 -7.53095419e-04],0.0,0.0
1786955635.1447375,-5.583203007023979e-12,-1.1314185178629963e-15,0.0007592205642739102,"[9.96795481e-03 1.81694281e-11 0.00000000e+00 0.00000000e+00
 0.00000000e+00 5.29568527e-08 1.81694281e-11 9.96790335e-03
 0.00000000e+00 0.00000000e+00 0.00000000e+00 1.86996579e-11
 0.00000000e+00 0.00000000e+00 0.00000000e+00 0.00000000e+00
 0.00000000e+00 0.00000000e+00 0.00000000e+00 0.00000000e+00
 0.00000000e+00 0.00000000e+00 0.00000000e+00 0.00000000e+00
 0.00000000e+00 0.00000000e+00 0.00000000e+00 0.00000000e+00
 0.00000000e+00 0.00000000e+00 5.29568527e-08 1.86996579e-11
 0.00000000e+00 0.00000000e+00 0.00000000e+00 9.96897893e-03]","[[9.96795481e-06 1.81694281e-14 5.29568527e-11]
 [1.81694281e-14 9.96790335e-06 1.86996579e-14]
 [5.29568527e-11 1.86996579e-14 9.96897893e-06]]",[ 5.54305193e-12  1.11723235e-15 -7.59228133e-04],0.0,0.0
1786955635.1953578,-5.676032464073334e-12,-1.1644109584987852e-15,0.0005432007471704026,"[9.96765720e-03 1.84761823e-11 0.00000000e+00 0.00000000e+00
 0.00000000e+00 5.34303918e-08 1.84761823e-11 9.96760528e-03
 0.00000000e+00 0.00000000e+00 0.00000000e+00 1.90153638e-11
 0.00000000e+00 0.00000000e+00 0.00000000e+00 0.00000000e+00
 0.00000000e+00 0.00000000e+00 0.00000000e+00 0.00000000e+00
 0.00000000e+00 0.00000000e+00 0.00000000e+00 0.00000000e+00
 0.00000000e+00 0.00000000e+00 0.00000000e+00 0.00000000e+00
 0.00000000e+00 0.00000000e+00 5.34303918e-08 1.90153638e-11
 0.00000000e+00 0.00000000e+00 0.00000000e+00 9.96869048e-03]","[[9.96765720e-06 1.84761823e-14 5.34303918e-11]
 [1.84761823e-14 9.96760528e-06 1.90153638e-14]
 [5.34303918e-11 1.90153638e-14 9.96869048e-06]]",[ 5.64706503e-12  1.15409320e-15 -5.43206162e-04],0.0,0.0
1786955635.2443411,-5.735280551952471e-12,-1.1855600162594723e-15,0.0005586623280184888,"[9.96745878e-03 1.86303919e-11 0.00000000e+00 0.00000000e+00
 0.00000000e+00 5.37206149e-08 1.86303919e-11 9.96740658e-03
 0.00000000e+00 0.00000000e+00 0.00000000e+00 1.91740735e-11
 0.00000000e+00 0.00000000e+00 0.00000000e+00 0.00000000e+00
 0.00000000e+00 0.00000000e+00 0.00000000e+00 0.00000000e+00
 0.00000000e+00 0.00000000e+00 0.00000000e+00 0.00000000e+00
 0.00000000e+00 0.00000000e+00 0.00000000e+00 0.00000000e+00
 0.00000000e+00 0.00000000e+00 5.37206149e-08 1.91740735e-11
 0.00000000e+00 0.00000000e+00 0.00000000e+00 9.96849767e-03]","[[9.96745878e-06 1.86303919e-14 5.37206149e-11]
 [1.86303919e-14 9.96740658e-06 1.91740735e-14]
 [5.37206149e-11 1.91740735e-14 9.96849767e-06]]",[ 5.70532544e-12  1.17485979e-15 -5.58667897e-04],0.0,0.0
1786955635.2943559,-5.830892688762935e-12,-1.2198290153737336e-15,0.0006216128863827386,"[9.96716119e-03 1.88899324e-11 0.00000000e+00 0.00000000e+00
 0.00000000e+00 5.41879495e-08 1.88899324e-11 9.96710854e-03
 0.00000000e+00 0.00000000e+00 0.00000000e+00 1.94411879e-11
 0.00000000e+00 0.00000000e+00 0.00000000e+00 0.00000000e+00
 0.00000000e+00 0.00000000e+00 0.00000000e+00 0.00000000e+00
 0.00000000e+00 0.00000000e+00 0.00000000e+00 0.00000000e+00
 0.00000000e+00 0.00000000e+00 0.00000000e+00 0.00000000e+00
 0.00000000e+00 0.00000000e+00 5.41879495e-08 1.94411879e-11
 0.00000000e+00 0.00000000e+00 0.00000000e+00 9.96820912e-03]","[[9.96716119e-06 1.88899324e-14 5.41879495e-11]
 [1.88899324e-14 9.96710854e-06 1.94411879e-14]
 [5.41879495e-11 1.94411879e-14 9.96820912e-06]]",[ 5.79726621e-12  1.20775604e-15 -6.21619083e-04],0.0,0.0
1786955635.3442798,-5.904800952621718e-12,-1.2464497240464865e-15,0.000700458444028218,"[9.96696281e-03 1.90831390e-11 0.00000000e+00 0.00000000e+00
 0.00000000e+00 5.44967803e-08 1.90831390e-11 9.96690986e-03
 0.00000000e+00 0.00000000e+00 0.00000000e+00 1.96400327e-11
 0.00000000e+00 0.00000000e+00 0.00000000e+00 0.00000000e+00
 0.00000000e+00 0.00000000e+00 0.00000000e+00 0.00000000e+00
 0.00000000e+00 0.00000000e+00 0.00000000e+00 0.00000000e+00
 0.00000000e+00 0.00000000e+00 0.00000000e+00 0.00000000e+00
 0.00000000e+00 0.00000000e+00 5.44967803e-08 1.96400327e-11
 0.00000000e+00 0.00000000e+00 0.00000000e+00 9.96801671e-03]","[[9.96696281e-06 1.90831390e-14 5.44967803e-11]
 [1.90831390e-14 9.96690986e-06 1.96400327e-14]
 [5.44967803e-11 1.96400327e-14 9.96801671e-06]]",[ 5.86668632e-12  1.23270485e-15 -7.00465426e-04],0.0,0.0
1786955635.3959248,-6.0292034632559455e-12,-1.2915595244616544e-15,0.0008147159397648984,"[9.96666525e-03 1.94041168e-11 0.00000000e+00 0.00000000e+00
 0.00000000e+00 5.49540344e-08 1.94041168e-11 9.96661185e-03
 0.00000000e+00 0.00000000e+00 0.00000000e+00 1.99703773e-11
 0.00000000e+00 0.00000000e+00 0.00000000e+00 0.00000000e+00
 0.00000000e+00 0.00000000e+00 0.00000000e+00 0.00000000e+00
 0.00000000e+00 0.00000000e+00 0.00000000e+00 0.00000000e+00
 0.00000000e+00 0.00000000e+00 0.00000000e+00 0.00000000e+00
 0.00000000e+00 0.00000000e+00 5.49540344e-08 1.99703773e-11
 0.00000000e+00 0.00000000e+00 0.00000000e+00 9.96772799e-03]","[[9.96666525e-06 1.94041168e-14 5.49540344e-11]
 [1.94041168e-14 9.96661185e-06 1.99703773e-14]
 [5.49540344e-11 1.99703773e-14 9.96772799e-06]]",[ 5.98449073e-12  1.27530189e-15 -8.14724061e-04],0.0,0.0
1786955635.4455092,-6.131559372419248e-12,-1.3289810574986441e-15,0.0009645699175306888,"[9.96646688e-03 1.96532622e-11 0.00000000e+00 0.00000000e+00
 0.00000000e+00 5.52541756e-08 1.96532622e-11 9.96641319e-03
 0.00000000e+00 0.00000000e+00 0.00000000e+00 2.02267934e-11
 0.00000000e+00 0.00000000e+00 0.00000000e+00 0.00000000e+00
 0.00000000e+00 0.00000000e+00 0.00000000e+00 0.00000000e+00
 0.00000000e+00 0.00000000e+00 0.00000000e+00 0.00000000e+00
 0.00000000e+00 0.00000000e+00 0.00000000e+00 0.00000000e+00
 0.00000000e+00 0.00000000e+00 5.52541756e-08 2.02267934e-11
 0.00000000e+00 0.00000000e+00 0.00000000e+00 9.96753542e-03]","[[9.96646688e-06 1.96532622e-14 5.52541756e-11]
 [1.96532622e-14 9.96641319e-06 2.02267934e-14]
 [5.52541756e-11 2.02267934e-14 9.96753542e-06]]",[ 6.07832291e-12  1.30948376e-15 -9.64579532e-04],0.0,0.0
1786955635.495952,-6.2459193226170414e-12,-1.3711586821537696e-15,0.0010540570429995455,"[9.96626852e-03 1.99496166e-11 0.00000000e+00 0.00000000e+00
 0.00000000e+00 5.55618084e-08 1.99496166e-11 9.96621453e-03
 0.00000000e+00 0.00000000e+00 0.00000000e+00 2.05317961e-11
 0.00000000e+00 0.00000000e+00 0.00000000e+00 0.00000000e+00
 0.00000000e+00 0.00000000e+00 0.00000000e+00 0.00000000e+00
 0.00000000e+00 0.00000000e+00 0.00000000e+00 0.00000000e+00
 0.00000000e+00 0.00000000e+00 0.00000000e+00 0.00000000e+00
 0.00000000e+00 0.00000000e+00 5.55618084e-08 2.05317961e-11
 0.00000000e+00 0.00000000e+00 0.00000000e+00 9.96734302e-03]","[[9.96626852e-06 1.99496166e-14 5.55618084e-11]
 [1.99496166e-14 9.96621453e-06 2.05317961e-14]
 [5.55618084e-11 2.05317961e-14 9.96734302e-06]]",[ 6.18741509e-12  1.34953023e-15 -1.05406755e-03],0.0,0.0
1786955635.5444856,-6.415220297488439e-12,-1.434422314624118e-15,0.0009827432562010685,"[9.96597102e-03 2.04369901e-11 0.00000000e+00 0.00000000e+00
 0.00000000e+00 5.60438957e-08 2.04369901e-11 9.96591657e-03
 0.00000000e+00 0.00000000e+00 0.00000000e+00 2.10333924e-11
 0.00000000e+00 0.00000000e+00 0.00000000e+00 0.00000000e+00
 0.00000000e+00 0.00000000e+00 0.00000000e+00 0.00000000e+00
 0.00000000e+00 0.00000000e+00 0.00000000e+00 0.00000000e+00
 0.00000000e+00 0.00000000e+00 0.00000000e+00 0.00000000e+00
 0.00000000e+00 0.00000000e+00 5.60438957e-08 2.10333924e-11
 0.00000000e+00 0.00000000e+00 0.00000000e+00 9.96705484e-03]","[[9.96597102e-06 2.04369901e-14 5.60438957e-11]
 [2.04369901e-14 9.96591657e-06 2.10333924e-14]
 [5.60438957e-11 2.10333924e-14 9.96705484e-06]]",[ 6.36020637e-12  1.41376577e-15 -9.82753051e-04],0.0,0.0
1786955635.595511,-6.572232486805284e-12,-1.4938955475157655e-15,0.0009235749950553541,"[9.96567351e-03 2.08610877e-11 0.00000000e+00 0.00000000e+00
 0.00000000e+00 5.65000313e-08 2.08610877e-11 9.96561862e-03
 0.00000000e+00 0.00000000e+00 0.00000000e+00 2.14698662e-11
 0.00000000e+00 0.00000000e+00 0.00000000e+00 0.00000000e+00
 0.00000000e+00 0.00000000e+00 0.00000000e+00 0.00000000e+00
 0.00000000e+00 0.00000000e+00 0.00000000e+00 0.00000000e+00
 0.00000000e+00 0.00000000e+00 0.00000000e+00 0.00000000e+00
 0.00000000e+00 0.00000000e+00 5.65000313e-08 2.14698662e-11
 0.00000000e+00 0.00000000e+00 0.00000000e+00 9.96676616e-03]","[[9.96567351e-06 2.08610877e-14 5.65000313e-11]
 [2.08610877e-14 9.96561862e-06 2.14698662e-14]
 [5.65000313e-11 2.14698662e-14 9.96676616e-06]]",[ 6.52011493e-12  1.47408101e-15 -9.23584200e-04],0.0,0.0
1786955635.644439,-6.678859409476108e-12,-1.5346689728914994e-15,0.0009468650744803854,"[9.96547519e-03 2.11368771e-11 0.00000000e+00 0.00000000e+00
 0.00000000e+00 5.68040784e-08 2.11368771e-11 9.96541999e-03
 0.00000000e+00 0.00000000e+00 0.00000000e+00 2.17537038e-11
 0.00000000e+00 0.00000000e+00 0.00000000e+00 0.00000000e+00
 0.00000000e+00 0.00000000e+00 0.00000000e+00 0.00000000e+00
 0.00000000e+00 0.00000000e+00 0.00000000e+00 0.00000000e+00
 0.00000000e+00 0.00000000e+00 0.00000000e+00 0.00000000e+00
 0.00000000e+00 0.00000000e+00 5.68040784e-08 2.17537038e-11
 0.00000000e+00 0.00000000e+00 0.00000000e+00 9.96657371e-03]","[[9.96547519e-06 2.11368771e-14 5.68040784e-11]
 [2.11368771e-14 9.96541999e-06 2.17537038e-14]
 [5.68040784e-11 2.17537038e-14 9.96657371e-06]]",[ 6.62513910e-12  1.51408603e-15 -9.46874512e-04],0.0,0.0
1786955635.6955433,-6.826115613502879e-12,-1.5915185966254977e-15,0.0008406134910710072,"[9.96517772e-03 2.15481442e-11 0.00000000e+00 0.00000000e+00
 0.00000000e+00 5.72747805e-08 2.15481442e-11 9.96512207e-03
 0.00000000e+00 0.00000000e+00 0.00000000e+00 2.21769727e-11
 0.00000000e+00 0.00000000e+00 0.00000000e+00 0.00000000e+00
 0.00000000e+00 0.00000000e+00 0.00000000e+00 0.00000000e+00
 0.00000000e+00 0.00000000e+00 0.00000000e+00 0.00000000e+00
 0.00000000e+00 0.00000000e+00 0.00000000e+00 0.00000000e+00
 0.00000000e+00 0.00000000e+00 5.72747805e-08 2.21769727e-11
 0.00000000e+00 0.00000000e+00 0.00000000e+00 9.96628535e-03]","[[9.96517772e-06 2.15481442e-14 5.72747805e-11]
 [2.15481442e-14 9.96512207e-06 2.21769727e-14]
 [5.72747805e-11 2.21769727e-14 9.96628535e-06]]",[ 6.77803672e-12  1.57289182e-15 -8.40621869e-04],0.0,0.0
1786955635.745873,-6.921893506097329e-12,-1.6288051498870706e-15,0.000831744693505332,"[9.96497942e-03 2.17990236e-11 0.00000000e+00 0.00000000e+00
 0.00000000e+00 5.75814790e-08 2.17990236e-11 9.96492347e-03
 0.00000000e+00 0.00000000e+00 0.00000000e+00 2.24351733e-11
 0.00000000e+00 0.00000000e+00 0.00000000e+00 0.00000000e+00
 0.00000000e+00 0.00000000e+00 0.00000000e+00 0.00000000e+00
 0.00000000e+00 0.00000000e+00 0.00000000e+00 0.00000000e+00
 0.00000000e+00 0.00000000e+00 0.00000000e+00 0.00000000e+00
 0.00000000e+00 0.00000000e+00 5.75814790e-08 2.24351733e-11
 0.00000000e+00 0.00000000e+00 0.00000000e+00 9.96609297e-03]","[[9.96497942e-06 2.17990236e-14 5.75814790e-11]
 [2.17990236e-14 9.96492347e-06 2.24351733e-14]
 [5.75814790e-11 2.24351733e-14 9.96609297e-06]]",[ 6.87406844e-12  1.61016067e-15 -8.31752983e-04],0.0,0.0
1786955635.7960103,-7.072144028183735e-12,-1.6877353323224985e-15,0.000905366470764335,"[9.96468197e-03 2.21714323e-11 0.00000000e+00 0.00000000e+00
 0.00000000e+00 5.80348019e-08 2.21714323e-11 9.96462558e-03
 0.00000000e+00 0.00000000e+00 0.00000000e+00 2.28184497e-11
 0.00000000e+00 0.00000000e+00 0.00000000e+00 0.00000000e+00
 0.00000000e+00 0.00000000e+00 0.00000000e+00 0.00000000e+00
 0.00000000e+00 0.00000000e+00 0.00000000e+00 0.00000000e+00
 0.00000000e+00 0.00000000e+00 0.00000000e+00 0.00000000e+00
 0.00000000e+00 0.00000000e+00 5.80348019e-08 2.28184497e-11
 0.00000000e+00 0.00000000e+00 0.00000000e+00 9.96580429e-03]","[[9.96468197e-06 2.21714323e-14 5.80348019e-11]
 [2.21714323e-14 9.96462558e-06 2.28184497e-14]
 [5.80348019e-11 2.28184497e-14 9.96580429e-06]]",[ 7.01967069e-12  1.66709268e-15 -9.05375494e-04],0.0,0.0
1786955635.8445556,-7.187412407509537e-12,-1.7333491635326682e-15,0.0010193662153663574,"[9.96448372e-03 2.24841456e-11 0.00000000e+00 0.00000000e+00
