time,x,y,yaw,cov_prop
1786900899.3744369,0.0,0.0,0.0,"[9.99940406e-03 0.00000000e+00 0.00000000e+00 0.00000000e+00
 0.00000000e+00 4.13934239e-09 0.00000000e+00 9.99940004e-03
 0.00000000e+00 0.00000000e+00 0.00000000e+00 0.00000000e+00
 0.00000000e+00 0.00000000e+00 0.00000000e+00 0.00000000e+00
 0.00000000e+00 0.00000000e+00 0.00000000e+00 0.00000000e+00
 0.00000000e+00 0.00000000e+00 0.00000000e+00 0.00000000e+00
 0.00000000e+00 0.00000000e+00 0.00000000e+00 0.00000000e+00
 0.00000000e+00 0.00000000e+00 4.13934239e-09 0.00000000e+00
 0.00000000e+00 0.00000000e+00 0.00000000e+00 9.99948411e-03]"
1786900899.4651318,0.0,0.0,0.0,"[9.99940406e-03 0.00000000e+00 0.00000000e+00 0.00000000e+00
 0.00000000e+00 4.13934239e-09 0.00000000e+00 9.99940004e-03
 0.00000000e+00 0.00000000e+00 0.00000000e+00 0.00000000e+00
 0.00000000e+00 0.00000000e+00 0.00000000e+00 0.00000000e+00
 0.00000000e+00 0.00000000e+00 0.00000000e+00 0.00000000e+00
 0.00000000e+00 0.00000000e+00 0.00000000e+00 0.00000000e+00
 0.00000000e+00 0.00000000e+00 0.00000000e+00 0.00000000e+00
 0.00000000e+00 0.00000000e+00 4.13934239e-09 0.00000000e+00
 0.00000000e+00 0.00000000e+00 0.00000000e+00 9.99948411e-03]"
1786900899.4699333,0.0,0.0,0.0,"[9.99940406e-03 0.00000000e+00 0.00000000e+00 0.00000000e+00
 0.00000000e+00 4.13934239e-09 0.00000000e+00 9.99940004e-03
 0.00000000e+00 0.00000000e+00 0.00000000e+00 0.00000000e+00
 0.00000000e+00 0.00000000e+00 0.00000000e+00 0.00000000e+00
 0.00000000e+00 0.00000000e+00 0.00000000e+00 0.00000000e+00
 0.00000000e+00 0.00000000e+00 0.00000000e+00 0.00000000e+00
 0.00000000e+00 0.00000000e+00 0.00000000e+00 0.00000000e+00
 0.00000000e+00 0.00000000e+00 4.13934239e-09 0.00000000e+00
 0.00000000e+00 0.00000000e+00 0.00000000e+00 9.99948411e-03]"
1786900899.5172331,0.0,0.0,0.0,"[9.99930793e-03 0.00000000e+00 0.00000000e+00 0.00000000e+00
 0.00000000e+00 8.11406527e-09 0.00000000e+00 9.99930005e-03
 0.00000000e+00 0.00000000e+00 0.00000000e+00 0.00000000e+00
 0.00000000e+00 0.00000000e+00 0.00000000e+00 0.00000000e+00
 0.00000000e+00 0.00000000e+00 0.00000000e+00 0.00000000e+00
 0.00000000e+00 0.00000000e+00 0.00000000e+00 0.00000000e+00
 0.00000000e+00 0.00000000e+00 0.00000000e+00 0.00000000e+00
 0.00000000e+00 0.00000000e+00 8.11406527e-09 0.00000000e+00
 0.00000000e+00 0.00000000e+00 0.00000000e+00 9.99946485e-03]"
1786900899.5700068,0.0,0.0,0.0,"[9.99900925e-03 0.00000000e+00 0.00000000e+00 0.00000000e+00
 0.00000000e+00 9.42205484e-09 0.00000000e+00 9.99900010e-03
 0.00000000e+00 0.00000000e+00 0.00000000e+00 0.00000000e+00
 0.00000000e+00 0.00000000e+00 0.00000000e+00 0.00000000e+00
 0.00000000e+00 0.00000000e+00 0.00000000e+00 0.00000000e+00
 0.00000000e+00 0.00000000e+00 0.00000000e+00 0.00000000e+00
 0.00000000e+00 0.00000000e+00 0.00000000e+00 0.00000000e+00
 0.00000000e+00 0.00000000e+00 9.42205484e-09 0.00000000e+00
 0.00000000e+00 0.00000000e+00 0.00000000e+00 9.99919147e-03]"
1786900899.642127,0.0,0.0,0.0,"[9.99890976e-03 0.00000000e+00 0.00000000e+00 0.00000000e+00
 0.00000000e+00 9.92072647e-09 0.00000000e+00 9.99890012e-03
 0.00000000e+00 0.00000000e+00 0.00000000e+00 0.00000000e+00
 0.00000000e+00 0.00000000e+00 0.00000000e+00 0.00000000e+00
 0.00000000e+00 0.00000000e+00 0.00000000e+00 0.00000000e+00
 0.00000000e+00 0.00000000e+00 0.00000000e+00 0.00000000e+00
 0.00000000e+00 0.00000000e+00 0.00000000e+00 0.00000000e+00
 0.00000000e+00 0.00000000e+00 9.92072647e-09 0.00000000e+00
 0.00000000e+00 0.00000000e+00 0.00000000e+00 9.99910162e-03]"
1786900899.6669865,0.0,0.0,0.0,"[9.99871088e-03 0.00000000e+00 0.00000000e+00 0.00000000e+00
 0.00000000e+00 1.10282690e-08 0.00000000e+00 9.99870017e-03
 0.00000000e+00 0.00000000e+00 0.00000000e+00 0.00000000e+00
 0.00000000e+00 0.00000000e+00 0.00000000e+00 0.00000000e+00
 0.00000000e+00 0.00000000e+00 0.00000000e+00 0.00000000e+00
 0.00000000e+00 0.00000000e+00 0.00000000e+00 0.00000000e+00
 0.00000000e+00 0.00000000e+00 0.00000000e+00 0.00000000e+00
 0.00000000e+00 0.00000000e+00 1.10282690e-08 0.00000000e+00
 0.00000000e+00 0.00000000e+00 0.00000000e+00 9.99892416e-03]"
1786900899.7335234,0.0,0.0,0.0,"[9.99871088e-03 0.00000000e+00 0.00000000e+00 0.00000000e+00
 0.00000000e+00 1.10282690e-08 0.00000000e+00 9.99870017e-03
 0.00000000e+00 0.00000000e+00 0.00000000e+00 0.00000000e+00
 0.00000000e+00 0.00000000e+00 0.00000000e+00 0.00000000e+00
 0.00000000e+00 0.00000000e+00 0.00000000e+00 0.00000000e+00
 0.00000000e+00 0.00000000e+00 0.00000000e+00 0.00000000e+00
 0.00000000e+00 0.00000000e+00 0.00000000e+00 0.00000000e+00
 0.00000000e+00 0.00000000e+00 1.10282690e-08 0.00000000e+00
 0.00000000e+00 0.00000000e+00 0.00000000e+00 9.99892416e-03]"
1786900899.7679677,0.0,0.0,0.0,"[9.99851320e-03 0.00000000e+00 0.00000000e+00 0.00000000e+00
 0.00000000e+00 1.33546859e-08 0.00000000e+00 9.99850022e-03
 0.00000000e+00 0.00000000e+00 0.00000000e+00 0.00000000e+00
 0.00000000e+00 0.00000000e+00 0.00000000e+00 0.00000000e+00
 0.00000000e+00 0.00000000e+00 0.00000000e+00 0.00000000e+00
 0.00000000e+00 0.00000000e+00 0.00000000e+00 0.00000000e+00
 0.00000000e+00 0.00000000e+00 0.00000000e+00 0.00000000e+00
 0.00000000e+00 0.00000000e+00 1.33546859e-08 0.00000000e+00
 0.00000000e+00 0.00000000e+00 0.00000000e+00 9.99877146e-03]"
1786900899.8220468,0.0,0.0,0.0,"[9.99841384e-03 0.00000000e+00 0.00000000e+00 0.00000000e+00
 0.00000000e+00 1.39817243e-08 0.00000000e+00 9.99840026e-03
 0.00000000e+00 0.00000000e+00 0.00000000e+00 0.00000000e+00
 0.00000000e+00 0.00000000e+00 0.00000000e+00 0.00000000e+00
 0.00000000e+00 0.00000000e+00 0.00000000e+00 0.00000000e+00
 0.00000000e+00 0.00000000e+00 0.00000000e+00 0.00000000e+00
 0.00000000e+00 0.00000000e+00 0.00000000e+00 0.00000000e+00
 0.00000000e+00 0.00000000e+00 1.39817243e-08 0.00000000e+00
 0.00000000e+00 0.00000000e+00 0.00000000e+00 9.99868423e-03]"
1786900899.867775,0.0,0.0,0.0,"[9.99831413e-03 0.00000000e+00 0.00000000e+00 0.00000000e+00
 0.00000000e+00 1.42487156e-08 0.00000000e+00 9.99830029e-03
 0.00000000e+00 0.00000000e+00 0.00000000e+00 0.00000000e+00
 0.00000000e+00 0.00000000e+00 0.00000000e+00 0.00000000e+00
 0.00000000e+00 0.00000000e+00 0.00000000e+00 0.00000000e+00
 0.00000000e+00 0.00000000e+00 0.00000000e+00 0.00000000e+00
 0.00000000e+00 0.00000000e+00 0.00000000e+00 0.00000000e+00
 0.00000000e+00 0.00000000e+00 1.42487156e-08 0.00000000e+00
 0.00000000e+00 0.00000000e+00 0.00000000e+00 9.99858969e-03]"
1786900899.9174757,0.0,0.0,0.0,"[9.99811509e-03 0.00000000e+00 0.00000000e+00 0.00000000e+00
 0.00000000e+00 1.51544771e-08 0.00000000e+00 9.99810036e-03
 0.00000000e+00 0.00000000e+00 0.00000000e+00 0.00000000e+00
 0.00000000e+00 0.00000000e+00 0.00000000e+00 0.00000000e+00
 0.00000000e+00 0.00000000e+00 0.00000000e+00 0.00000000e+00
 0.00000000e+00 0.00000000e+00 0.00000000e+00 0.00000000e+00
 0.00000000e+00 0.00000000e+00 0.00000000e+00 0.00000000e+00
 0.00000000e+00 0.00000000e+00 1.51544771e-08 0.00000000e+00
 0.00000000e+00 0.00000000e+00 0.00000000e+00 9.99840815e-03]"
1786900899.9678788,0.0,0.0,0.0,"[9.99791595e-03 0.00000000e+00 0.00000000e+00 0.00000000e+00
 0.00000000e+00 1.59656905e-08 0.00000000e+00 9.99790044e-03
 0.00000000e+00 0.00000000e+00 0.00000000e+00 0.00000000e+00
 0.00000000e+00 0.00000000e+00 0.00000000e+00 0.00000000e+00
 0.00000000e+00 0.00000000e+00 0.00000000e+00 0.00000000e+00
 0.00000000e+00 0.00000000e+00 0.00000000e+00 0.00000000e+00
 0.00000000e+00 0.00000000e+00 0.00000000e+00 0.00000000e+00
 0.00000000e+00 0.00000000e+00 1.59656905e-08 0.00000000e+00
 0.00000000e+00 0.00000000e+00 0.00000000e+00 9.99822471e-03]"
1786900900.0177846,0.0,0.0,0.0,"[9.99781657e-03 0.00000000e+00 0.00000000e+00 0.00000000e+00
 0.00000000e+00 1.65601419e-08 0.00000000e+00 9.99780048e-03
 0.00000000e+00 0.00000000e+00 0.00000000e+00 0.00000000e+00
 0.00000000e+00 0.00000000e+00 0.00000000e+00 0.00000000e+00
 0.00000000e+00 0.00000000e+00 0.00000000e+00 0.00000000e+00
 0.00000000e+00 0.00000000e+00 0.00000000e+00 0.00000000e+00
 0.00000000e+00 0.00000000e+00 0.00000000e+00 0.00000000e+00
 0.00000000e+00 0.00000000e+00 1.65601419e-08 0.00000000e+00
 0.00000000e+00 0.00000000e+00 0.00000000e+00 9.99813683e-03]"
1786900900.0672116,0.0,0.0,0.0,"[9.99761736e-03 0.00000000e+00 0.00000000e+00 0.00000000e+00
 0.00000000e+00 1.72700427e-08 0.00000000e+00 9.99760058e-03
 0.00000000e+00 0.00000000e+00 0.00000000e+00 0.00000000e+00
 0.00000000e+00 0.00000000e+00 0.00000000e+00 0.00000000e+00
 0.00000000e+00 0.00000000e+00 0.00000000e+00 0.00000000e+00
 0.00000000e+00 0.00000000e+00 0.00000000e+00 0.00000000e+00
 0.00000000e+00 0.00000000e+00 0.00000000e+00 0.00000000e+00
 0.00000000e+00 0.00000000e+00 1.72700427e-08 0.00000000e+00
 0.00000000e+00 0.00000000e+00 0.00000000e+00 9.99795134e-03]"
1786900900.1172934,0.0,0.0,0.0,"[9.99751783e-03 0.00000000e+00 0.00000000e+00 0.00000000e+00
 0.00000000e+00 1.77103608e-08 0.00000000e+00 9.99750062e-03
 0.00000000e+00 0.00000000e+00 0.00000000e+00 0.00000000e+00
 0.00000000e+00 0.00000000e+00 0.00000000e+00 0.00000000e+00
 0.00000000e+00 0.00000000e+00 0.00000000e+00 0.00000000e+00
 0.00000000e+00 0.00000000e+00 0.00000000e+00 0.00000000e+00
 0.00000000e+00 0.00000000e+00 0.00000000e+00 0.00000000e+00
 0.00000000e+00 0.00000000e+00 1.77103608e-08 0.00000000e+00
 0.00000000e+00 0.00000000e+00 0.00000000e+00 9.99786033e-03]"
1786900900.16794,0.0,0.0,0.0,"[9.99731879e-03 0.00000000e+00 0.00000000e+00 0.00000000e+00
 0.00000000e+00 1.85890477e-08 0.00000000e+00 9.99730073e-03
 0.00000000e+00 0.00000000e+00 0.00000000e+00 0.00000000e+00
 0.00000000e+00 0.00000000e+00 0.00000000e+00 0.00000000e+00
 0.00000000e+00 0.00000000e+00 0.00000000e+00 0.00000000e+00
 0.00000000e+00 0.00000000e+00 0.00000000e+00 0.00000000e+00
 0.00000000e+00 0.00000000e+00 0.00000000e+00 0.00000000e+00
 0.00000000e+00 0.00000000e+00 1.85890477e-08 0.00000000e+00
 0.00000000e+00 0.00000000e+00 0.00000000e+00 9.99767828e-03]"
1786900900.2175612,0.0,0.0,0.0,"[9.99721934e-03 0.00000000e+00 0.00000000e+00 0.00000000e+00
 0.00000000e+00 1.90962382e-08 0.00000000e+00 9.99720078e-03
 0.00000000e+00 0.00000000e+00 0.00000000e+00 0.00000000e+00
 0.00000000e+00 0.00000000e+00 0.00000000e+00 0.00000000e+00
 0.00000000e+00 0.00000000e+00 0.00000000e+00 0.00000000e+00
 0.00000000e+00 0.00000000e+00 0.00000000e+00 0.00000000e+00
 0.00000000e+00 0.00000000e+00 0.00000000e+00 0.00000000e+00
 0.00000000e+00 0.00000000e+00 1.90962382e-08 0.00000000e+00
 0.00000000e+00 0.00000000e+00 0.00000000e+00 9.99758864e-03]"
1786900900.2670808,0.0,0.0,0.0,"[9.99711973e-03 0.00000000e+00 0.00000000e+00 0.00000000e+00
 0.00000000e+00 1.94416321e-08 0.00000000e+00 9.99710084e-03
 0.00000000e+00 0.00000000e+00 0.00000000e+00 0.00000000e+00
 0.00000000e+00 0.00000000e+00 0.00000000e+00 0.00000000e+00
 0.00000000e+00 0.00000000e+00 0.00000000e+00 0.00000000e+00
 0.00000000e+00 0.00000000e+00 0.00000000e+00 0.00000000e+00
 0.00000000e+00 0.00000000e+00 0.00000000e+00 0.00000000e+00
 0.00000000e+00 0.00000000e+00 1.94416321e-08 0.00000000e+00
 0.00000000e+00 0.00000000e+00 0.00000000e+00 9.99749571e-03]"
1786900900.3170538,0.0,0.0,0.0,"[9.99692071e-03 0.00000000e+00 0.00000000e+00 0.00000000e+00
 0.00000000e+00 2.03232837e-08 0.00000000e+00 9.99690096e-03
 0.00000000e+00 0.00000000e+00 0.00000000e+00 0.00000000e+00
 0.00000000e+00 0.00000000e+00 0.00000000e+00 0.00000000e+00
 0.00000000e+00 0.00000000e+00 0.00000000e+00 0.00000000e+00
 0.00000000e+00 0.00000000e+00 0.00000000e+00 0.00000000e+00
 0.00000000e+00 0.00000000e+00 0.00000000e+00 0.00000000e+00
 0.00000000e+00 0.00000000e+00 2.03232837e-08 0.00000000e+00
 0.00000000e+00 0.00000000e+00 0.00000000e+00 9.99731374e-03]"
1786900900.3683348,0.0,0.0,0.0,"[9.99672172e-03 0.00000000e+00 0.00000000e+00 0.00000000e+00
 0.00000000e+00 2.12383371e-08 0.00000000e+00 9.99670109e-03
 0.00000000e+00 0.00000000e+00 0.00000000e+00 0.00000000e+00
 0.00000000e+00 0.00000000e+00 0.00000000e+00 0.00000000e+00
 0.00000000e+00 0.00000000e+00 0.00000000e+00 0.00000000e+00
 0.00000000e+00 0.00000000e+00 0.00000000e+00 0.00000000e+00
 0.00000000e+00 0.00000000e+00 0.00000000e+00 0.00000000e+00
 0.00000000e+00 0.00000000e+00 2.12383371e-08 0.00000000e+00
 0.00000000e+00 0.00000000e+00 0.00000000e+00 9.99713245e-03]"
1786900900.4191933,0.0,0.0,0.0,"[9.99662215e-03 0.00000000e+00 0.00000000e+00 0.00000000e+00
 0.00000000e+00 2.16085309e-08 0.00000000e+00 9.99660116e-03
 0.00000000e+00 0.00000000e+00 0.00000000e+00 0.00000000e+00
 0.00000000e+00 0.00000000e+00 0.00000000e+00 0.00000000e+00
 0.00000000e+00 0.00000000e+00 0.00000000e+00 0.00000000e+00
 0.00000000e+00 0.00000000e+00 0.00000000e+00 0.00000000e+00
 0.00000000e+00 0.00000000e+00 0.00000000e+00 0.00000000e+00
 0.00000000e+00 0.00000000e+00 2.16085309e-08 0.00000000e+00
 0.00000000e+00 0.00000000e+00 0.00000000e+00 9.99704003e-03]"
1786900900.4669757,0.0,0.0,0.0,"[9.99642314e-03 0.00000000e+00 0.00000000e+00 0.00000000e+00
 0.00000000e+00 2.24815798e-08 0.00000000e+00 9.99640130e-03
 0.00000000e+00 0.00000000e+00 0.00000000e+00 0.00000000e+00
 0.00000000e+00 0.00000000e+00 0.00000000e+00 0.00000000e+00
 0.00000000e+00 0.00000000e+00 0.00000000e+00 0.00000000e+00
 0.00000000e+00 0.00000000e+00 0.00000000e+00 0.00000000e+00
 0.00000000e+00 0.00000000e+00 0.00000000e+00 0.00000000e+00
 0.00000000e+00 0.00000000e+00 2.24815798e-08 0.00000000e+00
 0.00000000e+00 0.00000000e+00 0.00000000e+00 9.99685791e-03]"
1786900900.5178978,0.0,0.0,0.0,"[9.99632392e-03 0.00000000e+00 0.00000000e+00 0.00000000e+00
 0.00000000e+00 2.32118348e-08 0.00000000e+00 9.99630137e-03
 0.00000000e+00 0.00000000e+00 0.00000000e+00 0.00000000e+00
 0.00000000e+00 0.00000000e+00 0.00000000e+00 0.00000000e+00
 0.00000000e+00 0.00000000e+00 0.00000000e+00 0.00000000e+00
 0.00000000e+00 0.00000000e+00 0.00000000e+00 0.00000000e+00
 0.00000000e+00 0.00000000e+00 0.00000000e+00 0.00000000e+00
 0.00000000e+00 0.00000000e+00 2.32118348e-08 0.00000000e+00
 0.00000000e+00 0.00000000e+00 0.00000000e+00 9.99677281e-03]"
1786900900.5673895,0.0,0.0,0.0,"[9.99612469e-03 0.00000000e+00 0.00000000e+00 0.00000000e+00
 0.00000000e+00 2.38486550e-08 0.00000000e+00 9.99610152e-03
 0.00000000e+00 0.00000000e+00 0.00000000e+00 0.00000000e+00
 0.00000000e+00 0.00000000e+00 0.00000000e+00 0.00000000e+00
 0.00000000e+00 0.00000000e+00 0.00000000e+00 0.00000000e+00
 0.00000000e+00 0.00000000e+00 0.00000000e+00 0.00000000e+00
 0.00000000e+00 0.00000000e+00 0.00000000e+00 0.00000000e+00
 0.00000000e+00 0.00000000e+00 2.38486550e-08 0.00000000e+00
 0.00000000e+00 0.00000000e+00 0.00000000e+00 9.99658590e-03]"
1786900900.6242142,0.0,0.0,0.0,"[9.99602526e-03 0.00000000e+00 0.00000000e+00 0.00000000e+00
 0.00000000e+00 2.43560788e-08 0.00000000e+00 9.99600160e-03
 0.00000000e+00 0.00000000e+00 0.00000000e+00 0.00000000e+00
 0.00000000e+00 0.00000000e+00 0.00000000e+00 0.00000000e+00
 0.00000000e+00 0.00000000e+00 0.00000000e+00 0.00000000e+00
 0.00000000e+00 0.00000000e+00 0.00000000e+00 0.00000000e+00
 0.00000000e+00 0.00000000e+00 0.00000000e+00 0.00000000e+00
 0.00000000e+00 0.00000000e+00 2.43560788e-08 0.00000000e+00
 0.00000000e+00 0.00000000e+00 0.00000000e+00 9.99649628e-03]"
1786900900.670801,0.0,0.0,0.0,"[9.99592579e-03 0.00000000e+00 0.00000000e+00 0.00000000e+00
 0.00000000e+00 2.48140443e-08 0.00000000e+00 9.99590168e-03
 0.00000000e+00 0.00000000e+00 0.00000000e+00 0.00000000e+00
 0.00000000e+00 0.00000000e+00 0.00000000e+00 0.00000000e+00
 0.00000000e+00 0.00000000e+00 0.00000000e+00 0.00000000e+00
 0.00000000e+00 0.00000000e+00 0.00000000e+00 0.00000000e+00
 0.00000000e+00 0.00000000e+00 0.00000000e+00 0.00000000e+00
 0.00000000e+00 0.00000000e+00 2.48140443e-08 0.00000000e+00
 0.00000000e+00 0.00000000e+00 0.00000000e+00 9.99640566e-03]"
1786900900.7221613,0.0,0.0,0.0,"[9.99592579e-03 0.00000000e+00 0.00000000e+00 0.00000000e+00
 0.00000000e+00 2.48140443e-08 0.00000000e+00 9.99590168e-03
 0.00000000e+00 0.00000000e+00 0.00000000e+00 0.00000000e+00
 0.00000000e+00 0.00000000e+00 0.00000000e+00 0.00000000e+00
 0.00000000e+00 0.00000000e+00 0.00000000e+00 0.00000000e+00
 0.00000000e+00 0.00000000e+00 0.00000000e+00 0.00000000e+00
 0.00000000e+00 0.00000000e+00 0.00000000e+00 0.00000000e+00
 0.00000000e+00 0.00000000e+00 2.48140443e-08 0.00000000e+00
 0.00000000e+00 0.00000000e+00 0.00000000e+00 9.99640566e-03]"
1786900900.7671998,0.0,0.0,0.0,"[9.99592579e-03 0.00000000e+00 0.00000000e+00 0.00000000e+00
 0.00000000e+00 2.48140443e-08 0.00000000e+00 9.99590168e-03
 0.00000000e+00 0.00000000e+00 0.00000000e+00 0.00000000e+00
 0.00000000e+00 0.00000000e+00 0.00000000e+00 0.00000000e+00
 0.00000000e+00 0.00000000e+00 0.00000000e+00 0.00000000e+00
 0.00000000e+00 0.00000000e+00 0.00000000e+00 0.00000000e+00
 0.00000000e+00 0.00000000e+00 0.00000000e+00 0.00000000e+00
 0.00000000e+00 0.00000000e+00 2.48140443e-08 0.00000000e+00
 0.00000000e+00 0.00000000e+00 0.00000000e+00 9.99640566e-03]"
1786900900.8197365,0.0,0.0,0.0,"[9.99592579e-03 0.00000000e+00 0.00000000e+00 0.00000000e+00
 0.00000000e+00 2.48140443e-08 0.00000000e+00 9.99590168e-03
 0.00000000e+00 0.00000000e+00 0.00000000e+00 0.00000000e+00
 0.00000000e+00 0.00000000e+00 0.00000000e+00 0.00000000e+00
 0.00000000e+00 0.00000000e+00 0.00000000e+00 0.00000000e+00
 0.00000000e+00 0.00000000e+00 0.00000000e+00 0.00000000e+00
 0.00000000e+00 0.00000000e+00 0.00000000e+00 0.00000000e+00
 0.00000000e+00 0.00000000e+00 2.48140443e-08 0.00000000e+00
 0.00000000e+00 0.00000000e+00 0.00000000e+00 9.99640566e-03]"
1786900900.8997724,0.0,0.0,0.0,"[9.99592579e-03 0.00000000e+00 0.00000000e+00 0.00000000e+00
 0.00000000e+00 2.48140443e-08 0.00000000e+00 9.99590168e-03
 0.00000000e+00 0.00000000e+00 0.00000000e+00 0.00000000e+00
 0.00000000e+00 0.00000000e+00 0.00000000e+00 0.00000000e+00
 0.00000000e+00 0.00000000e+00 0.00000000e+00 0.00000000e+00
 0.00000000e+00 0.00000000e+00 0.00000000e+00 0.00000000e+00
 0.00000000e+00 0.00000000e+00 0.00000000e+00 0.00000000e+00
 0.00000000e+00 0.00000000e+00 2.48140443e-08 0.00000000e+00
 0.00000000e+00 0.00000000e+00 0.00000000e+00 9.99640566e-03]"
1786900900.936635,0.0,0.0,0.0,"[9.99592579e-03 0.00000000e+00 0.00000000e+00 0.00000000e+00
 0.00000000e+00 2.48140443e-08 0.00000000e+00 9.99590168e-03
 0.00000000e+00 0.00000000e+00 0.00000000e+00 0.00000000e+00
 0.00000000e+00 0.00000000e+00 0.00000000e+00 0.00000000e+00
 0.00000000e+00 0.00000000e+00 0.00000000e+00 0.00000000e+00
 0.00000000e+00 0.00000000e+00 0.00000000e+00 0.00000000e+00
 0.00000000e+00 0.00000000e+00 0.00000000e+00 0.00000000e+00
 0.00000000e+00 0.00000000e+00 2.48140443e-08 0.00000000e+00
 0.00000000e+00 0.00000000e+00 0.00000000e+00 9.99640566e-03]"
1786900900.9808815,0.0,0.0,0.0,"[9.99592579e-03 0.00000000e+00 0.00000000e+00 0.00000000e+00
 0.00000000e+00 2.48140443e-08 0.00000000e+00 9.99590168e-03
 0.00000000e+00 0.00000000e+00 0.00000000e+00 0.00000000e+00
 0.00000000e+00 0.00000000e+00 0.00000000e+00 0.00000000e+00
 0.00000000e+00 0.00000000e+00 0.00000000e+00 0.00000000e+00
 0.00000000e+00 0.00000000e+00 0.00000000e+00 0.00000000e+00
 0.00000000e+00 0.00000000e+00 0.00000000e+00 0.00000000e+00
 0.00000000e+00 0.00000000e+00 2.48140443e-08 0.00000000e+00
 0.00000000e+00 0.00000000e+00 0.00000000e+00 9.99640566e-03]"
1786900901.0179734,0.0,0.0,0.0,"[9.99566647e-03 0.00000000e+00 0.00000000e+00 0.00000000e+00
 0.00000000e+00 6.64179542e-08 0.00000000e+00 9.99560194e-03
 0.00000000e+00 0.00000000e+00 0.00000000e+00 0.00000000e+00
 0.00000000e+00 0.00000000e+00 0.00000000e+00 0.00000000e+00
 0.00000000e+00 0.00000000e+00 0.00000000e+00 0.00000000e+00
 0.00000000e+00 0.00000000e+00 0.00000000e+00 0.00000000e+00
 0.00000000e+00 0.00000000e+00 0.00000000e+00 0.00000000e+00
 0.00000000e+00 0.00000000e+00 6.64179542e-08 0.00000000e+00
 0.00000000e+00 0.00000000e+00 0.00000000e+00 9.99695091e-03]"
1786900901.0668252,0.0,0.0,0.0,"[9.99556697e-03 0.00000000e+00 0.00000000e+00 0.00000000e+00
 0.00000000e+00 6.68428360e-08 0.00000000e+00 9.99550202e-03
 0.00000000e+00 0.00000000e+00 0.00000000e+00 0.00000000e+00
 0.00000000e+00 0.00000000e+00 0.00000000e+00 0.00000000e+00
 0.00000000e+00 0.00000000e+00 0.00000000e+00 0.00000000e+00
 0.00000000e+00 0.00000000e+00 0.00000000e+00 0.00000000e+00
 0.00000000e+00 0.00000000e+00 0.00000000e+00 0.00000000e+00
 0.00000000e+00 0.00000000e+00 6.68428360e-08 0.00000000e+00
 0.00000000e+00 0.00000000e+00 0.00000000e+00 9.99685963e-03]"
1786900901.1211867,0.0,0.0,0.0,"[9.99536802e-03 0.00000000e+00 0.00000000e+00 0.00000000e+00
 0.00000000e+00 6.77304677e-08 0.00000000e+00 9.99530221e-03
 0.00000000e+00 0.00000000e+00 0.00000000e+00 0.00000000e+00
 0.00000000e+00 0.00000000e+00 0.00000000e+00 0.00000000e+00
 0.00000000e+00 0.00000000e+00 0.00000000e+00 0.00000000e+00
 0.00000000e+00 0.00000000e+00 0.00000000e+00 0.00000000e+00
 0.00000000e+00 0.00000000e+00 0.00000000e+00 0.00000000e+00
 0.00000000e+00 0.00000000e+00 6.77304677e-08 0.00000000e+00
 0.00000000e+00 0.00000000e+00 0.00000000e+00 9.99667784e-03]"
1786900901.167018,0.0,0.0,0.0,"[9.99516905e-03 0.00000000e+00 0.00000000e+00 0.00000000e+00
 0.00000000e+00 6.85933923e-08 0.00000000e+00 9.99510240e-03
 0.00000000e+00 0.00000000e+00 0.00000000e+00 0.00000000e+00
 0.00000000e+00 0.00000000e+00 0.00000000e+00 0.00000000e+00
 0.00000000e+00 0.00000000e+00 0.00000000e+00 0.00000000e+00
 0.00000000e+00 0.00000000e+00 0.00000000e+00 0.00000000e+00
 0.00000000e+00 0.00000000e+00 0.00000000e+00 0.00000000e+00
 0.00000000e+00 0.00000000e+00 6.85933923e-08 0.00000000e+00
 0.00000000e+00 0.00000000e+00 0.00000000e+00 9.99649556e-03]"
1786900901.2172635,0.0,0.0,0.0,"[9.99506955e-03 0.00000000e+00 0.00000000e+00 0.00000000e+00
 0.00000000e+00 6.90127696e-08 0.00000000e+00 9.99500250e-03
 0.00000000e+00 0.00000000e+00 0.00000000e+00 0.00000000e+00
 0.00000000e+00 0.00000000e+00 0.00000000e+00 0.00000000e+00
 0.00000000e+00 0.00000000e+00 0.00000000e+00 0.00000000e+00
 0.00000000e+00 0.00000000e+00 0.00000000e+00 0.00000000e+00
 0.00000000e+00 0.00000000e+00 0.00000000e+00 0.00000000e+00
 0.00000000e+00 0.00000000e+00 6.90127696e-08 0.00000000e+00
 0.00000000e+00 0.00000000e+00 0.00000000e+00 9.99640418e-03]"
1786900901.267949,0.0,0.0,0.0,"[9.99487062e-03 0.00000000e+00 0.00000000e+00 0.00000000e+00
 0.00000000e+00 6.98981704e-08 0.00000000e+00 9.99480270e-03
 0.00000000e+00 0.00000000e+00 0.00000000e+00 0.00000000e+00
 0.00000000e+00 0.00000000e+00 0.00000000e+00 0.00000000e+00
 0.00000000e+00 0.00000000e+00 0.00000000e+00 0.00000000e+00
 0.00000000e+00 0.00000000e+00 0.00000000e+00 0.00000000e+00
 0.00000000e+00 0.00000000e+00 0.00000000e+00 0.00000000e+00
 0.00000000e+00 0.00000000e+00 6.98981704e-08 0.00000000e+00
 0.00000000e+00 0.00000000e+00 0.00000000e+00 9.99622236e-03]"
1786900901.3170686,0.0,0.0,0.0,"[9.99477134e-03 0.00000000e+00 0.00000000e+00 0.00000000e+00
 0.00000000e+00 7.05369671e-08 0.00000000e+00 9.99470281e-03
 0.00000000e+00 0.00000000e+00 0.00000000e+00 0.00000000e+00
 0.00000000e+00 0.00000000e+00 0.00000000e+00 0.00000000e+00
 0.00000000e+00 0.00000000e+00 0.00000000e+00 0.00000000e+00
 0.00000000e+00 0.00000000e+00 0.00000000e+00 0.00000000e+00
 0.00000000e+00 0.00000000e+00 0.00000000e+00 0.00000000e+00
 0.00000000e+00 0.00000000e+00 7.05369671e-08 0.00000000e+00
 0.00000000e+00 0.00000000e+00 0.00000000e+00 9.99613544e-03]"
1786900901.3671944,0.0,0.0,0.0,"[9.99457237e-03 0.00000000e+00 0.00000000e+00 0.00000000e+00
 0.00000000e+00 7.13692542e-08 0.00000000e+00 9.99450302e-03
 0.00000000e+00 0.00000000e+00 0.00000000e+00 0.00000000e+00
 0.00000000e+00 0.00000000e+00 0.00000000e+00 0.00000000e+00
 0.00000000e+00 0.00000000e+00 0.00000000e+00 0.00000000e+00
 0.00000000e+00 0.00000000e+00 0.00000000e+00 0.00000000e+00
 0.00000000e+00 0.00000000e+00 0.00000000e+00 0.00000000e+00
 0.00000000e+00 0.00000000e+00 7.13692542e-08 0.00000000e+00
 0.00000000e+00 0.00000000e+00 0.00000000e+00 9.99595256e-03]"
1786900901.4208355,0.0,0.0,0.0,"[9.99447276e-03 0.00000000e+00 0.00000000e+00 0.00000000e+00
 0.00000000e+00 7.16615134e-08 0.00000000e+00 9.99440313e-03
 0.00000000e+00 0.00000000e+00 0.00000000e+00 0.00000000e+00
 0.00000000e+00 0.00000000e+00 0.00000000e+00 0.00000000e+00
 0.00000000e+00 0.00000000e+00 0.00000000e+00 0.00000000e+00
 0.00000000e+00 0.00000000e+00 0.00000000e+00 0.00000000e+00
 0.00000000e+00 0.00000000e+00 0.00000000e+00 0.00000000e+00
 0.00000000e+00 0.00000000e+00 7.16615134e-08 0.00000000e+00
 0.00000000e+00 0.00000000e+00 0.00000000e+00 9.99585861e-03]"
1786900901.5038834,0.0,0.0,0.0,"[9.99437329e-03 0.00000000e+00 0.00000000e+00 0.00000000e+00
 0.00000000e+00 7.20855047e-08 0.00000000e+00 9.99430325e-03
 0.00000000e+00 0.00000000e+00 0.00000000e+00 0.00000000e+00
 0.00000000e+00 0.00000000e+00 0.00000000e+00 0.00000000e+00
 0.00000000e+00 0.00000000e+00 0.00000000e+00 0.00000000e+00
 0.00000000e+00 0.00000000e+00 0.00000000e+00 0.00000000e+00
 0.00000000e+00 0.00000000e+00 0.00000000e+00 0.00000000e+00
 0.00000000e+00 0.00000000e+00 7.20855047e-08 0.00000000e+00
 0.00000000e+00 0.00000000e+00 0.00000000e+00 9.99576733e-03]"
1786900901.5217328,0.0,0.0,0.0,"[9.99427523e-03 0.00000000e+00 0.00000000e+00 0.00000000e+00
 0.00000000e+00 7.39692433e-08 0.00000000e+00 9.99420336e-03
 0.00000000e+00 0.00000000e+00 0.00000000e+00 0.00000000e+00
 0.00000000e+00 0.00000000e+00 0.00000000e+00 0.00000000e+00
 0.00000000e+00 0.00000000e+00 0.00000000e+00 0.00000000e+00
 0.00000000e+00 0.00000000e+00 0.00000000e+00 0.00000000e+00
 0.00000000e+00 0.00000000e+00 0.00000000e+00 0.00000000e+00
 0.00000000e+00 0.00000000e+00 7.39692433e-08 0.00000000e+00
 0.00000000e+00 0.00000000e+00 0.00000000e+00 9.99570571e-03]"
1786900901.5720456,0.0,0.0,0.0,"[9.99417573e-03 0.00000000e+00 0.00000000e+00 0.00000000e+00
 0.00000000e+00 7.43545650e-08 0.00000000e+00 9.99410348e-03
 0.00000000e+00 0.00000000e+00 0.00000000e+00 0.00000000e+00
 0.00000000e+00 0.00000000e+00 0.00000000e+00 0.00000000e+00
 0.00000000e+00 0.00000000e+00 0.00000000e+00 0.00000000e+00
 0.00000000e+00 0.00000000e+00 0.00000000e+00 0.00000000e+00
 0.00000000e+00 0.00000000e+00 0.00000000e+00 0.00000000e+00
 0.00000000e+00 0.00000000e+00 7.43545650e-08 0.00000000e+00
 0.00000000e+00 0.00000000e+00 0.00000000e+00 9.99561365e-03]"
1786900901.6168437,0.0,0.0,0.0,"[9.99407667e-03 0.00000000e+00 0.00000000e+00 0.00000000e+00
 0.00000000e+00 7.52036593e-08 0.00000000e+00 9.99400360e-03
 0.00000000e+00 0.00000000e+00 0.00000000e+00 0.00000000e+00
 0.00000000e+00 0.00000000e+00 0.00000000e+00 0.00000000e+00
 0.00000000e+00 0.00000000e+00 0.00000000e+00 0.00000000e+00
 0.00000000e+00 0.00000000e+00 0.00000000e+00 0.00000000e+00
 0.00000000e+00 0.00000000e+00 0.00000000e+00 0.00000000e+00
 0.00000000e+00 0.00000000e+00 7.52036593e-08 0.00000000e+00
 0.00000000e+00 0.00000000e+00 0.00000000e+00 9.99553102e-03]"
1786900901.666918,0.0,0.0,0.0,"[9.99407667e-03 0.00000000e+00 0.00000000e+00 0.00000000e+00
 0.00000000e+00 7.52036593e-08 0.00000000e+00 9.99400360e-03
 0.00000000e+00 0.00000000e+00 0.00000000e+00 0.00000000e+00
 0.00000000e+00 0.00000000e+00 0.00000000e+00 0.00000000e+00
 0.00000000e+00 0.00000000e+00 0.00000000e+00 0.00000000e+00
 0.00000000e+00 0.00000000e+00 0.00000000e+00 0.00000000e+00
 0.00000000e+00 0.00000000e+00 0.00000000e+00 0.00000000e+00
 0.00000000e+00 0.00000000e+00 7.52036593e-08 0.00000000e+00
 0.00000000e+00 0.00000000e+00 0.00000000e+00 9.99553102e-03]"
1786900901.7179127,0.0,0.0,0.0,"[9.99407667e-03 0.00000000e+00 0.00000000e+00 0.00000000e+00
 0.00000000e+00 7.52036593e-08 0.00000000e+00 9.99400360e-03
 0.00000000e+00 0.00000000e+00 0.00000000e+00 0.00000000e+00
 0.00000000e+00 0.00000000e+00 0.00000000e+00 0.00000000e+00
 0.00000000e+00 0.00000000e+00 0.00000000e+00 0.00000000e+00
 0.00000000e+00 0.00000000e+00 0.00000000e+00 0.00000000e+00
 0.00000000e+00 0.00000000e+00 0.00000000e+00 0.00000000e+00
 0.00000000e+00 0.00000000e+00 7.52036593e-08 0.00000000e+00
 0.00000000e+00 0.00000000e+00 0.00000000e+00 9.99553102e-03]"
1786900901.7707088,0.0,0.0,0.0,"[9.99407667e-03 0.00000000e+00 0.00000000e+00 0.00000000e+00
 0.00000000e+00 7.52036593e-08 0.00000000e+00 9.99400360e-03
 0.00000000e+00 0.00000000e+00 0.00000000e+00 0.00000000e+00
 0.00000000e+00 0.00000000e+00 0.00000000e+00 0.00000000e+00
 0.00000000e+00 0.00000000e+00 0.00000000e+00 0.00000000e+00
 0.00000000e+00 0.00000000e+00 0.00000000e+00 0.00000000e+00
 0.00000000e+00 0.00000000e+00 0.00000000e+00 0.00000000e+00
 0.00000000e+00 0.00000000e+00 7.52036593e-08 0.00000000e+00
 0.00000000e+00 0.00000000e+00 0.00000000e+00 9.99553102e-03]"
1786900901.8211386,0.0,0.0,0.0,"[9.99407667e-03 0.00000000e+00 0.00000000e+00 0.00000000e+00
 0.00000000e+00 7.52036593e-08 0.00000000e+00 9.99400360e-03
 0.00000000e+00 0.00000000e+00 0.00000000e+00 0.00000000e+00
 0.00000000e+00 0.00000000e+00 0.00000000e+00 0.00000000e+00
 0.00000000e+00 0.00000000e+00 0.00000000e+00 0.00000000e+00
 0.00000000e+00 0.00000000e+00 0.00000000e+00 0.00000000e+00
 0.00000000e+00 0.00000000e+00 0.00000000e+00 0.00000000e+00
 0.00000000e+00 0.00000000e+00 7.52036593e-08 0.00000000e+00
 0.00000000e+00 0.00000000e+00 0.00000000e+00 9.99553102e-03]"
1786900901.8909054,0.0,0.0,0.0,"[9.99407667e-03 0.00000000e+00 0.00000000e+00 0.00000000e+00
 0.00000000e+00 7.52036593e-08 0.00000000e+00 9.99400360e-03
 0.00000000e+00 0.00000000e+00 0.00000000e+00 0.00000000e+00
 0.00000000e+00 0.00000000e+00 0.00000000e+00 0.00000000e+00
 0.00000000e+00 0.00000000e+00 0.00000000e+00 0.00000000e+00
 0.00000000e+00 0.00000000e+00 0.00000000e+00 0.00000000e+00
 0.00000000e+00 0.00000000e+00 0.00000000e+00 0.00000000e+00
 0.00000000e+00 0.00000000e+00 7.52036593e-08 0.00000000e+00
 0.00000000e+00 0.00000000e+00 0.00000000e+00 9.99553102e-03]"
1786900901.924233,0.0,0.0,0.0,"[9.99407667e-03 0.00000000e+00 0.00000000e+00 0.00000000e+00
 0.00000000e+00 7.52036593e-08 0.00000000e+00 9.99400360e-03
 0.00000000e+00 0.00000000e+00 0.00000000e+00 0.00000000e+00
 0.00000000e+00 0.00000000e+00 0.00000000e+00 0.00000000e+00
 0.00000000e+00 0.00000000e+00 0.00000000e+00 0.00000000e+00
 0.00000000e+00 0.00000000e+00 0.00000000e+00 0.00000000e+00
 0.00000000e+00 0.00000000e+00 0.00000000e+00 0.00000000e+00
 0.00000000e+00 0.00000000e+00 7.52036593e-08 0.00000000e+00
 0.00000000e+00 0.00000000e+00 0.00000000e+00 9.99553102e-03]"
1786900901.967214,0.0,0.0,0.0,"[9.99382066e-03 0.00000000e+00 0.00000000e+00 0.00000000e+00
 0.00000000e+00 1.20095436e-07 0.00000000e+00 9.99370397e-03
 0.00000000e+00 0.00000000e+00 0.00000000e+00 0.00000000e+00
 0.00000000e+00 0.00000000e+00 0.00000000e+00 0.00000000e+00
 0.00000000e+00 0.00000000e+00 0.00000000e+00 0.00000000e+00
 0.00000000e+00 0.00000000e+00 0.00000000e+00 0.00000000e+00
 0.00000000e+00 0.00000000e+00 0.00000000e+00 0.00000000e+00
 0.00000000e+00 0.00000000e+00 1.20095436e-07 0.00000000e+00
 0.00000000e+00 0.00000000e+00 0.00000000e+00 9.99614316e-03]"
1786900902.0170066,0.0,0.0,0.0,"[9.99372114e-03 0.00000000e+00 0.00000000e+00 0.00000000e+00
 0.00000000e+00 1.20459749e-07 0.00000000e+00 9.99360409e-03
 0.00000000e+00 0.00000000e+00 0.00000000e+00 0.00000000e+00
 0.00000000e+00 0.00000000e+00 0.00000000e+00 0.00000000e+00
 0.00000000e+00 0.00000000e+00 0.00000000e+00 0.00000000e+00
 0.00000000e+00 0.00000000e+00 0.00000000e+00 0.00000000e+00
 0.00000000e+00 0.00000000e+00 0.00000000e+00 0.00000000e+00
 0.00000000e+00 0.00000000e+00 1.20459749e-07 0.00000000e+00
 0.00000000e+00 0.00000000e+00 0.00000000e+00 9.99605068e-03]"
1786900902.0713186,0.0,0.0,0.0,"[9.99352223e-03 0.00000000e+00 0.00000000e+00 0.00000000e+00
 0.00000000e+00 1.21321860e-07 0.00000000e+00 9.99340435e-03
 0.00000000e+00 0.00000000e+00 0.00000000e+00 0.00000000e+00
 0.00000000e+00 0.00000000e+00 0.00000000e+00 0.00000000e+00
 0.00000000e+00 0.00000000e+00 0.00000000e+00 0.00000000e+00
 0.00000000e+00 0.00000000e+00 0.00000000e+00 0.00000000e+00
 0.00000000e+00 0.00000000e+00 0.00000000e+00 0.00000000e+00
 0.00000000e+00 0.00000000e+00 1.21321860e-07 0.00000000e+00
 0.00000000e+00 0.00000000e+00 0.00000000e+00 9.99586845e-03]"
1786900902.1168888,0.0,0.0,0.0,"[9.99342278e-03 0.00000000e+00 0.00000000e+00 0.00000000e+00
 0.00000000e+00 1.21742510e-07 0.00000000e+00 9.99330449e-03
 0.00000000e+00 0.00000000e+00 0.00000000e+00 0.00000000e+00
 0.00000000e+00 0.00000000e+00 0.00000000e+00 0.00000000e+00
 0.00000000e+00 0.00000000e+00 0.00000000e+00 0.00000000e+00
 0.00000000e+00 0.00000000e+00 0.00000000e+00 0.00000000e+00
 0.00000000e+00 0.00000000e+00 0.00000000e+00 0.00000000e+00
 0.00000000e+00 0.00000000e+00 1.21742510e-07 0.00000000e+00
 0.00000000e+00 0.00000000e+00 0.00000000e+00 9.99577713e-03]"
1786900902.167129,0.0,0.0,0.0,"[9.99332330e-03 0.00000000e+00 0.00000000e+00 0.00000000e+00
 0.00000000e+00 1.22138827e-07 0.00000000e+00 9.99320462e-03
 0.00000000e+00 0.00000000e+00 0.00000000e+00 0.00000000e+00
 0.00000000e+00 0.00000000e+00 0.00000000e+00 0.00000000e+00
 0.00000000e+00 0.00000000e+00 0.00000000e+00 0.00000000e+00
 0.00000000e+00 0.00000000e+00 0.00000000e+00 0.00000000e+00
 0.00000000e+00 0.00000000e+00 0.00000000e+00 0.00000000e+00
 0.00000000e+00 0.00000000e+00 1.22138827e-07 0.00000000e+00
 0.00000000e+00 0.00000000e+00 0.00000000e+00 9.99568531e-03]"
1786900902.2175567,0.0,0.0,0.0,"[9.99312443e-03 0.00000000e+00 0.00000000e+00 0.00000000e+00
 0.00000000e+00 1.23022809e-07 0.00000000e+00 9.99300490e-03
 0.00000000e+00 0.00000000e+00 0.00000000e+00 0.00000000e+00
 0.00000000e+00 0.00000000e+00 0.00000000e+00 0.00000000e+00
 0.00000000e+00 0.00000000e+00 0.00000000e+00 0.00000000e+00
 0.00000000e+00 0.00000000e+00 0.00000000e+00 0.00000000e+00
 0.00000000e+00 0.00000000e+00 0.00000000e+00 0.00000000e+00
 0.00000000e+00 0.00000000e+00 1.23022809e-07 0.00000000e+00
 0.00000000e+00 0.00000000e+00 0.00000000e+00 9.99550354e-03]"
1786900902.26718,0.0,0.0,0.0,"[9.99292555e-03 0.00000000e+00 0.00000000e+00 0.00000000e+00
 0.00000000e+00 1.23877687e-07 0.00000000e+00 9.99280518e-03
 0.00000000e+00 0.00000000e+00 0.00000000e+00 0.00000000e+00
 0.00000000e+00 0.00000000e+00 0.00000000e+00 0.00000000e+00
 0.00000000e+00 0.00000000e+00 0.00000000e+00 0.00000000e+00
 0.00000000e+00 0.00000000e+00 0.00000000e+00 0.00000000e+00
 0.00000000e+00 0.00000000e+00 0.00000000e+00 0.00000000e+00
 0.00000000e+00 0.00000000e+00 1.23877687e-07 0.00000000e+00
 0.00000000e+00 0.00000000e+00 0.00000000e+00 9.99532119e-03]"
1786900902.317443,0.0,0.0,0.0,"[9.99292555e-03 0.00000000e+00 0.00000000e+00 0.00000000e+00
 0.00000000e+00 1.23877687e-07 0.00000000e+00 9.99280518e-03
 0.00000000e+00 0.00000000e+00 0.00000000e+00 0.00000000e+00
 0.00000000e+00 0.00000000e+00 0.00000000e+00 0.00000000e+00
 0.00000000e+00 0.00000000e+00 0.00000000e+00 0.00000000e+00
 0.00000000e+00 0.00000000e+00 0.00000000e+00 0.00000000e+00
 0.00000000e+00 0.00000000e+00 0.00000000e+00 0.00000000e+00
 0.00000000e+00 0.00000000e+00 1.23877687e-07 0.00000000e+00
 0.00000000e+00 0.00000000e+00 0.00000000e+00 9.99532119e-03]"
1786900902.366718,0.0,0.0,0.0,"[9.99272704e-03 0.00000000e+00 0.00000000e+00 0.00000000e+00
 0.00000000e+00 1.25118685e-07 0.00000000e+00 9.99260547e-03
 0.00000000e+00 0.00000000e+00 0.00000000e+00 0.00000000e+00
 0.00000000e+00 0.00000000e+00 0.00000000e+00 0.00000000e+00
 0.00000000e+00 0.00000000e+00 0.00000000e+00 0.00000000e+00
 0.00000000e+00 0.00000000e+00 0.00000000e+00 0.00000000e+00
 0.00000000e+00 0.00000000e+00 0.00000000e+00 0.00000000e+00
 0.00000000e+00 0.00000000e+00 1.25118685e-07 0.00000000e+00
 0.00000000e+00 0.00000000e+00 0.00000000e+00 9.99514669e-03]"
1786900902.4509141,0.0,0.0,0.0,"[9.99252837e-03 0.00000000e+00 0.00000000e+00 0.00000000e+00
 0.00000000e+00 1.26178765e-07 0.00000000e+00 9.99240577e-03
 0.00000000e+00 0.00000000e+00 0.00000000e+00 0.00000000e+00
 0.00000000e+00 0.00000000e+00 0.00000000e+00 0.00000000e+00
 0.00000000e+00 0.00000000e+00 0.00000000e+00 0.00000000e+00
 0.00000000e+00 0.00000000e+00 0.00000000e+00 0.00000000e+00
 0.00000000e+00 0.00000000e+00 0.00000000e+00 0.00000000e+00
 0.00000000e+00 0.00000000e+00 1.26178765e-07 0.00000000e+00
 0.00000000e+00 0.00000000e+00 0.00000000e+00 9.99496852e-03]"
1786900902.4669197,0.0,0.0,0.0,"[9.99232964e-03 0.00000000e+00 0.00000000e+00 0.00000000e+00
 0.00000000e+00 1.27170321e-07 0.00000000e+00 9.99220608e-03
 0.00000000e+00 0.00000000e+00 0.00000000e+00 0.00000000e+00
 0.00000000e+00 0.00000000e+00 0.00000000e+00 0.00000000e+00
 0.00000000e+00 0.00000000e+00 0.00000000e+00 0.00000000e+00
 0.00000000e+00 0.00000000e+00 0.00000000e+00 0.00000000e+00
 0.00000000e+00 0.00000000e+00 0.00000000e+00 0.00000000e+00
 0.00000000e+00 0.00000000e+00 1.27170321e-07 0.00000000e+00
 0.00000000e+00 0.00000000e+00 0.00000000e+00 9.99478896e-03]"
1786900902.51696,0.0,0.0,0.0,"[9.99223081e-03 0.00000000e+00 0.00000000e+00 0.00000000e+00
 0.00000000e+00 1.28210133e-07 0.00000000e+00 9.99210624e-03
 0.00000000e+00 0.00000000e+00 0.00000000e+00 0.00000000e+00
 0.00000000e+00 0.00000000e+00 0.00000000e+00 0.00000000e+00
 0.00000000e+00 0.00000000e+00 0.00000000e+00 0.00000000e+00
 0.00000000e+00 0.00000000e+00 0.00000000e+00 0.00000000e+00
 0.00000000e+00 0.00000000e+00 0.00000000e+00 0.00000000e+00
 0.00000000e+00 0.00000000e+00 1.28210133e-07 0.00000000e+00
 0.00000000e+00 0.00000000e+00 0.00000000e+00 9.99471024e-03]"
1786900902.566998,0.0,0.0,0.0,"[9.99213103e-03 0.00000000e+00 0.00000000e+00 0.00000000e+00
 0.00000000e+00 1.28276499e-07 0.00000000e+00 9.99200639e-03
 0.00000000e+00 0.00000000e+00 0.00000000e+00 0.00000000e+00
 0.00000000e+00 0.00000000e+00 0.00000000e+00 0.00000000e+00
 0.00000000e+00 0.00000000e+00 0.00000000e+00 0.00000000e+00
 0.00000000e+00 0.00000000e+00 0.00000000e+00 0.00000000e+00
 0.00000000e+00 0.00000000e+00 0.00000000e+00 0.00000000e+00
 0.00000000e+00 0.00000000e+00 1.28276499e-07 0.00000000e+00
 0.00000000e+00 0.00000000e+00 0.00000000e+00 9.99461175e-03]"
1786900902.6169689,0.0,0.0,0.0,"[9.99213103e-03 0.00000000e+00 0.00000000e+00 0.00000000e+00
 0.00000000e+00 1.28276499e-07 0.00000000e+00 9.99200639e-03
 0.00000000e+00 0.00000000e+00 0.00000000e+00 0.00000000e+00
 0.00000000e+00 0.00000000e+00 0.00000000e+00 0.00000000e+00
 0.00000000e+00 0.00000000e+00 0.00000000e+00 0.00000000e+00
 0.00000000e+00 0.00000000e+00 0.00000000e+00 0.00000000e+00
 0.00000000e+00 0.00000000e+00 0.00000000e+00 0.00000000e+00
 0.00000000e+00 0.00000000e+00 1.28276499e-07 0.00000000e+00
 0.00000000e+00 0.00000000e+00 0.00000000e+00 9.99461175e-03]"
1786900902.6689436,0.0,0.0,0.0,"[9.99213103e-03 0.00000000e+00 0.00000000e+00 0.00000000e+00
 0.00000000e+00 1.28276499e-07 0.00000000e+00 9.99200639e-03
 0.00000000e+00 0.00000000e+00 0.00000000e+00 0.00000000e+00
 0.00000000e+00 0.00000000e+00 0.00000000e+00 0.00000000e+00
 0.00000000e+00 0.00000000e+00 0.00000000e+00 0.00000000e+00
 0.00000000e+00 0.00000000e+00 0.00000000e+00 0.00000000e+00
 0.00000000e+00 0.00000000e+00 0.00000000e+00 0.00000000e+00
 0.00000000e+00 0.00000000e+00 1.28276499e-07 0.00000000e+00
 0.00000000e+00 0.00000000e+00 0.00000000e+00 9.99461175e-03]"
1786900902.7232826,0.0,0.0,0.0,"[9.99213103e-03 0.00000000e+00 0.00000000e+00 0.00000000e+00
 0.00000000e+00 1.28276499e-07 0.00000000e+00 9.99200639e-03
 0.00000000e+00 0.00000000e+00 0.00000000e+00 0.00000000e+00
 0.00000000e+00 0.00000000e+00 0.00000000e+00 0.00000000e+00
 0.00000000e+00 0.00000000e+00 0.00000000e+00 0.00000000e+00
 0.00000000e+00 0.00000000e+00 0.00000000e+00 0.00000000e+00
 0.00000000e+00 0.00000000e+00 0.00000000e+00 0.00000000e+00
 0.00000000e+00 0.00000000e+00 1.28276499e-07 0.00000000e+00
 0.00000000e+00 0.00000000e+00 0.00000000e+00 9.99461175e-03]"
1786900902.7678554,0.0,0.0,0.0,"[9.99213103e-03 0.00000000e+00 0.00000000e+00 0.00000000e+00
 0.00000000e+00 1.28276499e-07 0.00000000e+00 9.99200639e-03
 0.00000000e+00 0.00000000e+00 0.00000000e+00 0.00000000e+00
 0.00000000e+00 0.00000000e+00 0.00000000e+00 0.00000000e+00
 0.00000000e+00 0.00000000e+00 0.00000000e+00 0.00000000e+00
 0.00000000e+00 0.00000000e+00 0.00000000e+00 0.00000000e+00
 0.00000000e+00 0.00000000e+00 0.00000000e+00 0.00000000e+00
 0.00000000e+00 0.00000000e+00 1.28276499e-07 0.00000000e+00
 0.00000000e+00 0.00000000e+00 0.00000000e+00 9.99461175e-03]"
1786900902.8172338,0.0,0.0,0.0,"[9.99213103e-03 0.00000000e+00 0.00000000e+00 0.00000000e+00
 0.00000000e+00 1.28276499e-07 0.00000000e+00 9.99200639e-03
 0.00000000e+00 0.00000000e+00 0.00000000e+00 0.00000000e+00
 0.00000000e+00 0.00000000e+00 0.00000000e+00 0.00000000e+00
 0.00000000e+00 0.00000000e+00 0.00000000e+00 0.00000000e+00
 0.00000000e+00 0.00000000e+00 0.00000000e+00 0.00000000e+00
 0.00000000e+00 0.00000000e+00 0.00000000e+00 0.00000000e+00
 0.00000000e+00 0.00000000e+00 1.28276499e-07 0.00000000e+00
 0.00000000e+00 0.00000000e+00 0.00000000e+00 9.99461175e-03]"
1786900902.8668547,0.0,0.0,0.0,"[9.99203175e-03 0.00000000e+00 0.00000000e+00 0.00000000e+00
 0.00000000e+00 1.28848495e-07 0.00000000e+00 9.99190656e-03
 0.00000000e+00 0.00000000e+00 0.00000000e+00 0.00000000e+00
 0.00000000e+00 0.00000000e+00 0.00000000e+00 0.00000000e+00
 0.00000000e+00 0.00000000e+00 0.00000000e+00 0.00000000e+00
 0.00000000e+00 0.00000000e+00 0.00000000e+00 0.00000000e+00
 0.00000000e+00 0.00000000e+00 0.00000000e+00 0.00000000e+00
 0.00000000e+00 0.00000000e+00 1.28848495e-07 0.00000000e+00
 0.00000000e+00 0.00000000e+00 0.00000000e+00 9.99452352e-03]"
1786900902.9178746,0.0,0.0,0.0,"[9.99186638e-03 0.00000000e+00 0.00000000e+00 0.00000000e+00
 0.00000000e+00 1.64147730e-07 0.00000000e+00 9.99170688e-03
 0.00000000e+00 0.00000000e+00 0.00000000e+00 0.00000000e+00
 0.00000000e+00 0.00000000e+00 0.00000000e+00 0.00000000e+00
 0.00000000e+00 0.00000000e+00 0.00000000e+00 0.00000000e+00
 0.00000000e+00 0.00000000e+00 0.00000000e+00 0.00000000e+00
 0.00000000e+00 0.00000000e+00 0.00000000e+00 0.00000000e+00
 0.00000000e+00 0.00000000e+00 1.64147730e-07 0.00000000e+00
 0.00000000e+00 0.00000000e+00 0.00000000e+00 9.99504079e-03]"
1786900902.9794242,0.0,0.0,0.0,"[9.99176693e-03 0.00000000e+00 0.00000000e+00 0.00000000e+00
 0.00000000e+00 1.64545098e-07 0.00000000e+00 9.99160705e-03
 0.00000000e+00 0.00000000e+00 0.00000000e+00 0.00000000e+00
 0.00000000e+00 0.00000000e+00 0.00000000e+00 0.00000000e+00
 0.00000000e+00 0.00000000e+00 0.00000000e+00 0.00000000e+00
 0.00000000e+00 0.00000000e+00 0.00000000e+00 0.00000000e+00
 0.00000000e+00 0.00000000e+00 0.00000000e+00 0.00000000e+00
 0.00000000e+00 0.00000000e+00 1.64545098e-07 0.00000000e+00
 0.00000000e+00 0.00000000e+00 0.00000000e+00 9.99494903e-03]"
1786900903.0197878,0.0,0.0,0.0,"[9.99156840e-03 0.00000000e+00 0.00000000e+00 0.00000000e+00
 0.00000000e+00 1.65711659e-07 0.00000000e+00 9.99140739e-03
 0.00000000e+00 0.00000000e+00 0.00000000e+00 0.00000000e+00
 0.00000000e+00 0.00000000e+00 0.00000000e+00 0.00000000e+00
 0.00000000e+00 0.00000000e+00 0.00000000e+00 0.00000000e+00
 0.00000000e+00 0.00000000e+00 0.00000000e+00 0.00000000e+00
 0.00000000e+00 0.00000000e+00 0.00000000e+00 0.00000000e+00
 0.00000000e+00 0.00000000e+00 1.65711659e-07 0.00000000e+00
 0.00000000e+00 0.00000000e+00 0.00000000e+00 9.99477307e-03]"
1786900903.0694375,0.0,0.0,0.0,"[9.99156840e-03 0.00000000e+00 0.00000000e+00 0.00000000e+00
 0.00000000e+00 1.65711659e-07 0.00000000e+00 9.99140739e-03
 0.00000000e+00 0.00000000e+00 0.00000000e+00 0.00000000e+00
 0.00000000e+00 0.00000000e+00 0.00000000e+00 0.00000000e+00
 0.00000000e+00 0.00000000e+00 0.00000000e+00 0.00000000e+00
 0.00000000e+00 0.00000000e+00 0.00000000e+00 0.00000000e+00
 0.00000000e+00 0.00000000e+00 0.00000000e+00 0.00000000e+00
 0.00000000e+00 0.00000000e+00 1.65711659e-07 0.00000000e+00
 0.00000000e+00 0.00000000e+00 0.00000000e+00 9.99477307e-03]"
1786900903.1172464,0.0,0.0,0.0,"[9.99147299e-03 0.00000000e+00 0.00000000e+00 0.00000000e+00
 0.00000000e+00 1.70259786e-07 0.00000000e+00 9.99130756e-03
 0.00000000e+00 0.00000000e+00 0.00000000e+00 0.00000000e+00
 0.00000000e+00 0.00000000e+00 0.00000000e+00 0.00000000e+00
 0.00000000e+00 0.00000000e+00 0.00000000e+00 0.00000000e+00
 0.00000000e+00 0.00000000e+00 0.00000000e+00 0.00000000e+00
 0.00000000e+00 0.00000000e+00 0.00000000e+00 0.00000000e+00
 0.00000000e+00 0.00000000e+00 1.70259786e-07 0.00000000e+00
 0.00000000e+00 0.00000000e+00 0.00000000e+00 9.99476561e-03]"
1786900903.1670866,0.0,0.0,0.0,"[9.99127400e-03 0.00000000e+00 0.00000000e+00 0.00000000e+00
 0.00000000e+00 1.70936791e-07 0.00000000e+00 9.99110791e-03
 0.00000000e+00 0.00000000e+00 0.00000000e+00 0.00000000e+00
 0.00000000e+00 0.00000000e+00 0.00000000e+00 0.00000000e+00
 0.00000000e+00 0.00000000e+00 0.00000000e+00 0.00000000e+00
 0.00000000e+00 0.00000000e+00 0.00000000e+00 0.00000000e+00
 0.00000000e+00 0.00000000e+00 0.00000000e+00 0.00000000e+00
 0.00000000e+00 0.00000000e+00 1.70936791e-07 0.00000000e+00
 0.00000000e+00 0.00000000e+00 0.00000000e+00 9.99457971e-03]"
1786900903.2168303,0.0,0.0,0.0,"[9.99117456e-03 0.00000000e+00 0.00000000e+00 0.00000000e+00
 0.00000000e+00 1.71322823e-07 0.00000000e+00 9.99100809e-03
 0.00000000e+00 0.00000000e+00 0.00000000e+00 0.00000000e+00
 0.00000000e+00 0.00000000e+00 0.00000000e+00 0.00000000e+00
 0.00000000e+00 0.00000000e+00 0.00000000e+00 0.00000000e+00
 0.00000000e+00 0.00000000e+00 0.00000000e+00 0.00000000e+00
 0.00000000e+00 0.00000000e+00 0.00000000e+00 0.00000000e+00
 0.00000000e+00 0.00000000e+00 1.71322823e-07 0.00000000e+00
 0.00000000e+00 0.00000000e+00 0.00000000e+00 9.99448773e-03]"
1786900903.2699869,0.0,0.0,0.0,"[9.99107515e-03 0.00000000e+00 0.00000000e+00 0.00000000e+00
 0.00000000e+00 1.71744247e-07 0.00000000e+00 9.99090827e-03
 0.00000000e+00 0.00000000e+00 0.00000000e+00 0.00000000e+00
 0.00000000e+00 0.00000000e+00 0.00000000e+00 0.00000000e+00
 0.00000000e+00 0.00000000e+00 0.00000000e+00 0.00000000e+00
 0.00000000e+00 0.00000000e+00 0.00000000e+00 0.00000000e+00
 0.00000000e+00 0.00000000e+00 0.00000000e+00 0.00000000e+00
 0.00000000e+00 0.00000000e+00 1.71744247e-07 0.00000000e+00
 0.00000000e+00 0.00000000e+00 0.00000000e+00 9.99439647e-03]"
1786900903.3211882,0.0,0.0,0.0,"[9.99087689e-03 0.00000000e+00 0.00000000e+00 0.00000000e+00
 0.00000000e+00 1.73155837e-07 0.00000000e+00 9.99070864e-03
 0.00000000e+00 0.00000000e+00 0.00000000e+00 0.00000000e+00
 0.00000000e+00 0.00000000e+00 0.00000000e+00 0.00000000e+00
 0.00000000e+00 0.00000000e+00 0.00000000e+00 0.00000000e+00
 0.00000000e+00 0.00000000e+00 0.00000000e+00 0.00000000e+00
 0.00000000e+00 0.00000000e+00 0.00000000e+00 0.00000000e+00
 0.00000000e+00 0.00000000e+00 1.73155837e-07 0.00000000e+00
 0.00000000e+00 0.00000000e+00 0.00000000e+00 9.99422551e-03]"
1786900903.369625,0.0,0.0,0.0,"[9.99067775e-03 0.00000000e+00 0.00000000e+00 0.00000000e+00
 0.00000000e+00 1.73655689e-07 0.00000000e+00 9.99050902e-03
 0.00000000e+00 0.00000000e+00 0.00000000e+00 0.00000000e+00
 0.00000000e+00 0.00000000e+00 0.00000000e+00 0.00000000e+00
 0.00000000e+00 0.00000000e+00 0.00000000e+00 0.00000000e+00
 0.00000000e+00 0.00000000e+00 0.00000000e+00 0.00000000e+00
 0.00000000e+00 0.00000000e+00 0.00000000e+00 0.00000000e+00
 0.00000000e+00 0.00000000e+00 1.73655689e-07 0.00000000e+00
 0.00000000e+00 0.00000000e+00 0.00000000e+00 9.99403604e-03]"
1786900903.4170642,0.0,0.0,0.0,"[9.99057834e-03 0.00000000e+00 0.00000000e+00 0.00000000e+00
 0.00000000e+00 1.74063443e-07 0.00000000e+00 9.99040921e-03
 0.00000000e+00 0.00000000e+00 0.00000000e+00 0.00000000e+00
 0.00000000e+00 0.00000000e+00 0.00000000e+00 0.00000000e+00
 0.00000000e+00 0.00000000e+00 0.00000000e+00 0.00000000e+00
 0.00000000e+00 0.00000000e+00 0.00000000e+00 0.00000000e+00
 0.00000000e+00 0.00000000e+00 0.00000000e+00 0.00000000e+00
 0.00000000e+00 0.00000000e+00 1.74063443e-07 0.00000000e+00
 0.00000000e+00 0.00000000e+00 0.00000000e+00 9.99394451e-03]"
1786900903.4742718,0.0,0.0,0.0,"[9.99037996e-03 0.00000000e+00 0.00000000e+00 0.00000000e+00
 0.00000000e+00 1.75339217e-07 0.00000000e+00 9.99020959e-03
 0.00000000e+00 0.00000000e+00 0.00000000e+00 0.00000000e+00
 0.00000000e+00 0.00000000e+00 0.00000000e+00 0.00000000e+00
 0.00000000e+00 0.00000000e+00 0.00000000e+00 0.00000000e+00
 0.00000000e+00 0.00000000e+00 0.00000000e+00 0.00000000e+00
 0.00000000e+00 0.00000000e+00 0.00000000e+00 0.00000000e+00
 0.00000000e+00 0.00000000e+00 1.75339217e-07 0.00000000e+00
 0.00000000e+00 0.00000000e+00 0.00000000e+00 9.99377081e-03]"
1786900903.5179784,0.0,0.0,0.0,"[9.99028084e-03 0.00000000e+00 0.00000000e+00 0.00000000e+00
 0.00000000e+00 1.76041911e-07 0.00000000e+00 9.99010979e-03
 0.00000000e+00 0.00000000e+00 0.00000000e+00 0.00000000e+00
 0.00000000e+00 0.00000000e+00 0.00000000e+00 0.00000000e+00
 0.00000000e+00 0.00000000e+00 0.00000000e+00 0.00000000e+00
 0.00000000e+00 0.00000000e+00 0.00000000e+00 0.00000000e+00
 0.00000000e+00 0.00000000e+00 0.00000000e+00 0.00000000e+00
 0.00000000e+00 0.00000000e+00 1.76041911e-07 0.00000000e+00
 0.00000000e+00 0.00000000e+00 0.00000000e+00 9.99368528e-03]"
1786900903.567111,0.0,0.0,0.0,"[9.99008186e-03 0.00000000e+00 0.00000000e+00 0.00000000e+00
 0.00000000e+00 1.76680252e-07 0.00000000e+00 9.98991019e-03
 0.00000000e+00 0.00000000e+00 0.00000000e+00 0.00000000e+00
 0.00000000e+00 0.00000000e+00 0.00000000e+00 0.00000000e+00
 0.00000000e+00 0.00000000e+00 0.00000000e+00 0.00000000e+00
 0.00000000e+00 0.00000000e+00 0.00000000e+00 0.00000000e+00
 0.00000000e+00 0.00000000e+00 0.00000000e+00 0.00000000e+00
 0.00000000e+00 0.00000000e+00 1.76680252e-07 0.00000000e+00
 0.00000000e+00 0.00000000e+00 0.00000000e+00 9.99349864e-03]"
1786900903.6171062,0.0,0.0,0.0,"[9.98998246e-03 0.00000000e+00 0.00000000e+00 0.00000000e+00
 0.00000000e+00 1.77088041e-07 0.00000000e+00 9.98981039e-03
 0.00000000e+00 0.00000000e+00 0.00000000e+00 0.00000000e+00
 0.00000000e+00 0.00000000e+00 0.00000000e+00 0.00000000e+00
 0.00000000e+00 0.00000000e+00 0.00000000e+00 0.00000000e+00
 0.00000000e+00 0.00000000e+00 0.00000000e+00 0.00000000e+00
 0.00000000e+00 0.00000000e+00 0.00000000e+00 0.00000000e+00
 0.00000000e+00 0.00000000e+00 1.77088041e-07 0.00000000e+00
 0.00000000e+00 0.00000000e+00 0.00000000e+00 9.99340713e-03]"
1786900903.6709263,0.0,0.0,0.0,"[9.98978371e-03 0.00000000e+00 0.00000000e+00 0.00000000e+00
 0.00000000e+00 1.77952720e-07 0.00000000e+00 9.98961080e-03
 0.00000000e+00 0.00000000e+00 0.00000000e+00 0.00000000e+00
 0.00000000e+00 0.00000000e+00 0.00000000e+00 0.00000000e+00
 0.00000000e+00 0.00000000e+00 0.00000000e+00 0.00000000e+00
 0.00000000e+00 0.00000000e+00 0.00000000e+00 0.00000000e+00
 0.00000000e+00 0.00000000e+00 0.00000000e+00 0.00000000e+00
 0.00000000e+00 0.00000000e+00 1.77952720e-07 0.00000000e+00
 0.00000000e+00 0.00000000e+00 0.00000000e+00 9.99322510e-03]"
1786900903.716814,0.0,0.0,0.0,"[9.98968431e-03 0.00000000e+00 0.00000000e+00 0.00000000e+00
 0.00000000e+00 1.78350557e-07 0.00000000e+00 9.98951101e-03
 0.00000000e+00 0.00000000e+00 0.00000000e+00 0.00000000e+00
 0.00000000e+00 0.00000000e+00 0.00000000e+00 0.00000000e+00
 0.00000000e+00 0.00000000e+00 0.00000000e+00 0.00000000e+00
 0.00000000e+00 0.00000000e+00 0.00000000e+00 0.00000000e+00
 0.00000000e+00 0.00000000e+00 0.00000000e+00 0.00000000e+00
 0.00000000e+00 0.00000000e+00 1.78350557e-07 0.00000000e+00
 0.00000000e+00 0.00000000e+00 0.00000000e+00 9.99313339e-03]"
1786900903.7714467,0.0,0.0,0.0,"[9.98958507e-03 0.00000000e+00 0.00000000e+00 0.00000000e+00
 0.00000000e+00 1.78917620e-07 0.00000000e+00 9.98941122e-03
 0.00000000e+00 0.00000000e+00 0.00000000e+00 0.00000000e+00
 0.00000000e+00 0.00000000e+00 0.00000000e+00 0.00000000e+00
 0.00000000e+00 0.00000000e+00 0.00000000e+00 0.00000000e+00
 0.00000000e+00 0.00000000e+00 0.00000000e+00 0.00000000e+00
 0.00000000e+00 0.00000000e+00 0.00000000e+00 0.00000000e+00
 0.00000000e+00 0.00000000e+00 1.78917620e-07 0.00000000e+00
 0.00000000e+00 0.00000000e+00 0.00000000e+00 9.99304512e-03]"
1786900903.8170428,0.0,0.0,0.0,"[9.98938628e-03 0.00000000e+00 0.00000000e+00 0.00000000e+00
 0.00000000e+00 1.79722776e-07 0.00000000e+00 9.98921165e-03
 0.00000000e+00 0.00000000e+00 0.00000000e+00 0.00000000e+00
 0.00000000e+00 0.00000000e+00 0.00000000e+00 0.00000000e+00
 0.00000000e+00 0.00000000e+00 0.00000000e+00 0.00000000e+00
 0.00000000e+00 0.00000000e+00 0.00000000e+00 0.00000000e+00
 0.00000000e+00 0.00000000e+00 0.00000000e+00 0.00000000e+00
 0.00000000e+00 0.00000000e+00 1.79722776e-07 0.00000000e+00
 0.00000000e+00 0.00000000e+00 0.00000000e+00 9.99286190e-03]"
1786900903.8687782,0.0,0.0,0.0,"[9.98918755e-03 0.00000000e+00 0.00000000e+00 0.00000000e+00
 0.00000000e+00 1.80587207e-07 0.00000000e+00 9.98901209e-03
 0.00000000e+00 0.00000000e+00 0.00000000e+00 0.00000000e+00
 0.00000000e+00 0.00000000e+00 0.00000000e+00 0.00000000e+00
 0.00000000e+00 0.00000000e+00 0.00000000e+00 0.00000000e+00
 0.00000000e+00 0.00000000e+00 0.00000000e+00 0.00000000e+00
 0.00000000e+00 0.00000000e+00 0.00000000e+00 0.00000000e+00
 0.00000000e+00 0.00000000e+00 1.80587207e-07 0.00000000e+00
 0.00000000e+00 0.00000000e+00 0.00000000e+00 9.99267989e-03]"
1786900903.9182227,0.0,0.0,0.0,"[9.98908840e-03 0.00000000e+00 0.00000000e+00 0.00000000e+00
 0.00000000e+00 1.81228829e-07 0.00000000e+00 9.98891231e-03
 0.00000000e+00 0.00000000e+00 0.00000000e+00 0.00000000e+00
 0.00000000e+00 0.00000000e+00 0.00000000e+00 0.00000000e+00
 0.00000000e+00 0.00000000e+00 0.00000000e+00 0.00000000e+00
 0.00000000e+00 0.00000000e+00 0.00000000e+00 0.00000000e+00
 0.00000000e+00 0.00000000e+00 0.00000000e+00 0.00000000e+00
 0.00000000e+00 0.00000000e+00 1.81228829e-07 0.00000000e+00
 0.00000000e+00 0.00000000e+00 0.00000000e+00 9.99259314e-03]"
1786900903.9670799,0.0,0.0,0.0,"[9.98888954e-03 0.00000000e+00 0.00000000e+00 0.00000000e+00
 0.00000000e+00 1.81941152e-07 0.00000000e+00 9.98871275e-03
 0.00000000e+00 0.00000000e+00 0.00000000e+00 0.00000000e+00
 0.00000000e+00 0.00000000e+00 0.00000000e+00 0.00000000e+00
 0.00000000e+00 0.00000000e+00 0.00000000e+00 0.00000000e+00
 0.00000000e+00 0.00000000e+00 0.00000000e+00 0.00000000e+00
 0.00000000e+00 0.00000000e+00 0.00000000e+00 0.00000000e+00
 0.00000000e+00 0.00000000e+00 1.81941152e-07 0.00000000e+00
 0.00000000e+00 0.00000000e+00 0.00000000e+00 9.99240806e-03]"
1786900904.016962,0.0,0.0,0.0,"[9.98879038e-03 0.00000000e+00 0.00000000e+00 0.00000000e+00
 0.00000000e+00 1.82574431e-07 0.00000000e+00 9.98861298e-03
 0.00000000e+00 0.00000000e+00 0.00000000e+00 0.00000000e+00
 0.00000000e+00 0.00000000e+00 0.00000000e+00 0.00000000e+00
 0.00000000e+00 0.00000000e+00 0.00000000e+00 0.00000000e+00
 0.00000000e+00 0.00000000e+00 0.00000000e+00 0.00000000e+00
 0.00000000e+00 0.00000000e+00 0.00000000e+00 0.00000000e+00
 0.00000000e+00 0.00000000e+00 1.82574431e-07 0.00000000e+00
 0.00000000e+00 0.00000000e+00 0.00000000e+00 9.99232115e-03]"
1786900904.0671172,0.0,0.0,0.0,"[9.98859145e-03 0.00000000e+00 0.00000000e+00 0.00000000e+00
 0.00000000e+00 1.83206776e-07 0.00000000e+00 9.98841344e-03
 0.00000000e+00 0.00000000e+00 0.00000000e+00 0.00000000e+00
 0.00000000e+00 0.00000000e+00 0.00000000e+00 0.00000000e+00
 0.00000000e+00 0.00000000e+00 0.00000000e+00 0.00000000e+00
 0.00000000e+00 0.00000000e+00 0.00000000e+00 0.00000000e+00
 0.00000000e+00 0.00000000e+00 0.00000000e+00 0.00000000e+00
 0.00000000e+00 0.00000000e+00 1.83206776e-07 0.00000000e+00
 0.00000000e+00 0.00000000e+00 0.00000000e+00 9.99213445e-03]"
1786900904.1175065,0.0,0.0,0.0,"[9.98849234e-03 0.00000000e+00 0.00000000e+00 0.00000000e+00
 0.00000000e+00 1.83885718e-07 0.00000000e+00 9.98831367e-03
 0.00000000e+00 0.00000000e+00 0.00000000e+00 0.00000000e+00
 0.00000000e+00 0.00000000e+00 0.00000000e+00 0.00000000e+00
 0.00000000e+00 0.00000000e+00 0.00000000e+00 0.00000000e+00
 0.00000000e+00 0.00000000e+00 0.00000000e+00 0.00000000e+00
 0.00000000e+00 0.00000000e+00 0.00000000e+00 0.00000000e+00
 0.00000000e+00 0.00000000e+00 1.83885718e-07 0.00000000e+00
 0.00000000e+00 0.00000000e+00 0.00000000e+00 9.99204847e-03]"
1786900904.1668153,0.0,0.0,0.0,"[9.98829347e-03 0.00000000e+00 0.00000000e+00 0.00000000e+00
 0.00000000e+00 1.84560722e-07 0.00000000e+00 9.98811414e-03
 0.00000000e+00 0.00000000e+00 0.00000000e+00 0.00000000e+00
 0.00000000e+00 0.00000000e+00 0.00000000e+00 0.00000000e+00
 0.00000000e+00 0.00000000e+00 0.00000000e+00 0.00000000e+00
 0.00000000e+00 0.00000000e+00 0.00000000e+00 0.00000000e+00
 0.00000000e+00 0.00000000e+00 0.00000000e+00 0.00000000e+00
 0.00000000e+00 0.00000000e+00 1.84560722e-07 0.00000000e+00
 0.00000000e+00 0.00000000e+00 0.00000000e+00 9.99186265e-03]"
1786900904.2206802,0.0,0.0,0.0,"[9.98819417e-03 0.00000000e+00 0.00000000e+00 0.00000000e+00
 0.00000000e+00 1.85032512e-07 0.00000000e+00 9.98801438e-03
 0.00000000e+00 0.00000000e+00 0.00000000e+00 0.00000000e+00
 0.00000000e+00 0.00000000e+00 0.00000000e+00 0.00000000e+00
 0.00000000e+00 0.00000000e+00 0.00000000e+00 0.00000000e+00
 0.00000000e+00 0.00000000e+00 0.00000000e+00 0.00000000e+00
 0.00000000e+00 0.00000000e+00 0.00000000e+00 0.00000000e+00
 0.00000000e+00 0.00000000e+00 1.85032512e-07 0.00000000e+00
 0.00000000e+00 0.00000000e+00 0.00000000e+00 9.99177247e-03]"
1786900904.2677195,0.0,0.0,0.0,"[9.98799545e-03 0.00000000e+00 0.00000000e+00 0.00000000e+00
 0.00000000e+00 1.85857154e-07 0.00000000e+00 9.98781487e-03
 0.00000000e+00 0.00000000e+00 0.00000000e+00 0.00000000e+00
 0.00000000e+00 0.00000000e+00 0.00000000e+00 0.00000000e+00
 0.00000000e+00 0.00000000e+00 0.00000000e+00 0.00000000e+00
 0.00000000e+00 0.00000000e+00 0.00000000e+00 0.00000000e+00
 0.00000000e+00 0.00000000e+00 0.00000000e+00 0.00000000e+00
 0.00000000e+00 0.00000000e+00 1.85857154e-07 0.00000000e+00
 0.00000000e+00 0.00000000e+00 0.00000000e+00 9.99158971e-03]"
1786900904.3173702,0.0,0.0,0.0,"[9.98789615e-03 0.00000000e+00 0.00000000e+00 0.00000000e+00
 0.00000000e+00 1.86317906e-07 0.00000000e+00 9.98771511e-03
 0.00000000e+00 0.00000000e+00 0.00000000e+00 0.00000000e+00
 0.00000000e+00 0.00000000e+00 0.00000000e+00 0.00000000e+00
 0.00000000e+00 0.00000000e+00 0.00000000e+00 0.00000000e+00
 0.00000000e+00 0.00000000e+00 0.00000000e+00 0.00000000e+00
 0.00000000e+00 0.00000000e+00 0.00000000e+00 0.00000000e+00
 0.00000000e+00 0.00000000e+00 1.86317906e-07 0.00000000e+00
 0.00000000e+00 0.00000000e+00 0.00000000e+00 9.99149931e-03]"
1786900904.3683994,0.0,0.0,0.0,"[9.98779684e-03 0.00000000e+00 0.00000000e+00 0.00000000e+00
 0.00000000e+00 1.86776673e-07 0.00000000e+00 9.98761536e-03
 0.00000000e+00 0.00000000e+00 0.00000000e+00 0.00000000e+00
 0.00000000e+00 0.00000000e+00 0.00000000e+00 0.00000000e+00
 0.00000000e+00 0.00000000e+00 0.00000000e+00 0.00000000e+00
 0.00000000e+00 0.00000000e+00 0.00000000e+00 0.00000000e+00
 0.00000000e+00 0.00000000e+00 0.00000000e+00 0.00000000e+00
 0.00000000e+00 0.00000000e+00 1.86776673e-07 0.00000000e+00
 0.00000000e+00 0.00000000e+00 0.00000000e+00 9.99140887e-03]"
1786900904.4186373,0.0,0.0,0.0,"[9.98759817e-03 0.00000000e+00 0.00000000e+00 0.00000000e+00
 0.00000000e+00 1.87635981e-07 0.00000000e+00 9.98741586e-03
 0.00000000e+00 0.00000000e+00 0.00000000e+00 0.00000000e+00
 0.00000000e+00 0.00000000e+00 0.00000000e+00 0.00000000e+00
 0.00000000e+00 0.00000000e+00 0.00000000e+00 0.00000000e+00
 0.00000000e+00 0.00000000e+00 0.00000000e+00 0.00000000e+00
 0.00000000e+00 0.00000000e+00 0.00000000e+00 0.00000000e+00
 0.00000000e+00 0.00000000e+00 1.87635981e-07 0.00000000e+00
 0.00000000e+00 0.00000000e+00 0.00000000e+00 9.99122682e-03]"
1786900904.4668403,0.0,0.0,0.0,"[9.98739947e-03 0.00000000e+00 0.00000000e+00 0.00000000e+00
 0.00000000e+00 1.88454736e-07 0.00000000e+00 9.98721636e-03
 0.00000000e+00 0.00000000e+00 0.00000000e+00 0.00000000e+00
 0.00000000e+00 0.00000000e+00 0.00000000e+00 0.00000000e+00
 0.00000000e+00 0.00000000e+00 0.00000000e+00 0.00000000e+00
 0.00000000e+00 0.00000000e+00 0.00000000e+00 0.00000000e+00
 0.00000000e+00 0.00000000e+00 0.00000000e+00 0.00000000e+00
 0.00000000e+00 0.00000000e+00 1.88454736e-07 0.00000000e+00
 0.00000000e+00 0.00000000e+00 0.00000000e+00 9.99104396e-03]"
1786900904.52875,0.0,0.0,0.0,"[9.98730025e-03 0.00000000e+00 0.00000000e+00 0.00000000e+00
 0.00000000e+00 1.88984223e-07 0.00000000e+00 9.98711662e-03
 0.00000000e+00 0.00000000e+00 0.00000000e+00 0.00000000e+00
 0.00000000e+00 0.00000000e+00 0.00000000e+00 0.00000000e+00
 0.00000000e+00 0.00000000e+00 0.00000000e+00 0.00000000e+00
 0.00000000e+00 0.00000000e+00 0.00000000e+00 0.00000000e+00
 0.00000000e+00 0.00000000e+00 0.00000000e+00 0.00000000e+00
 0.00000000e+00 0.00000000e+00 1.88984223e-07 0.00000000e+00
 0.00000000e+00 0.00000000e+00 0.00000000e+00 9.99095497e-03]"
1786900904.5668182,0.0,0.0,0.0,"[9.98710163e-03 0.00000000e+00 0.00000000e+00 0.00000000e+00
 0.00000000e+00 1.89875676e-07 0.00000000e+00 9.98691714e-03
 0.00000000e+00 0.00000000e+00 0.00000000e+00 0.00000000e+00
 0.00000000e+00 0.00000000e+00 0.00000000e+00 0.00000000e+00
 0.00000000e+00 0.00000000e+00 0.00000000e+00 0.00000000e+00
 0.00000000e+00 0.00000000e+00 0.00000000e+00 0.00000000e+00
 0.00000000e+00 0.00000000e+00 0.00000000e+00 0.00000000e+00
 0.00000000e+00 0.00000000e+00 1.89875676e-07 0.00000000e+00
 0.00000000e+00 0.00000000e+00 0.00000000e+00 9.99077360e-03]"
1786900904.6190207,0.0,0.0,0.0,"[9.98700245e-03 0.00000000e+00 0.00000000e+00 0.00000000e+00
 0.00000000e+00 1.90447869e-07 0.00000000e+00 9.98681740e-03
 0.00000000e+00 0.00000000e+00 0.00000000e+00 0.00000000e+00
 0.00000000e+00 0.00000000e+00 0.00000000e+00 0.00000000e+00
 0.00000000e+00 0.00000000e+00 0.00000000e+00 0.00000000e+00
 0.00000000e+00 0.00000000e+00 0.00000000e+00 0.00000000e+00
 0.00000000e+00 0.00000000e+00 0.00000000e+00 0.00000000e+00
 0.00000000e+00 0.00000000e+00 1.90447869e-07 0.00000000e+00
 0.00000000e+00 0.00000000e+00 0.00000000e+00 9.99068548e-03]"
1786900904.6710434,0.0,0.0,0.0,"[9.98680359e-03 0.00000000e+00 0.00000000e+00 0.00000000e+00
 0.00000000e+00 1.91073097e-07 0.00000000e+00 9.98661793e-03
 0.00000000e+00 0.00000000e+00 0.00000000e+00 0.00000000e+00
 0.00000000e+00 0.00000000e+00 0.00000000e+00 0.00000000e+00
 0.00000000e+00 0.00000000e+00 0.00000000e+00 0.00000000e+00
 0.00000000e+00 0.00000000e+00 0.00000000e+00 0.00000000e+00
 0.00000000e+00 0.00000000e+00 0.00000000e+00 0.00000000e+00
 0.00000000e+00 0.00000000e+00 1.91073097e-07 0.00000000e+00
 0.00000000e+00 0.00000000e+00 0.00000000e+00 9.99049871e-03]"
1786900904.7392237,0.0,0.0,0.0,"[9.98680359e-03 0.00000000e+00 0.00000000e+00 0.00000000e+00
 0.00000000e+00 1.91073097e-07 0.00000000e+00 9.98661793e-03
 0.00000000e+00 0.00000000e+00 0.00000000e+00 0.00000000e+00
 0.00000000e+00 0.00000000e+00 0.00000000e+00 0.00000000e+00
 0.00000000e+00 0.00000000e+00 0.00000000e+00 0.00000000e+00
 0.00000000e+00 0.00000000e+00 0.00000000e+00 0.00000000e+00
 0.00000000e+00 0.00000000e+00 0.00000000e+00 0.00000000e+00
 0.00000000e+00 0.00000000e+00 1.91073097e-07 0.00000000e+00
 0.00000000e+00 0.00000000e+00 0.00000000e+00 9.99049871e-03]"
1786900904.767985,0.0,0.0,0.0,"[9.98660677e-03 0.00000000e+00 0.00000000e+00 0.00000000e+00
 0.00000000e+00 1.93795206e-07 0.00000000e+00 9.98641847e-03
 0.00000000e+00 0.00000000e+00 0.00000000e+00 0.00000000e+00
 0.00000000e+00 0.00000000e+00 0.00000000e+00 0.00000000e+00
 0.00000000e+00 0.00000000e+00 0.00000000e+00 0.00000000e+00
 0.00000000e+00 0.00000000e+00 0.00000000e+00 0.00000000e+00
 0.00000000e+00 0.00000000e+00 0.00000000e+00 0.00000000e+00
 0.00000000e+00 0.00000000e+00 1.93795206e-07 0.00000000e+00
 0.00000000e+00 0.00000000e+00 0.00000000e+00 9.99035454e-03]"
1786900904.82959,0.0,0.0,0.0,"[9.98650748e-03 0.00000000e+00 0.00000000e+00 0.00000000e+00
 0.00000000e+00 1.94246309e-07 0.00000000e+00 9.98631874e-03
 0.00000000e+00 0.00000000e+00 0.00000000e+00 0.00000000e+00
 0.00000000e+00 0.00000000e+00 0.00000000e+00 0.00000000e+00
 0.00000000e+00 0.00000000e+00 0.00000000e+00 0.00000000e+00
 0.00000000e+00 0.00000000e+00 0.00000000e+00 0.00000000e+00
 0.00000000e+00 0.00000000e+00 0.00000000e+00 0.00000000e+00
 0.00000000e+00 0.00000000e+00 1.94246309e-07 0.00000000e+00
 0.00000000e+00 0.00000000e+00 0.00000000e+00 9.99026397e-03]"
1786900904.8677197,0.0,0.0,0.0,"[9.98630883e-03 0.00000000e+00 0.00000000e+00 0.00000000e+00
 0.00000000e+00 1.95070825e-07 0.00000000e+00 9.98611929e-03
 0.00000000e+00 0.00000000e+00 0.00000000e+00 0.00000000e+00
 0.00000000e+00 0.00000000e+00 0.00000000e+00 0.00000000e+00
 0.00000000e+00 0.00000000e+00 0.00000000e+00 0.00000000e+00
 0.00000000e+00 0.00000000e+00 0.00000000e+00 0.00000000e+00
 0.00000000e+00 0.00000000e+00 0.00000000e+00 0.00000000e+00
 0.00000000e+00 0.00000000e+00 1.95070825e-07 0.00000000e+00
 0.00000000e+00 0.00000000e+00 0.00000000e+00 9.99008127e-03]"
1786900904.9194164,0.0,0.0,0.0,"[9.98620972e-03 0.00000000e+00 0.00000000e+00 0.00000000e+00
 0.00000000e+00 1.95699688e-07 0.00000000e+00 9.98601957e-03
 0.00000000e+00 0.00000000e+00 0.00000000e+00 0.00000000e+00
 0.00000000e+00 0.00000000e+00 0.00000000e+00 0.00000000e+00
 0.00000000e+00 0.00000000e+00 0.00000000e+00 0.00000000e+00
 0.00000000e+00 0.00000000e+00 0.00000000e+00 0.00000000e+00
 0.00000000e+00 0.00000000e+00 0.00000000e+00 0.00000000e+00
 0.00000000e+00 0.00000000e+00 1.95699688e-07 0.00000000e+00
 0.00000000e+00 0.00000000e+00 0.00000000e+00 9.98999432e-03]"
1786900904.9683974,0.0,0.0,0.0,"[9.98601092e-03 0.00000000e+00 0.00000000e+00 0.00000000e+00
 0.00000000e+00 1.96349606e-07 0.00000000e+00 9.98582014e-03
 0.00000000e+00 0.00000000e+00 0.00000000e+00 0.00000000e+00
 0.00000000e+00 0.00000000e+00 0.00000000e+00 0.00000000e+00
 0.00000000e+00 0.00000000e+00 0.00000000e+00 0.00000000e+00
 0.00000000e+00 0.00000000e+00 0.00000000e+00 0.00000000e+00
 0.00000000e+00 0.00000000e+00 0.00000000e+00 0.00000000e+00
 0.00000000e+00 0.00000000e+00 1.96349606e-07 0.00000000e+00
 0.00000000e+00 0.00000000e+00 0.00000000e+00 9.98980808e-03]"
1786900905.026986,0.0,0.0,0.0,"[9.98591165e-03 0.00000000e+00 0.00000000e+00 0.00000000e+00
 0.00000000e+00 1.96806656e-07 0.00000000e+00 9.98572042e-03
 0.00000000e+00 0.00000000e+00 0.00000000e+00 0.00000000e+00
 0.00000000e+00 0.00000000e+00 0.00000000e+00 0.00000000e+00
 0.00000000e+00 0.00000000e+00 0.00000000e+00 0.00000000e+00
 0.00000000e+00 0.00000000e+00 0.00000000e+00 0.00000000e+00
 0.00000000e+00 0.00000000e+00 0.00000000e+00 0.00000000e+00
 0.00000000e+00 0.00000000e+00 1.96806656e-07 0.00000000e+00
 0.00000000e+00 0.00000000e+00 0.00000000e+00 9.98971765e-03]"
1786900905.0802655,0.0,0.0,0.0,"[9.98581234e-03 0.00000000e+00 0.00000000e+00 0.00000000e+00
 0.00000000e+00 1.97230561e-07 0.00000000e+00 9.98562071e-03
 0.00000000e+00 0.00000000e+00 0.00000000e+00 0.00000000e+00
 0.00000000e+00 0.00000000e+00 0.00000000e+00 0.00000000e+00
 0.00000000e+00 0.00000000e+00 0.00000000e+00 0.00000000e+00
 0.00000000e+00 0.00000000e+00 0.00000000e+00 0.00000000e+00
 0.00000000e+00 0.00000000e+00 0.00000000e+00 0.00000000e+00
 0.00000000e+00 0.00000000e+00 1.97230561e-07 0.00000000e+00
 0.00000000e+00 0.00000000e+00 0.00000000e+00 9.98962654e-03]"
1786900905.1185067,0.0,0.0,0.0,"[9.98561411e-03 0.00000000e+00 0.00000000e+00 0.00000000e+00
 0.00000000e+00 1.98450666e-07 0.00000000e+00 9.98542128e-03
 0.00000000e+00 0.00000000e+00 0.00000000e+00 0.00000000e+00
 0.00000000e+00 0.00000000e+00 0.00000000e+00 0.00000000e+00
 0.00000000e+00 0.00000000e+00 0.00000000e+00 0.00000000e+00
 0.00000000e+00 0.00000000e+00 0.00000000e+00 0.00000000e+00
 0.00000000e+00 0.00000000e+00 0.00000000e+00 0.00000000e+00
 0.00000000e+00 0.00000000e+00 1.98450666e-07 0.00000000e+00
 0.00000000e+00 0.00000000e+00 0.00000000e+00 9.98945190e-03]"
1786900905.1679456,0.0,0.0,0.0,"[9.98551482e-03 0.00000000e+00 0.00000000e+00 0.00000000e+00
 0.00000000e+00 1.98879056e-07 0.00000000e+00 9.98532158e-03
 0.00000000e+00 0.00000000e+00 0.00000000e+00 0.00000000e+00
 0.00000000e+00 0.00000000e+00 0.00000000e+00 0.00000000e+00
 0.00000000e+00 0.00000000e+00 0.00000000e+00 0.00000000e+00
 0.00000000e+00 0.00000000e+00 0.00000000e+00 0.00000000e+00
 0.00000000e+00 0.00000000e+00 0.00000000e+00 0.00000000e+00
 0.00000000e+00 0.00000000e+00 1.98879056e-07 0.00000000e+00
 0.00000000e+00 0.00000000e+00 0.00000000e+00 9.98936090e-03]"
1786900905.2191114,0.0,0.0,0.0,"[9.98531627e-03 0.00000000e+00 0.00000000e+00 0.00000000e+00
 0.00000000e+00 1.99761824e-07 0.00000000e+00 9.98512217e-03
 0.00000000e+00 0.00000000e+00 0.00000000e+00 0.00000000e+00
 0.00000000e+00 0.00000000e+00 0.00000000e+00 0.00000000e+00
 0.00000000e+00 0.00000000e+00 0.00000000e+00 0.00000000e+00
 0.00000000e+00 0.00000000e+00 0.00000000e+00 0.00000000e+00
 0.00000000e+00 0.00000000e+00 0.00000000e+00 0.00000000e+00
 0.00000000e+00 0.00000000e+00 1.99761824e-07 0.00000000e+00
 0.00000000e+00 0.00000000e+00 0.00000000e+00 9.98917942e-03]"
1786900905.2678201,0.0,0.0,0.0,"[9.98511771e-03 0.00000000e+00 0.00000000e+00 0.00000000e+00
 0.00000000e+00 2.00632780e-07 0.00000000e+00 9.98492277e-03
 0.00000000e+00 0.00000000e+00 0.00000000e+00 0.00000000e+00
 0.00000000e+00 0.00000000e+00 0.00000000e+00 0.00000000e+00
 0.00000000e+00 0.00000000e+00 0.00000000e+00 0.00000000e+00
 0.00000000e+00 0.00000000e+00 0.00000000e+00 0.00000000e+00
 0.00000000e+00 0.00000000e+00 0.00000000e+00 0.00000000e+00
 0.00000000e+00 0.00000000e+00 2.00632780e-07 0.00000000e+00
 0.00000000e+00 0.00000000e+00 0.00000000e+00 9.98899771e-03]"
1786900905.3192444,0.0,0.0,0.0,"[9.98501840e-03 0.00000000e+00 0.00000000e+00 0.00000000e+00
 0.00000000e+00 2.01035967e-07 0.00000000e+00 9.98482307e-03
 0.00000000e+00 0.00000000e+00 0.00000000e+00 0.00000000e+00
 0.00000000e+00 0.00000000e+00 0.00000000e+00 0.00000000e+00
 0.00000000e+00 0.00000000e+00 0.00000000e+00 0.00000000e+00
 0.00000000e+00 0.00000000e+00 0.00000000e+00 0.00000000e+00
 0.00000000e+00 0.00000000e+00 0.00000000e+00 0.00000000e+00
 0.00000000e+00 0.00000000e+00 2.01035967e-07 0.00000000e+00
 0.00000000e+00 0.00000000e+00 0.00000000e+00 9.98890620e-03]"
1786900905.36773,0.0,0.0,0.0,"[9.98481986e-03 0.00000000e+00 0.00000000e+00 0.00000000e+00
 0.00000000e+00 2.01902913e-07 0.00000000e+00 9.98462368e-03
 0.00000000e+00 0.00000000e+00 0.00000000e+00 0.00000000e+00
 0.00000000e+00 0.00000000e+00 0.00000000e+00 0.00000000e+00
 0.00000000e+00 0.00000000e+00 0.00000000e+00 0.00000000e+00
 0.00000000e+00 0.00000000e+00 0.00000000e+00 0.00000000e+00
 0.00000000e+00 0.00000000e+00 0.00000000e+00 0.00000000e+00
 0.00000000e+00 0.00000000e+00 2.01902913e-07 0.00000000e+00
 0.00000000e+00 0.00000000e+00 0.00000000e+00 9.98872442e-03]"
1786900905.417983,0.0,0.0,0.0,"[9.98472057e-03 0.00000000e+00 0.00000000e+00 0.00000000e+00
 0.00000000e+00 2.02316404e-07 0.00000000e+00 9.98452399e-03
 0.00000000e+00 0.00000000e+00 0.00000000e+00 0.00000000e+00
 0.00000000e+00 0.00000000e+00 0.00000000e+00 0.00000000e+00
 0.00000000e+00 0.00000000e+00 0.00000000e+00 0.00000000e+00
 0.00000000e+00 0.00000000e+00 0.00000000e+00 0.00000000e+00
 0.00000000e+00 0.00000000e+00 0.00000000e+00 0.00000000e+00
 0.00000000e+00 0.00000000e+00 2.02316404e-07 0.00000000e+00
 0.00000000e+00 0.00000000e+00 0.00000000e+00 9.98863312e-03]"
1786900905.4670715,0.0,0.0,0.0,"[9.98452203e-03 0.00000000e+00 0.00000000e+00 0.00000000e+00
 0.00000000e+00 2.03183596e-07 0.00000000e+00 9.98432461e-03
 0.00000000e+00 0.00000000e+00 0.00000000e+00 0.00000000e+00
 0.00000000e+00 0.00000000e+00 0.00000000e+00 0.00000000e+00
 0.00000000e+00 0.00000000e+00 0.00000000e+00 0.00000000e+00
 0.00000000e+00 0.00000000e+00 0.00000000e+00 0.00000000e+00
 0.00000000e+00 0.00000000e+00 0.00000000e+00 0.00000000e+00
 0.00000000e+00 0.00000000e+00 2.03183596e-07 0.00000000e+00
 0.00000000e+00 0.00000000e+00 0.00000000e+00 9.98845136e-03]"
1786900905.5169144,0.0,0.0,0.0,"[9.98442274e-03 0.00000000e+00 0.00000000e+00 0.00000000e+00
 0.00000000e+00 2.03591381e-07 0.00000000e+00 9.98422492e-03
 0.00000000e+00 0.00000000e+00 0.00000000e+00 0.00000000e+00
 0.00000000e+00 0.00000000e+00 0.00000000e+00 0.00000000e+00
 0.00000000e+00 0.00000000e+00 0.00000000e+00 0.00000000e+00
 0.00000000e+00 0.00000000e+00 0.00000000e+00 0.00000000e+00
 0.00000000e+00 0.00000000e+00 0.00000000e+00 0.00000000e+00
 0.00000000e+00 0.00000000e+00 2.03591381e-07 0.00000000e+00
 0.00000000e+00 0.00000000e+00 0.00000000e+00 9.98835995e-03]"
1786900905.567118,0.0,0.0,0.0,"[9.98422426e-03 0.00000000e+00 0.00000000e+00 0.00000000e+00
 0.00000000e+00 2.04495761e-07 0.00000000e+00 9.98402556e-03
 0.00000000e+00 0.00000000e+00 0.00000000e+00 0.00000000e+00
 0.00000000e+00 0.00000000e+00 0.00000000e+00 0.00000000e+00
 0.00000000e+00 0.00000000e+00 0.00000000e+00 0.00000000e+00
 0.00000000e+00 0.00000000e+00 0.00000000e+00 0.00000000e+00
 0.00000000e+00 0.00000000e+00 0.00000000e+00 0.00000000e+00
 0.00000000e+00 0.00000000e+00 2.04495761e-07 0.00000000e+00
 0.00000000e+00 0.00000000e+00 0.00000000e+00 9.98817896e-03]"
1786900905.6351287,0.0,0.0,0.0,"[9.98412521e-03 0.00000000e+00 0.00000000e+00 0.00000000e+00
 0.00000000e+00 2.05152020e-07 0.00000000e+00 9.98392588e-03
 0.00000000e+00 0.00000000e+00 0.00000000e+00 0.00000000e+00
 0.00000000e+00 0.00000000e+00 0.00000000e+00 0.00000000e+00
 0.00000000e+00 0.00000000e+00 0.00000000e+00 0.00000000e+00
 0.00000000e+00 0.00000000e+00 0.00000000e+00 0.00000000e+00
 0.00000000e+00 0.00000000e+00 0.00000000e+00 0.00000000e+00
 0.00000000e+00 0.00000000e+00 2.05152020e-07 0.00000000e+00
 0.00000000e+00 0.00000000e+00 0.00000000e+00 9.98809261e-03]"
1786900905.6733541,0.0,0.0,0.0,"[9.98392655e-03 0.00000000e+00 0.00000000e+00 0.00000000e+00
 0.00000000e+00 2.05865783e-07 0.00000000e+00 9.98372653e-03
 0.00000000e+00 0.00000000e+00 0.00000000e+00 0.00000000e+00
 0.00000000e+00 0.00000000e+00 0.00000000e+00 0.00000000e+00
 0.00000000e+00 0.00000000e+00 0.00000000e+00 0.00000000e+00
 0.00000000e+00 0.00000000e+00 0.00000000e+00 0.00000000e+00
 0.00000000e+00 0.00000000e+00 0.00000000e+00 0.00000000e+00
 0.00000000e+00 0.00000000e+00 2.05865783e-07 0.00000000e+00
 0.00000000e+00 0.00000000e+00 0.00000000e+00 9.98790775e-03]"
1786900905.7169826,0.0,0.0,0.0,"[9.98382720e-03 0.00000000e+00 0.00000000e+00 0.00000000e+00
 0.00000000e+00 2.06194865e-07 0.00000000e+00 9.98362685e-03
 0.00000000e+00 0.00000000e+00 0.00000000e+00 0.00000000e+00
 0.00000000e+00 0.00000000e+00 0.00000000e+00 0.00000000e+00
 0.00000000e+00 0.00000000e+00 0.00000000e+00 0.00000000e+00
 0.00000000e+00 0.00000000e+00 0.00000000e+00 0.00000000e+00
 0.00000000e+00 0.00000000e+00 0.00000000e+00 0.00000000e+00
 0.00000000e+00 0.00000000e+00 2.06194865e-07 0.00000000e+00
 0.00000000e+00 0.00000000e+00 0.00000000e+00 9.98781476e-03]"
1786900905.7668412,0.0,0.0,0.0,"[9.98362872e-03 0.00000000e+00 0.00000000e+00 0.00000000e+00
 0.00000000e+00 2.07079755e-07 0.00000000e+00 9.98342751e-03
 0.00000000e+00 0.00000000e+00 0.00000000e+00 0.00000000e+00
 0.00000000e+00 0.00000000e+00 0.00000000e+00 0.00000000e+00
 0.00000000e+00 0.00000000e+00 0.00000000e+00 0.00000000e+00
 0.00000000e+00 0.00000000e+00 0.00000000e+00 0.00000000e+00
 0.00000000e+00 0.00000000e+00 0.00000000e+00 0.00000000e+00
 0.00000000e+00 0.00000000e+00 2.07079755e-07 0.00000000e+00
 0.00000000e+00 0.00000000e+00 0.00000000e+00 9.98763339e-03]"
1786900905.8192244,0.0,0.0,0.0,"[9.98352952e-03 0.00000000e+00 0.00000000e+00 0.00000000e+00
 0.00000000e+00 2.07567618e-07 0.00000000e+00 9.98332784e-03
 0.00000000e+00 0.00000000e+00 0.00000000e+00 0.00000000e+00
 0.00000000e+00 0.00000000e+00 0.00000000e+00 0.00000000e+00
 0.00000000e+00 0.00000000e+00 0.00000000e+00 0.00000000e+00
 0.00000000e+00 0.00000000e+00 0.00000000e+00 0.00000000e+00
 0.00000000e+00 0.00000000e+00 0.00000000e+00 0.00000000e+00
 0.00000000e+00 0.00000000e+00 2.07567618e-07 0.00000000e+00
 0.00000000e+00 0.00000000e+00 0.00000000e+00 9.98754363e-03]"
1786900905.8673582,0.0,0.0,0.0,"[9.98343035e-03 0.00000000e+00 0.00000000e+00 0.00000000e+00
 0.00000000e+00 2.08072708e-07 0.00000000e+00 9.98322818e-03
 0.00000000e+00 0.00000000e+00 0.00000000e+00 0.00000000e+00
 0.00000000e+00 0.00000000e+00 0.00000000e+00 0.00000000e+00
 0.00000000e+00 0.00000000e+00 0.00000000e+00 0.00000000e+00
 0.00000000e+00 0.00000000e+00 0.00000000e+00 0.00000000e+00
 0.00000000e+00 0.00000000e+00 0.00000000e+00 0.00000000e+00
 0.00000000e+00 0.00000000e+00 2.08072708e-07 0.00000000e+00
 0.00000000e+00 0.00000000e+00 0.00000000e+00 9.98745422e-03]"
1786900905.91732,0.0,0.0,0.0,"[9.98323189e-03 0.00000000e+00 0.00000000e+00 0.00000000e+00
 0.00000000e+00 2.08962854e-07 0.00000000e+00 9.98302885e-03
 0.00000000e+00 0.00000000e+00 0.00000000e+00 0.00000000e+00
 0.00000000e+00 0.00000000e+00 0.00000000e+00 0.00000000e+00
 0.00000000e+00 0.00000000e+00 0.00000000e+00 0.00000000e+00
 0.00000000e+00 0.00000000e+00 0.00000000e+00 0.00000000e+00
 0.00000000e+00 0.00000000e+00 0.00000000e+00 0.00000000e+00
 0.00000000e+00 0.00000000e+00 2.08962854e-07 0.00000000e+00
 0.00000000e+00 0.00000000e+00 0.00000000e+00 9.98727298e-03]"
1786900905.9675026,0.0,0.0,0.0,"[9.98303326e-03 0.00000000e+00 0.00000000e+00 0.00000000e+00
 0.00000000e+00 2.09669945e-07 0.00000000e+00 9.98282953e-03
 0.00000000e+00 0.00000000e+00 0.00000000e+00 0.00000000e+00
 0.00000000e+00 0.00000000e+00 0.00000000e+00 0.00000000e+00
 0.00000000e+00 0.00000000e+00 0.00000000e+00 0.00000000e+00
 0.00000000e+00 0.00000000e+00 0.00000000e+00 0.00000000e+00
 0.00000000e+00 0.00000000e+00 0.00000000e+00 0.00000000e+00
 0.00000000e+00 0.00000000e+00 2.09669945e-07 0.00000000e+00
 0.00000000e+00 0.00000000e+00 0.00000000e+00 9.98708802e-03]"
1786900906.0287907,0.0,0.0,0.0,"[9.98293398e-03 0.00000000e+00 0.00000000e+00 0.00000000e+00
 0.00000000e+00 2.10057395e-07 0.00000000e+00 9.98272988e-03
 0.00000000e+00 0.00000000e+00 0.00000000e+00 0.00000000e+00
 0.00000000e+00 0.00000000e+00 0.00000000e+00 0.00000000e+00
 0.00000000e+00 0.00000000e+00 0.00000000e+00 0.00000000e+00
 0.00000000e+00 0.00000000e+00 0.00000000e+00 0.00000000e+00
 0.00000000e+00 0.00000000e+00 0.00000000e+00 0.00000000e+00
 0.00000000e+00 0.00000000e+00 2.10057395e-07 0.00000000e+00
 0.00000000e+00 0.00000000e+00 0.00000000e+00 9.98699623e-03]"
1786900906.0672755,0.0,0.0,0.0,"[9.98273557e-03 0.00000000e+00 0.00000000e+00 0.00000000e+00
 0.00000000e+00 2.10980822e-07 0.00000000e+00 9.98253057e-03
 0.00000000e+00 0.00000000e+00 0.00000000e+00 0.00000000e+00
 0.00000000e+00 0.00000000e+00 0.00000000e+00 0.00000000e+00
 0.00000000e+00 0.00000000e+00 0.00000000e+00 0.00000000e+00
 0.00000000e+00 0.00000000e+00 0.00000000e+00 0.00000000e+00
 0.00000000e+00 0.00000000e+00 0.00000000e+00 0.00000000e+00
 0.00000000e+00 0.00000000e+00 2.10980822e-07 0.00000000e+00
 0.00000000e+00 0.00000000e+00 0.00000000e+00 9.98681568e-03]"
1786900906.1286972,0.0,0.0,0.0,"[9.98263631e-03 0.00000000e+00 0.00000000e+00 0.00000000e+00
 0.00000000e+00 2.11381578e-07 0.00000000e+00 9.98243092e-03
 0.00000000e+00 0.00000000e+00 0.00000000e+00 0.00000000e+00
 0.00000000e+00 0.00000000e+00 0.00000000e+00 0.00000000e+00
 0.00000000e+00 0.00000000e+00 0.00000000e+00 0.00000000e+00
 0.00000000e+00 0.00000000e+00 0.00000000e+00 0.00000000e+00
 0.00000000e+00 0.00000000e+00 0.00000000e+00 0.00000000e+00
 0.00000000e+00 0.00000000e+00 2.11381578e-07 0.00000000e+00
 0.00000000e+00 0.00000000e+00 0.00000000e+00 9.98672417e-03]"
1786900906.1667736,0.0,0.0,0.0,"[9.98243782e-03 0.00000000e+00 0.00000000e+00 0.00000000e+00
 0.00000000e+00 2.12214353e-07 0.00000000e+00 9.98223163e-03
 0.00000000e+00 0.00000000e+00 0.00000000e+00 0.00000000e+00
 0.00000000e+00 0.00000000e+00 0.00000000e+00 0.00000000e+00
 0.00000000e+00 0.00000000e+00 0.00000000e+00 0.00000000e+00
 0.00000000e+00 0.00000000e+00 0.00000000e+00 0.00000000e+00
 0.00000000e+00 0.00000000e+00 0.00000000e+00 0.00000000e+00
 0.00000000e+00 0.00000000e+00 2.12214353e-07 0.00000000e+00
 0.00000000e+00 0.00000000e+00 0.00000000e+00 9.98654179e-03]"
1786900906.2351542,0.0,0.0,0.0,"[9.98233856e-03 0.00000000e+00 0.00000000e+00 0.00000000e+00
 0.00000000e+00 2.12604244e-07 0.00000000e+00 9.98213198e-03
 0.00000000e+00 0.00000000e+00 0.00000000e+00 0.00000000e+00
 0.00000000e+00 0.00000000e+00 0.00000000e+00 0.00000000e+00
 0.00000000e+00 0.00000000e+00 0.00000000e+00 0.00000000e+00
 0.00000000e+00 0.00000000e+00 0.00000000e+00 0.00000000e+00
 0.00000000e+00 0.00000000e+00 0.00000000e+00 0.00000000e+00
 0.00000000e+00 0.00000000e+00 2.12604244e-07 0.00000000e+00
 0.00000000e+00 0.00000000e+00 0.00000000e+00 9.98645007e-03]"
1786900906.2670317,0.0,0.0,0.0,"[9.98223983e-03 0.00000000e+00 0.00000000e+00 0.00000000e+00
 0.00000000e+00 2.13541375e-07 0.00000000e+00 9.98203234e-03
 0.00000000e+00 0.00000000e+00 0.00000000e+00 0.00000000e+00
 0.00000000e+00 0.00000000e+00 0.00000000e+00 0.00000000e+00
 0.00000000e+00 0.00000000e+00 0.00000000e+00 0.00000000e+00
 0.00000000e+00 0.00000000e+00 0.00000000e+00 0.00000000e+00
 0.00000000e+00 0.00000000e+00 0.00000000e+00 0.00000000e+00
 0.00000000e+00 0.00000000e+00 2.13541375e-07 0.00000000e+00
 0.00000000e+00 0.00000000e+00 0.00000000e+00 9.98636946e-03]"
1786900906.3179567,0.0,0.0,0.0,"[9.98204117e-03 0.00000000e+00 0.00000000e+00 0.00000000e+00
 0.00000000e+00 2.14178382e-07 0.00000000e+00 9.98183306e-03
 0.00000000e+00 0.00000000e+00 0.00000000e+00 0.00000000e+00
 0.00000000e+00 0.00000000e+00 0.00000000e+00 0.00000000e+00
 0.00000000e+00 0.00000000e+00 0.00000000e+00 0.00000000e+00
 0.00000000e+00 0.00000000e+00 0.00000000e+00 0.00000000e+00
 0.00000000e+00 0.00000000e+00 0.00000000e+00 0.00000000e+00
 0.00000000e+00 0.00000000e+00 2.14178382e-07 0.00000000e+00
 0.00000000e+00 0.00000000e+00 0.00000000e+00 9.98618312e-03]"
1786900906.3669863,0.0,0.0,0.0,"[9.98184259e-03 0.00000000e+00 0.00000000e+00 0.00000000e+00
 0.00000000e+00 2.14888814e-07 0.00000000e+00 9.98163379e-03
 0.00000000e+00 0.00000000e+00 0.00000000e+00 0.00000000e+00
 0.00000000e+00 0.00000000e+00 0.00000000e+00 0.00000000e+00
 0.00000000e+00 0.00000000e+00 0.00000000e+00 0.00000000e+00
 0.00000000e+00 0.00000000e+00 0.00000000e+00 0.00000000e+00
 0.00000000e+00 0.00000000e+00 0.00000000e+00 0.00000000e+00
 0.00000000e+00 0.00000000e+00 2.14888814e-07 0.00000000e+00
 0.00000000e+00 0.00000000e+00 0.00000000e+00 9.98599828e-03]"
1786900906.4169881,0.0,0.0,0.0,"[9.98184259e-03 0.00000000e+00 0.00000000e+00 0.00000000e+00
 0.00000000e+00 2.14888814e-07 0.00000000e+00 9.98163379e-03
 0.00000000e+00 0.00000000e+00 0.00000000e+00 0.00000000e+00
 0.00000000e+00 0.00000000e+00 0.00000000e+00 0.00000000e+00
 0.00000000e+00 0.00000000e+00 0.00000000e+00 0.00000000e+00
 0.00000000e+00 0.00000000e+00 0.00000000e+00 0.00000000e+00
 0.00000000e+00 0.00000000e+00 0.00000000e+00 0.00000000e+00
 0.00000000e+00 0.00000000e+00 2.14888814e-07 0.00000000e+00
 0.00000000e+00 0.00000000e+00 0.00000000e+00 9.98599828e-03]"
1786900906.467606,0.0,0.0,0.0,"[9.98164458e-03 0.00000000e+00 0.00000000e+00 0.00000000e+00
 0.00000000e+00 2.16180286e-07 0.00000000e+00 9.98143453e-03
 0.00000000e+00 0.00000000e+00 0.00000000e+00 0.00000000e+00
 0.00000000e+00 0.00000000e+00 0.00000000e+00 0.00000000e+00
 0.00000000e+00 0.00000000e+00 0.00000000e+00 0.00000000e+00
 0.00000000e+00 0.00000000e+00 0.00000000e+00 0.00000000e+00
 0.00000000e+00 0.00000000e+00 0.00000000e+00 0.00000000e+00
 0.00000000e+00 0.00000000e+00 2.16180286e-07 0.00000000e+00
 0.00000000e+00 0.00000000e+00 0.00000000e+00 9.98582525e-03]"
1786900906.524227,0.0,0.0,0.0,"[9.98144648e-03 0.00000000e+00 0.00000000e+00 0.00000000e+00
 0.00000000e+00 2.17364114e-07 0.00000000e+00 9.98123528e-03
 0.00000000e+00 0.00000000e+00 0.00000000e+00 0.00000000e+00
 0.00000000e+00 0.00000000e+00 0.00000000e+00 0.00000000e+00
 0.00000000e+00 0.00000000e+00 0.00000000e+00 0.00000000e+00
 0.00000000e+00 0.00000000e+00 0.00000000e+00 0.00000000e+00
 0.00000000e+00 0.00000000e+00 0.00000000e+00 0.00000000e+00
 0.00000000e+00 0.00000000e+00 2.17364114e-07 0.00000000e+00
 0.00000000e+00 0.00000000e+00 0.00000000e+00 9.98565004e-03]"
1786900906.569563,0.0,0.0,0.0,"[9.98134707e-03 0.00000000e+00 0.00000000e+00 0.00000000e+00
 0.00000000e+00 2.17583368e-07 0.00000000e+00 9.98113565e-03
 0.00000000e+00 0.00000000e+00 0.00000000e+00 0.00000000e+00
 0.00000000e+00 0.00000000e+00 0.00000000e+00 0.00000000e+00
 0.00000000e+00 0.00000000e+00 0.00000000e+00 0.00000000e+00
 0.00000000e+00 0.00000000e+00 0.00000000e+00 0.00000000e+00
 0.00000000e+00 0.00000000e+00 0.00000000e+00 0.00000000e+00
 0.00000000e+00 0.00000000e+00 2.17583368e-07 0.00000000e+00
 0.00000000e+00 0.00000000e+00 0.00000000e+00 9.98555487e-03]"
1786900906.6170397,0.0,0.0,0.0,"[9.98114872e-03 0.00000000e+00 0.00000000e+00 0.00000000e+00
 0.00000000e+00 2.18508555e-07 0.00000000e+00 9.98093641e-03
 0.00000000e+00 0.00000000e+00 0.00000000e+00 0.00000000e+00
 0.00000000e+00 0.00000000e+00 0.00000000e+00 0.00000000e+00
 0.00000000e+00 0.00000000e+00 0.00000000e+00 0.00000000e+00
 0.00000000e+00 0.00000000e+00 0.00000000e+00 0.00000000e+00
 0.00000000e+00 0.00000000e+00 0.00000000e+00 0.00000000e+00
 0.00000000e+00 0.00000000e+00 2.18508555e-07 0.00000000e+00
 0.00000000e+00 0.00000000e+00 0.00000000e+00 9.98537441e-03]"
1786900906.6679752,0.0,0.0,0.0,"[9.98095029e-03 0.00000000e+00 0.00000000e+00 0.00000000e+00
 0.00000000e+00 2.19332245e-07 0.00000000e+00 9.98073718e-03
 0.00000000e+00 0.00000000e+00 0.00000000e+00 0.00000000e+00
 0.00000000e+00 0.00000000e+00 0.00000000e+00 0.00000000e+00
 0.00000000e+00 0.00000000e+00 0.00000000e+00 0.00000000e+00
 0.00000000e+00 0.00000000e+00 0.00000000e+00 0.00000000e+00
 0.00000000e+00 0.00000000e+00 0.00000000e+00 0.00000000e+00
 0.00000000e+00 0.00000000e+00 2.19332245e-07 0.00000000e+00
 0.00000000e+00 0.00000000e+00 0.00000000e+00 9.98519191e-03]"
1786900906.7170177,0.0,0.0,0.0,"[9.98085108e-03 0.00000000e+00 0.00000000e+00 0.00000000e+00
 0.00000000e+00 2.19752446e-07 0.00000000e+00 9.98063756e-03
 0.00000000e+00 0.00000000e+00 0.00000000e+00 0.00000000e+00
 0.00000000e+00 0.00000000e+00 0.00000000e+00 0.00000000e+00
 0.00000000e+00 0.00000000e+00 0.00000000e+00 0.00000000e+00
 0.00000000e+00 0.00000000e+00 0.00000000e+00 0.00000000e+00
 0.00000000e+00 0.00000000e+00 0.00000000e+00 0.00000000e+00
 0.00000000e+00 0.00000000e+00 2.19752446e-07 0.00000000e+00
 0.00000000e+00 0.00000000e+00 0.00000000e+00 9.98510083e-03]"
1786900906.7682505,0.0,0.0,0.0,"[9.98065272e-03 0.00000000e+00 0.00000000e+00 0.00000000e+00
 0.00000000e+00 2.20635238e-07 0.00000000e+00 9.98043834e-03
 0.00000000e+00 0.00000000e+00 0.00000000e+00 0.00000000e+00
 0.00000000e+00 0.00000000e+00 0.00000000e+00 0.00000000e+00
 0.00000000e+00 0.00000000e+00 0.00000000e+00 0.00000000e+00
 0.00000000e+00 0.00000000e+00 0.00000000e+00 0.00000000e+00
 0.00000000e+00 0.00000000e+00 0.00000000e+00 0.00000000e+00
 0.00000000e+00 0.00000000e+00 2.20635238e-07 0.00000000e+00
 0.00000000e+00 0.00000000e+00 0.00000000e+00 9.98491954e-03]"
1786900906.8173537,0.0,0.0,0.0,"[9.98055349e-03 0.00000000e+00 0.00000000e+00 0.00000000e+00
 0.00000000e+00 2.21023191e-07 0.00000000e+00 9.98033873e-03
 0.00000000e+00 0.00000000e+00 0.00000000e+00 0.00000000e+00
 0.00000000e+00 0.00000000e+00 0.00000000e+00 0.00000000e+00
 0.00000000e+00 0.00000000e+00 0.00000000e+00 0.00000000e+00
 0.00000000e+00 0.00000000e+00 0.00000000e+00 0.00000000e+00
 0.00000000e+00 0.00000000e+00 0.00000000e+00 0.00000000e+00
 0.00000000e+00 0.00000000e+00 2.21023191e-07 0.00000000e+00
 0.00000000e+00 0.00000000e+00 0.00000000e+00 9.98482781e-03]"
1786900906.8671992,0.0,0.0,0.0,"[9.98035511e-03 0.00000000e+00 0.00000000e+00 0.00000000e+00
 0.00000000e+00 2.21883212e-07 0.00000000e+00 9.98013952e-03
 0.00000000e+00 0.00000000e+00 0.00000000e+00 0.00000000e+00
 0.00000000e+00 0.00000000e+00 0.00000000e+00 0.00000000e+00
 0.00000000e+00 0.00000000e+00 0.00000000e+00 0.00000000e+00
 0.00000000e+00 0.00000000e+00 0.00000000e+00 0.00000000e+00
 0.00000000e+00 0.00000000e+00 0.00000000e+00 0.00000000e+00
 0.00000000e+00 0.00000000e+00 2.21883212e-07 0.00000000e+00
 0.00000000e+00 0.00000000e+00 0.00000000e+00 9.98464607e-03]"
1786900906.9188201,0.0,0.0,0.0,"[9.98025593e-03 0.00000000e+00 0.00000000e+00 0.00000000e+00
 0.00000000e+00 2.22315787e-07 0.00000000e+00 9.98003992e-03
 0.00000000e+00 0.00000000e+00 0.00000000e+00 0.00000000e+00
 0.00000000e+00 0.00000000e+00 0.00000000e+00 0.00000000e+00
 0.00000000e+00 0.00000000e+00 0.00000000e+00 0.00000000e+00
 0.00000000e+00 0.00000000e+00 0.00000000e+00 0.00000000e+00
 0.00000000e+00 0.00000000e+00 0.00000000e+00 0.00000000e+00
 0.00000000e+00 0.00000000e+00 2.22315787e-07 0.00000000e+00
 0.00000000e+00 0.00000000e+00 0.00000000e+00 9.98455525e-03]"
1786900906.9674926,0.0,0.0,0.0,"[9.98005760e-03 0.00000000e+00 0.00000000e+00 0.00000000e+00
 0.00000000e+00 2.23203851e-07 0.00000000e+00 9.97984072e-03
 0.00000000e+00 0.00000000e+00 0.00000000e+00 0.00000000e+00
 0.00000000e+00 0.00000000e+00 0.00000000e+00 0.00000000e+00
 0.00000000e+00 0.00000000e+00 0.00000000e+00 0.00000000e+00
 0.00000000e+00 0.00000000e+00 0.00000000e+00 0.00000000e+00
 0.00000000e+00 0.00000000e+00 0.00000000e+00 0.00000000e+00
 0.00000000e+00 0.00000000e+00 2.23203851e-07 0.00000000e+00
 0.00000000e+00 0.00000000e+00 0.00000000e+00 9.98437409e-03]"
1786900907.0183413,0.0,0.0,0.0,"[9.98005760e-03 0.00000000e+00 0.00000000e+00 0.00000000e+00
 0.00000000e+00 2.23203851e-07 0.00000000e+00 9.97984072e-03
 0.00000000e+00 0.00000000e+00 0.00000000e+00 0.00000000e+00
 0.00000000e+00 0.00000000e+00 0.00000000e+00 0.00000000e+00
 0.00000000e+00 0.00000000e+00 0.00000000e+00 0.00000000e+00
 0.00000000e+00 0.00000000e+00 0.00000000e+00 0.00000000e+00
 0.00000000e+00 0.00000000e+00 0.00000000e+00 0.00000000e+00
 0.00000000e+00 0.00000000e+00 2.23203851e-07 0.00000000e+00
 0.00000000e+00 0.00000000e+00 0.00000000e+00 9.98437409e-03]"
1786900907.0705984,0.0,0.0,0.0,"[9.97985992e-03 0.00000000e+00 0.00000000e+00 0.00000000e+00
 0.00000000e+00 2.24761607e-07 0.00000000e+00 9.97964153e-03
 0.00000000e+00 0.00000000e+00 0.00000000e+00 0.00000000e+00
 0.00000000e+00 0.00000000e+00 0.00000000e+00 0.00000000e+00
 0.00000000e+00 0.00000000e+00 0.00000000e+00 0.00000000e+00
 0.00000000e+00 0.00000000e+00 0.00000000e+00 0.00000000e+00
 0.00000000e+00 0.00000000e+00 0.00000000e+00 0.00000000e+00
 0.00000000e+00 0.00000000e+00 2.24761607e-07 0.00000000e+00
 0.00000000e+00 0.00000000e+00 0.00000000e+00 9.98420654e-03]"
1786900907.119116,0.0,0.0,0.0,"[9.97966193e-03 0.00000000e+00 0.00000000e+00 0.00000000e+00
 0.00000000e+00 2.25984940e-07 0.00000000e+00 9.97944235e-03
 0.00000000e+00 0.00000000e+00 0.00000000e+00 0.00000000e+00
 0.00000000e+00 0.00000000e+00 0.00000000e+00 0.00000000e+00
 0.00000000e+00 0.00000000e+00 0.00000000e+00 0.00000000e+00
 0.00000000e+00 0.00000000e+00 0.00000000e+00 0.00000000e+00
 0.00000000e+00 0.00000000e+00 0.00000000e+00 0.00000000e+00
 0.00000000e+00 0.00000000e+00 2.25984940e-07 0.00000000e+00
 0.00000000e+00 0.00000000e+00 0.00000000e+00 9.98403220e-03]"
1786900907.2203684,0.0,0.0,0.0,"[9.97956250e-03 0.00000000e+00 0.00000000e+00 0.00000000e+00
 0.00000000e+00 2.26152999e-07 0.00000000e+00 9.97934276e-03
 0.00000000e+00 0.00000000e+00 0.00000000e+00 0.00000000e+00
 0.00000000e+00 0.00000000e+00 0.00000000e+00 0.00000000e+00
 0.00000000e+00 0.00000000e+00 0.00000000e+00 0.00000000e+00
 0.00000000e+00 0.00000000e+00 0.00000000e+00 0.00000000e+00
 0.00000000e+00 0.00000000e+00 0.00000000e+00 0.00000000e+00
 0.00000000e+00 0.00000000e+00 2.26152999e-07 0.00000000e+00
 0.00000000e+00 0.00000000e+00 0.00000000e+00 9.98393603e-03]"
1786900907.2672694,0.0,0.0,0.0,"[9.97926719e-03 0.00000000e+00 0.00000000e+00 0.00000000e+00
 0.00000000e+00 2.29693763e-07 0.00000000e+00 9.97904401e-03
 0.00000000e+00 0.00000000e+00 0.00000000e+00 0.00000000e+00
 0.00000000e+00 0.00000000e+00 0.00000000e+00 0.00000000e+00
 0.00000000e+00 0.00000000e+00 0.00000000e+00 0.00000000e+00
 0.00000000e+00 0.00000000e+00 0.00000000e+00 0.00000000e+00
 0.00000000e+00 0.00000000e+00 0.00000000e+00 0.00000000e+00
 0.00000000e+00 0.00000000e+00 2.29693763e-07 0.00000000e+00
 0.00000000e+00 0.00000000e+00 0.00000000e+00 9.98370919e-03]"
1786900907.3173676,0.0,0.0,0.0,"[9.97916813e-03 0.00000000e+00 0.00000000e+00 0.00000000e+00
 0.00000000e+00 2.30235728e-07 0.00000000e+00 9.97894443e-03
 0.00000000e+00 0.00000000e+00 0.00000000e+00 0.00000000e+00
 0.00000000e+00 0.00000000e+00 0.00000000e+00 0.00000000e+00
 0.00000000e+00 0.00000000e+00 0.00000000e+00 0.00000000e+00
 0.00000000e+00 0.00000000e+00 0.00000000e+00 0.00000000e+00
 0.00000000e+00 0.00000000e+00 0.00000000e+00 0.00000000e+00
 0.00000000e+00 0.00000000e+00 2.30235728e-07 0.00000000e+00
 0.00000000e+00 0.00000000e+00 0.00000000e+00 9.98362061e-03]"
1786900907.3672118,0.0,0.0,0.0,"[9.97896981e-03 0.00000000e+00 0.00000000e+00 0.00000000e+00
 0.00000000e+00 2.31094910e-07 0.00000000e+00 9.97874527e-03
 0.00000000e+00 0.00000000e+00 0.00000000e+00 0.00000000e+00
 0.00000000e+00 0.00000000e+00 0.00000000e+00 0.00000000e+00
 0.00000000e+00 0.00000000e+00 0.00000000e+00 0.00000000e+00
 0.00000000e+00 0.00000000e+00 0.00000000e+00 0.00000000e+00
 0.00000000e+00 0.00000000e+00 0.00000000e+00 0.00000000e+00
 0.00000000e+00 0.00000000e+00 2.31094910e-07 0.00000000e+00
 0.00000000e+00 0.00000000e+00 0.00000000e+00 9.98343891e-03]"
1786900907.4179802,0.0,0.0,0.0,"[9.97887069e-03 0.00000000e+00 0.00000000e+00 0.00000000e+00
 0.00000000e+00 2.31562327e-07 0.00000000e+00 9.97864570e-03
 0.00000000e+00 0.00000000e+00 0.00000000e+00 0.00000000e+00
 0.00000000e+00 0.00000000e+00 0.00000000e+00 0.00000000e+00
 0.00000000e+00 0.00000000e+00 0.00000000e+00 0.00000000e+00
 0.00000000e+00 0.00000000e+00 0.00000000e+00 0.00000000e+00
 0.00000000e+00 0.00000000e+00 0.00000000e+00 0.00000000e+00
 0.00000000e+00 0.00000000e+00 2.31562327e-07 0.00000000e+00
 0.00000000e+00 0.00000000e+00 0.00000000e+00 9.98334883e-03]"
1786900907.4762173,0.0,0.0,0.0,"[9.97877144e-03 0.00000000e+00 0.00000000e+00 0.00000000e+00
 0.00000000e+00 2.31893934e-07 0.00000000e+00 9.97854613e-03
 0.00000000e+00 0.00000000e+00 0.00000000e+00 0.00000000e+00
 0.00000000e+00 0.00000000e+00 0.00000000e+00 0.00000000e+00
 0.00000000e+00 0.00000000e+00 0.00000000e+00 0.00000000e+00
 0.00000000e+00 0.00000000e+00 0.00000000e+00 0.00000000e+00
 0.00000000e+00 0.00000000e+00 0.00000000e+00 0.00000000e+00
 0.00000000e+00 0.00000000e+00 2.31893934e-07 0.00000000e+00
 0.00000000e+00 0.00000000e+00 0.00000000e+00 9.98325599e-03]"
1786900907.5167606,0.0,0.0,0.0,"[9.97857337e-03 0.00000000e+00 0.00000000e+00 0.00000000e+00
 0.00000000e+00 2.32985275e-07 0.00000000e+00 9.97834699e-03
 0.00000000e+00 0.00000000e+00 0.00000000e+00 0.00000000e+00
 0.00000000e+00 0.00000000e+00 0.00000000e+00 0.00000000e+00
 0.00000000e+00 0.00000000e+00 0.00000000e+00 0.00000000e+00
 0.00000000e+00 0.00000000e+00 0.00000000e+00 0.00000000e+00
 0.00000000e+00 0.00000000e+00 0.00000000e+00 0.00000000e+00
 0.00000000e+00 0.00000000e+00 2.32985275e-07 0.00000000e+00
 0.00000000e+00 0.00000000e+00 0.00000000e+00 9.98307902e-03]"
1786900907.5674791,0.0,0.0,0.0,"[9.97847418e-03 0.00000000e+00 0.00000000e+00 0.00000000e+00
 0.00000000e+00 2.33373869e-07 0.00000000e+00 9.97824742e-03
 0.00000000e+00 0.00000000e+00 0.00000000e+00 0.00000000e+00
 0.00000000e+00 0.00000000e+00 0.00000000e+00 0.00000000e+00
 0.00000000e+00 0.00000000e+00 0.00000000e+00 0.00000000e+00
 0.00000000e+00 0.00000000e+00 0.00000000e+00 0.00000000e+00
 0.00000000e+00 0.00000000e+00 0.00000000e+00 0.00000000e+00
 0.00000000e+00 0.00000000e+00 2.33373869e-07 0.00000000e+00
 0.00000000e+00 0.00000000e+00 0.00000000e+00 9.98298734e-03]"
1786900907.617712,0.0,0.0,0.0,"[9.97827601e-03 0.00000000e+00 0.00000000e+00 0.00000000e+00
 0.00000000e+00 2.34361709e-07 0.00000000e+00 9.97804829e-03
 0.00000000e+00 0.00000000e+00 0.00000000e+00 0.00000000e+00
 0.00000000e+00 0.00000000e+00 0.00000000e+00 0.00000000e+00
 0.00000000e+00 0.00000000e+00 0.00000000e+00 0.00000000e+00
 0.00000000e+00 0.00000000e+00 0.00000000e+00 0.00000000e+00
 0.00000000e+00 0.00000000e+00 0.00000000e+00 0.00000000e+00
 0.00000000e+00 0.00000000e+00 2.34361709e-07 0.00000000e+00
 0.00000000e+00 0.00000000e+00 0.00000000e+00 9.98280828e-03]"
1786900907.6673293,0.0,0.0,0.0,"[9.97807746e-03 0.00000000e+00 0.00000000e+00 0.00000000e+00
 0.00000000e+00 2.34946238e-07 0.00000000e+00 9.97784917e-03
 0.00000000e+00 0.00000000e+00 0.00000000e+00 0.00000000e+00
 0.00000000e+00 0.00000000e+00 0.00000000e+00 0.00000000e+00
 0.00000000e+00 0.00000000e+00 0.00000000e+00 0.00000000e+00
 0.00000000e+00 0.00000000e+00 0.00000000e+00 0.00000000e+00
 0.00000000e+00 0.00000000e+00 0.00000000e+00 0.00000000e+00
 0.00000000e+00 0.00000000e+00 2.34946238e-07 0.00000000e+00
 0.00000000e+00 0.00000000e+00 0.00000000e+00 9.98262103e-03]"
1786900907.7228305,0.0,0.0,0.0,"[9.97797828e-03 0.00000000e+00 0.00000000e+00 0.00000000e+00
 0.00000000e+00 2.35331945e-07 0.00000000e+00 9.97774962e-03
 0.00000000e+00 0.00000000e+00 0.00000000e+00 0.00000000e+00
 0.00000000e+00 0.00000000e+00 0.00000000e+00 0.00000000e+00
 0.00000000e+00 0.00000000e+00 0.00000000e+00 0.00000000e+00
 0.00000000e+00 0.00000000e+00 0.00000000e+00 0.00000000e+00
 0.00000000e+00 0.00000000e+00 0.00000000e+00 0.00000000e+00
 0.00000000e+00 0.00000000e+00 2.35331945e-07 0.00000000e+00
 0.00000000e+00 0.00000000e+00 0.00000000e+00 9.98252931e-03]"
1786900907.7677782,0.0,0.0,0.0,"[9.97787914e-03 0.00000000e+00 0.00000000e+00 0.00000000e+00
 0.00000000e+00 2.35761733e-07 0.00000000e+00 9.97765006e-03
 0.00000000e+00 0.00000000e+00 0.00000000e+00 0.00000000e+00
 0.00000000e+00 0.00000000e+00 0.00000000e+00 0.00000000e+00
 0.00000000e+00 0.00000000e+00 0.00000000e+00 0.00000000e+00
 0.00000000e+00 0.00000000e+00 0.00000000e+00 0.00000000e+00
 0.00000000e+00 0.00000000e+00 0.00000000e+00 0.00000000e+00
 0.00000000e+00 0.00000000e+00 2.35761733e-07 0.00000000e+00
 0.00000000e+00 0.00000000e+00 0.00000000e+00 9.98243849e-03]"
1786900907.8169625,0.0,0.0,0.0,"[9.97768131e-03 0.00000000e+00 0.00000000e+00 0.00000000e+00
 0.00000000e+00 2.37076264e-07 0.00000000e+00 9.97745096e-03
 0.00000000e+00 0.00000000e+00 0.00000000e+00 0.00000000e+00
 0.00000000e+00 0.00000000e+00 0.00000000e+00 0.00000000e+00
 0.00000000e+00 0.00000000e+00 0.00000000e+00 0.00000000e+00
 0.00000000e+00 0.00000000e+00 0.00000000e+00 0.00000000e+00
 0.00000000e+00 0.00000000e+00 0.00000000e+00 0.00000000e+00
 0.00000000e+00 0.00000000e+00 2.37076264e-07 0.00000000e+00
 0.00000000e+00 0.00000000e+00 0.00000000e+00 9.98226608e-03]"
1786900907.8679845,0.0,0.0,0.0,"[9.97758189e-03 0.00000000e+00 0.00000000e+00 0.00000000e+00
 0.00000000e+00 2.37207002e-07 0.00000000e+00 9.97735141e-03
 0.00000000e+00 0.00000000e+00 0.00000000e+00 0.00000000e+00
 0.00000000e+00 0.00000000e+00 0.00000000e+00 0.00000000e+00
 0.00000000e+00 0.00000000e+00 0.00000000e+00 0.00000000e+00
 0.00000000e+00 0.00000000e+00 0.00000000e+00 0.00000000e+00
 0.00000000e+00 0.00000000e+00 0.00000000e+00 0.00000000e+00
 0.00000000e+00 0.00000000e+00 2.37207002e-07 0.00000000e+00
 0.00000000e+00 0.00000000e+00 0.00000000e+00 9.98216919e-03]"
1786900907.9560838,0.0,0.0,0.0,"[9.97748284e-03 0.00000000e+00 0.00000000e+00 0.00000000e+00
 0.00000000e+00 2.37709381e-07 0.00000000e+00 9.97725187e-03
 0.00000000e+00 0.00000000e+00 0.00000000e+00 0.00000000e+00
 0.00000000e+00 0.00000000e+00 0.00000000e+00 0.00000000e+00
 0.00000000e+00 0.00000000e+00 0.00000000e+00 0.00000000e+00
 0.00000000e+00 0.00000000e+00 0.00000000e+00 0.00000000e+00
 0.00000000e+00 0.00000000e+00 0.00000000e+00 0.00000000e+00
 0.00000000e+00 0.00000000e+00 2.37709381e-07 0.00000000e+00
 0.00000000e+00 0.00000000e+00 0.00000000e+00 9.98207985e-03]"
1786900907.9669302,0.0,0.0,0.0,"[9.97728654e-03 0.00000000e+00 0.00000000e+00 0.00000000e+00
 0.00000000e+00 2.40584053e-07 0.00000000e+00 9.97705278e-03
 0.00000000e+00 0.00000000e+00 0.00000000e+00 0.00000000e+00
 0.00000000e+00 0.00000000e+00 0.00000000e+00 0.00000000e+00
 0.00000000e+00 0.00000000e+00 0.00000000e+00 0.00000000e+00
 0.00000000e+00 0.00000000e+00 0.00000000e+00 0.00000000e+00
 0.00000000e+00 0.00000000e+00 0.00000000e+00 0.00000000e+00
 0.00000000e+00 0.00000000e+00 2.40584053e-07 0.00000000e+00
 0.00000000e+00 0.00000000e+00 0.00000000e+00 9.98193914e-03]"
1786900908.023493,0.0,0.0,0.0,"[9.97718734e-03 0.00000000e+00 0.00000000e+00 0.00000000e+00
 0.00000000e+00 2.40930677e-07 0.00000000e+00 9.97695324e-03
 0.00000000e+00 0.00000000e+00 0.00000000e+00 0.00000000e+00
 0.00000000e+00 0.00000000e+00 0.00000000e+00 0.00000000e+00
 0.00000000e+00 0.00000000e+00 0.00000000e+00 0.00000000e+00
 0.00000000e+00 0.00000000e+00 0.00000000e+00 0.00000000e+00
 0.00000000e+00 0.00000000e+00 0.00000000e+00 0.00000000e+00
 0.00000000e+00 0.00000000e+00 2.40930677e-07 0.00000000e+00
 0.00000000e+00 0.00000000e+00 0.00000000e+00 9.98184664e-03]"
1786900908.0768647,0.0,0.0,0.0,"[9.97708821e-03 0.00000000e+00 0.00000000e+00 0.00000000e+00
 0.00000000e+00 2.41352280e-07 0.00000000e+00 9.97685370e-03
 0.00000000e+00 0.00000000e+00 0.00000000e+00 0.00000000e+00
 0.00000000e+00 0.00000000e+00 0.00000000e+00 0.00000000e+00
 0.00000000e+00 0.00000000e+00 0.00000000e+00 0.00000000e+00
 0.00000000e+00 0.00000000e+00 0.00000000e+00 0.00000000e+00
 0.00000000e+00 0.00000000e+00 0.00000000e+00 0.00000000e+00
 0.00000000e+00 0.00000000e+00 2.41352280e-07 0.00000000e+00
 0.00000000e+00 0.00000000e+00 0.00000000e+00 9.98175567e-03]"
1786900908.1171577,0.0,0.0,0.0,"[9.97689048e-03 0.00000000e+00 0.00000000e+00 0.00000000e+00
 0.00000000e+00 2.42729705e-07 0.00000000e+00 9.97665463e-03
 0.00000000e+00 0.00000000e+00 0.00000000e+00 0.00000000e+00
 0.00000000e+00 0.00000000e+00 0.00000000e+00 0.00000000e+00
 0.00000000e+00 0.00000000e+00 0.00000000e+00 0.00000000e+00
 0.00000000e+00 0.00000000e+00 0.00000000e+00 0.00000000e+00
 0.00000000e+00 0.00000000e+00 0.00000000e+00 0.00000000e+00
 0.00000000e+00 0.00000000e+00 2.42729705e-07 0.00000000e+00
 0.00000000e+00 0.00000000e+00 0.00000000e+00 9.98158457e-03]"
1786900908.1673322,0.0,0.0,0.0,"[9.97679139e-03 0.00000000e+00 0.00000000e+00 0.00000000e+00
 0.00000000e+00 2.43184853e-07 0.00000000e+00 9.97655510e-03
 0.00000000e+00 0.00000000e+00 0.00000000e+00 0.00000000e+00
 0.00000000e+00 0.00000000e+00 0.00000000e+00 0.00000000e+00
 0.00000000e+00 0.00000000e+00 0.00000000e+00 0.00000000e+00
 0.00000000e+00 0.00000000e+00 0.00000000e+00 0.00000000e+00
 0.00000000e+00 0.00000000e+00 0.00000000e+00 0.00000000e+00
 0.00000000e+00 0.00000000e+00 2.43184853e-07 0.00000000e+00
 0.00000000e+00 0.00000000e+00 0.00000000e+00 9.98149429e-03]"
1786900908.2189872,0.0,0.0,0.0,"[9.97659358e-03 0.00000000e+00 0.00000000e+00 0.00000000e+00
 0.00000000e+00 2.44479788e-07 0.00000000e+00 9.97635604e-03
 0.00000000e+00 0.00000000e+00 0.00000000e+00 0.00000000e+00
 0.00000000e+00 0.00000000e+00 0.00000000e+00 0.00000000e+00
 0.00000000e+00 0.00000000e+00 0.00000000e+00 0.00000000e+00
 0.00000000e+00 0.00000000e+00 0.00000000e+00 0.00000000e+00
 0.00000000e+00 0.00000000e+00 0.00000000e+00 0.00000000e+00
 0.00000000e+00 0.00000000e+00 2.44479788e-07 0.00000000e+00
 0.00000000e+00 0.00000000e+00 0.00000000e+00 9.98132153e-03]"
1786900908.2670672,0.0,0.0,0.0,"[9.97649417e-03 0.00000000e+00 0.00000000e+00 0.00000000e+00
 0.00000000e+00 2.44597624e-07 0.00000000e+00 9.97625651e-03
 0.00000000e+00 0.00000000e+00 0.00000000e+00 0.00000000e+00
 0.00000000e+00 0.00000000e+00 0.00000000e+00 0.00000000e+00
 0.00000000e+00 0.00000000e+00 0.00000000e+00 0.00000000e+00
 0.00000000e+00 0.00000000e+00 0.00000000e+00 0.00000000e+00
 0.00000000e+00 0.00000000e+00 0.00000000e+00 0.00000000e+00
 0.00000000e+00 0.00000000e+00 2.44597624e-07 0.00000000e+00
 0.00000000e+00 0.00000000e+00 0.00000000e+00 9.98122439e-03]"
1786900908.3170662,0.0,0.0,0.0,"[9.97639540e-03 0.00000000e+00 0.00000000e+00 0.00000000e+00
 0.00000000e+00 2.45370126e-07 0.00000000e+00 9.97615698e-03
 0.00000000e+00 0.00000000e+00 0.00000000e+00 0.00000000e+00
 0.00000000e+00 0.00000000e+00 0.00000000e+00 0.00000000e+00
 0.00000000e+00 0.00000000e+00 0.00000000e+00 0.00000000e+00
 0.00000000e+00 0.00000000e+00 0.00000000e+00 0.00000000e+00
 0.00000000e+00 0.00000000e+00 0.00000000e+00 0.00000000e+00
 0.00000000e+00 0.00000000e+00 2.45370126e-07 0.00000000e+00
 0.00000000e+00 0.00000000e+00 0.00000000e+00 9.98114056e-03]"
1786900908.367198,0.0,0.0,0.0,"[9.97609832e-03 0.00000000e+00 0.00000000e+00 0.00000000e+00
 0.00000000e+00 2.46893522e-07 0.00000000e+00 9.97585842e-03
 0.00000000e+00 0.00000000e+00 0.00000000e+00 0.00000000e+00
 0.00000000e+00 0.00000000e+00 0.00000000e+00 0.00000000e+00
 0.00000000e+00 0.00000000e+00 0.00000000e+00 0.00000000e+00
 0.00000000e+00 0.00000000e+00 0.00000000e+00 0.00000000e+00
 0.00000000e+00 0.00000000e+00 0.00000000e+00 0.00000000e+00
 0.00000000e+00 0.00000000e+00 2.46893522e-07 0.00000000e+00
 0.00000000e+00 0.00000000e+00 0.00000000e+00 9.98087294e-03]"
1786900908.417268,0.0,0.0,0.0,"[9.97599909e-03 0.00000000e+00 0.00000000e+00 0.00000000e+00
 0.00000000e+00 2.47197495e-07 0.00000000e+00 9.97575891e-03
 0.00000000e+00 0.00000000e+00 0.00000000e+00 0.00000000e+00
 0.00000000e+00 0.00000000e+00 0.00000000e+00 0.00000000e+00
 0.00000000e+00 0.00000000e+00 0.00000000e+00 0.00000000e+00
 0.00000000e+00 0.00000000e+00 0.00000000e+00 0.00000000e+00
 0.00000000e+00 0.00000000e+00 0.00000000e+00 0.00000000e+00
 0.00000000e+00 0.00000000e+00 2.47197495e-07 0.00000000e+00
 0.00000000e+00 0.00000000e+00 0.00000000e+00 9.98077959e-03]"
1786900908.46696,0.0,0.0,0.0,"[9.97580088e-03 0.00000000e+00 0.00000000e+00 0.00000000e+00
 0.00000000e+00 2.48039078e-07 0.00000000e+00 9.97555988e-03
 0.00000000e+00 0.00000000e+00 0.00000000e+00 0.00000000e+00
 0.00000000e+00 0.00000000e+00 0.00000000e+00 0.00000000e+00
 0.00000000e+00 0.00000000e+00 0.00000000e+00 0.00000000e+00
 0.00000000e+00 0.00000000e+00 0.00000000e+00 0.00000000e+00
 0.00000000e+00 0.00000000e+00 0.00000000e+00 0.00000000e+00
 0.00000000e+00 0.00000000e+00 2.48039078e-07 0.00000000e+00
 0.00000000e+00 0.00000000e+00 0.00000000e+00 9.98059766e-03]"
1786900908.516964,0.0,0.0,0.0,"[9.97570179e-03 0.00000000e+00 0.00000000e+00 0.00000000e+00
 0.00000000e+00 2.48469262e-07 0.00000000e+00 9.97546037e-03
 0.00000000e+00 0.00000000e+00 0.00000000e+00 0.00000000e+00
 0.00000000e+00 0.00000000e+00 0.00000000e+00 0.00000000e+00
 0.00000000e+00 0.00000000e+00 0.00000000e+00 0.00000000e+00
 0.00000000e+00 0.00000000e+00 0.00000000e+00 0.00000000e+00
 0.00000000e+00 0.00000000e+00 0.00000000e+00 0.00000000e+00
 0.00000000e+00 0.00000000e+00 2.48469262e-07 0.00000000e+00
 0.00000000e+00 0.00000000e+00 0.00000000e+00 9.98050689e-03]"
1786900908.567251,0.0,0.0,0.0,"[9.97550360e-03 0.00000000e+00 0.00000000e+00 0.00000000e+00
 0.00000000e+00 2.49321294e-07 0.00000000e+00 9.97526135e-03
 0.00000000e+00 0.00000000e+00 0.00000000e+00 0.00000000e+00
 0.00000000e+00 0.00000000e+00 0.00000000e+00 0.00000000e+00
 0.00000000e+00 0.00000000e+00 0.00000000e+00 0.00000000e+00
 0.00000000e+00 0.00000000e+00 0.00000000e+00 0.00000000e+00
 0.00000000e+00 0.00000000e+00 0.00000000e+00 0.00000000e+00
 0.00000000e+00 0.00000000e+00 2.49321294e-07 0.00000000e+00
 0.00000000e+00 0.00000000e+00 0.00000000e+00 9.98032518e-03]"
1786900908.6169899,0.0,0.0,0.0,"[9.97540454e-03 0.00000000e+00 0.00000000e+00 0.00000000e+00
 0.00000000e+00 2.49771095e-07 0.00000000e+00 9.97516185e-03
 0.00000000e+00 0.00000000e+00 0.00000000e+00 0.00000000e+00
 0.00000000e+00 0.00000000e+00 0.00000000e+00 0.00000000e+00
 0.00000000e+00 0.00000000e+00 0.00000000e+00 0.00000000e+00
 0.00000000e+00 0.00000000e+00 0.00000000e+00 0.00000000e+00
 0.00000000e+00 0.00000000e+00 0.00000000e+00 0.00000000e+00
 0.00000000e+00 0.00000000e+00 2.49771095e-07 0.00000000e+00
 0.00000000e+00 0.00000000e+00 0.00000000e+00 9.98023481e-03]"
1786900908.6692274,0.0,0.0,0.0,"[9.97520646e-03 0.00000000e+00 0.00000000e+00 0.00000000e+00
 0.00000000e+00 2.50725521e-07 0.00000000e+00 9.97496284e-03
 0.00000000e+00 0.00000000e+00 0.00000000e+00 0.00000000e+00
 0.00000000e+00 0.00000000e+00 0.00000000e+00 0.00000000e+00
 0.00000000e+00 0.00000000e+00 0.00000000e+00 0.00000000e+00
 0.00000000e+00 0.00000000e+00 0.00000000e+00 0.00000000e+00
 0.00000000e+00 0.00000000e+00 0.00000000e+00 0.00000000e+00
 0.00000000e+00 0.00000000e+00 2.50725521e-07 0.00000000e+00
 0.00000000e+00 0.00000000e+00 0.00000000e+00 9.98005519e-03]"
1786900908.717934,0.0,0.0,0.0,"[9.97510726e-03 0.00000000e+00 0.00000000e+00 0.00000000e+00
 0.00000000e+00 2.51031177e-07 0.00000000e+00 9.97486334e-03
 0.00000000e+00 0.00000000e+00 0.00000000e+00 0.00000000e+00
 0.00000000e+00 0.00000000e+00 0.00000000e+00 0.00000000e+00
 0.00000000e+00 0.00000000e+00 0.00000000e+00 0.00000000e+00
 0.00000000e+00 0.00000000e+00 0.00000000e+00 0.00000000e+00
 0.00000000e+00 0.00000000e+00 0.00000000e+00 0.00000000e+00
 0.00000000e+00 0.00000000e+00 2.51031177e-07 0.00000000e+00
 0.00000000e+00 0.00000000e+00 0.00000000e+00 9.97996190e-03]"
1786900908.7677877,0.0,0.0,0.0,"[9.97490917e-03 0.00000000e+00 0.00000000e+00 0.00000000e+00
 0.00000000e+00 2.51966058e-07 0.00000000e+00 9.97466435e-03
 0.00000000e+00 0.00000000e+00 0.00000000e+00 0.00000000e+00
 0.00000000e+00 0.00000000e+00 0.00000000e+00 0.00000000e+00
 0.00000000e+00 0.00000000e+00 0.00000000e+00 0.00000000e+00
 0.00000000e+00 0.00000000e+00 0.00000000e+00 0.00000000e+00
 0.00000000e+00 0.00000000e+00 0.00000000e+00 0.00000000e+00
 0.00000000e+00 0.00000000e+00 2.51966058e-07 0.00000000e+00
 0.00000000e+00 0.00000000e+00 0.00000000e+00 9.97978189e-03]"
1786900908.816973,0.0,0.0,0.0,"[9.97481009e-03 0.00000000e+00 0.00000000e+00 0.00000000e+00
 0.00000000e+00 2.52382973e-07 0.00000000e+00 9.97456486e-03
 0.00000000e+00 0.00000000e+00 0.00000000e+00 0.00000000e+00
 0.00000000e+00 0.00000000e+00 0.00000000e+00 0.00000000e+00
 0.00000000e+00 0.00000000e+00 0.00000000e+00 0.00000000e+00
 0.00000000e+00 0.00000000e+00 0.00000000e+00 0.00000000e+00
 0.00000000e+00 0.00000000e+00 0.00000000e+00 0.00000000e+00
 0.00000000e+00 0.00000000e+00 2.52382973e-07 0.00000000e+00
 0.00000000e+00 0.00000000e+00 0.00000000e+00 9.97969087e-03]"
1786900908.8670514,0.0,0.0,0.0,"[9.97461185e-03 0.00000000e+00 0.00000000e+00 0.00000000e+00
 0.00000000e+00 2.53147031e-07 0.00000000e+00 9.97436588e-03
 0.00000000e+00 0.00000000e+00 0.00000000e+00 0.00000000e+00
 0.00000000e+00 0.00000000e+00 0.00000000e+00 0.00000000e+00
 0.00000000e+00 0.00000000e+00 0.00000000e+00 0.00000000e+00
 0.00000000e+00 0.00000000e+00 0.00000000e+00 0.00000000e+00
 0.00000000e+00 0.00000000e+00 0.00000000e+00 0.00000000e+00
 0.00000000e+00 0.00000000e+00 2.53147031e-07 0.00000000e+00
 0.00000000e+00 0.00000000e+00 0.00000000e+00 9.97950741e-03]"
1786900908.9173048,0.0,0.0,0.0,"[9.97451279e-03 0.00000000e+00 0.00000000e+00 0.00000000e+00
 0.00000000e+00 2.53589737e-07 0.00000000e+00 9.97426639e-03
 0.00000000e+00 0.00000000e+00 0.00000000e+00 0.00000000e+00
 0.00000000e+00 0.00000000e+00 0.00000000e+00 0.00000000e+00
 0.00000000e+00 0.00000000e+00 0.00000000e+00 0.00000000e+00
 0.00000000e+00 0.00000000e+00 0.00000000e+00 0.00000000e+00
 0.00000000e+00 0.00000000e+00 0.00000000e+00 0.00000000e+00
 0.00000000e+00 0.00000000e+00 2.53589737e-07 0.00000000e+00
 0.00000000e+00 0.00000000e+00 0.00000000e+00 9.97941691e-03]"
1786900908.9678614,0.0,0.0,0.0,"[9.97431468e-03 0.00000000e+00 0.00000000e+00 0.00000000e+00
 0.00000000e+00 2.54474151e-07 0.00000000e+00 9.97406742e-03
 0.00000000e+00 0.00000000e+00 0.00000000e+00 0.00000000e+00
 0.00000000e+00 0.00000000e+00 0.00000000e+00 0.00000000e+00
 0.00000000e+00 0.00000000e+00 0.00000000e+00 0.00000000e+00
 0.00000000e+00 0.00000000e+00 0.00000000e+00 0.00000000e+00
 0.00000000e+00 0.00000000e+00 0.00000000e+00 0.00000000e+00
 0.00000000e+00 0.00000000e+00 2.54474151e-07 0.00000000e+00
 0.00000000e+00 0.00000000e+00 0.00000000e+00 9.97923590e-03]"
1786900909.0200577,0.0,0.0,0.0,"[9.97421615e-03 0.00000000e+00 0.00000000e+00 0.00000000e+00
 0.00000000e+00 2.55454043e-07 0.00000000e+00 9.97396794e-03
 0.00000000e+00 0.00000000e+00 0.00000000e+00 0.00000000e+00
 0.00000000e+00 0.00000000e+00 0.00000000e+00 0.00000000e+00
 0.00000000e+00 0.00000000e+00 0.00000000e+00 0.00000000e+00
 0.00000000e+00 0.00000000e+00 0.00000000e+00 0.00000000e+00
 0.00000000e+00 0.00000000e+00 0.00000000e+00 0.00000000e+00
 0.00000000e+00 0.00000000e+00 2.55454043e-07 0.00000000e+00
 0.00000000e+00 0.00000000e+00 0.00000000e+00 9.97915633e-03]"
1786900909.073743,0.0,0.0,0.0,"[9.97411686e-03 0.00000000e+00 0.00000000e+00 0.00000000e+00
 0.00000000e+00 2.55642618e-07 0.00000000e+00 9.97386846e-03
 0.00000000e+00 0.00000000e+00 0.00000000e+00 0.00000000e+00
 0.00000000e+00 0.00000000e+00 0.00000000e+00 0.00000000e+00
 0.00000000e+00 0.00000000e+00 0.00000000e+00 0.00000000e+00
 0.00000000e+00 0.00000000e+00 0.00000000e+00 0.00000000e+00
 0.00000000e+00 0.00000000e+00 0.00000000e+00 0.00000000e+00
 0.00000000e+00 0.00000000e+00 2.55642618e-07 0.00000000e+00
 0.00000000e+00 0.00000000e+00 0.00000000e+00 9.97906068e-03]"
1786900909.1278503,0.0,0.0,0.0,"[9.97391859e-03 0.00000000e+00 0.00000000e+00 0.00000000e+00
 0.00000000e+00 2.56345063e-07 0.00000000e+00 9.97366951e-03
 0.00000000e+00 0.00000000e+00 0.00000000e+00 0.00000000e+00
 0.00000000e+00 0.00000000e+00 0.00000000e+00 0.00000000e+00
 0.00000000e+00 0.00000000e+00 0.00000000e+00 0.00000000e+00
 0.00000000e+00 0.00000000e+00 0.00000000e+00 0.00000000e+00
 0.00000000e+00 0.00000000e+00 0.00000000e+00 0.00000000e+00
 0.00000000e+00 0.00000000e+00 2.56345063e-07 0.00000000e+00
 0.00000000e+00 0.00000000e+00 0.00000000e+00 9.97887599e-03]"
1786900909.1689332,0.0,0.0,0.0,"[9.97372061e-03 0.00000000e+00 0.00000000e+00 0.00000000e+00
 0.00000000e+00 2.57337066e-07 0.00000000e+00 9.97347057e-03
 0.00000000e+00 0.00000000e+00 0.00000000e+00 0.00000000e+00
 0.00000000e+00 0.00000000e+00 0.00000000e+00 0.00000000e+00
 0.00000000e+00 0.00000000e+00 0.00000000e+00 0.00000000e+00
 0.00000000e+00 0.00000000e+00 0.00000000e+00 0.00000000e+00
 0.00000000e+00 0.00000000e+00 0.00000000e+00 0.00000000e+00
 0.00000000e+00 0.00000000e+00 2.57337066e-07 0.00000000e+00
 0.00000000e+00 0.00000000e+00 0.00000000e+00 9.97869720e-03]"
1786900909.2169597,0.0,0.0,0.0,"[9.97362146e-03 0.00000000e+00 0.00000000e+00 0.00000000e+00
 0.00000000e+00 2.57671516e-07 0.00000000e+00 9.97337110e-03
 0.00000000e+00 0.00000000e+00 0.00000000e+00 0.00000000e+00
 0.00000000e+00 0.00000000e+00 0.00000000e+00 0.00000000e+00
 0.00000000e+00 0.00000000e+00 0.00000000e+00 0.00000000e+00
 0.00000000e+00 0.00000000e+00 0.00000000e+00 0.00000000e+00
 0.00000000e+00 0.00000000e+00 0.00000000e+00 0.00000000e+00
 0.00000000e+00 0.00000000e+00 2.57671516e-07 0.00000000e+00
 0.00000000e+00 0.00000000e+00 0.00000000e+00 9.97860452e-03]"
1786900909.267184,0.0,0.0,0.0,"[9.97352236e-03 0.00000000e+00 0.00000000e+00 0.00000000e+00
 0.00000000e+00 2.58047952e-07 0.00000000e+00 9.97327163e-03
 0.00000000e+00 0.00000000e+00 0.00000000e+00 0.00000000e+00
 0.00000000e+00 0.00000000e+00 0.00000000e+00 0.00000000e+00
 0.00000000e+00 0.00000000e+00 0.00000000e+00 0.00000000e+00
 0.00000000e+00 0.00000000e+00 0.00000000e+00 0.00000000e+00
 0.00000000e+00 0.00000000e+00 0.00000000e+00 0.00000000e+00
 0.00000000e+00 0.00000000e+00 2.58047952e-07 0.00000000e+00
 0.00000000e+00 0.00000000e+00 0.00000000e+00 9.97851270e-03]"
1786900909.317896,0.0,0.0,0.0,"[9.97332487e-03 0.00000000e+00 0.00000000e+00 0.00000000e+00
 0.00000000e+00 2.59521457e-07 0.00000000e+00 9.97307270e-03
 0.00000000e+00 0.00000000e+00 0.00000000e+00 0.00000000e+00
 0.00000000e+00 0.00000000e+00 0.00000000e+00 0.00000000e+00
 0.00000000e+00 0.00000000e+00 0.00000000e+00 0.00000000e+00
 0.00000000e+00 0.00000000e+00 0.00000000e+00 0.00000000e+00
 0.00000000e+00 0.00000000e+00 0.00000000e+00 0.00000000e+00
 0.00000000e+00 0.00000000e+00 2.59521457e-07 0.00000000e+00
 0.00000000e+00 0.00000000e+00 0.00000000e+00 9.97834370e-03]"
1786900909.3668509,0.0,0.0,0.0,"[9.97322552e-03 0.00000000e+00 0.00000000e+00 0.00000000e+00
 0.00000000e+00 2.59636995e-07 0.00000000e+00 9.97297324e-03
 0.00000000e+00 0.00000000e+00 0.00000000e+00 0.00000000e+00
 0.00000000e+00 0.00000000e+00 0.00000000e+00 0.00000000e+00
 0.00000000e+00 0.00000000e+00 0.00000000e+00 0.00000000e+00
 0.00000000e+00 0.00000000e+00 0.00000000e+00 0.00000000e+00
 0.00000000e+00 0.00000000e+00 0.00000000e+00 0.00000000e+00
 0.00000000e+00 0.00000000e+00 2.59636995e-07 0.00000000e+00
 0.00000000e+00 0.00000000e+00 0.00000000e+00 9.97824658e-03]"
1786900909.4174585,0.0,0.0,0.0,"[9.97302750e-03 0.00000000e+00 0.00000000e+00 0.00000000e+00
 0.00000000e+00 2.60562140e-07 0.00000000e+00 9.97277433e-03
 0.00000000e+00 0.00000000e+00 0.00000000e+00 0.00000000e+00
 0.00000000e+00 0.00000000e+00 0.00000000e+00 0.00000000e+00
 0.00000000e+00 0.00000000e+00 0.00000000e+00 0.00000000e+00
 0.00000000e+00 0.00000000e+00 0.00000000e+00 0.00000000e+00
 0.00000000e+00 0.00000000e+00 0.00000000e+00 0.00000000e+00
 0.00000000e+00 0.00000000e+00 2.60562140e-07 0.00000000e+00
 0.00000000e+00 0.00000000e+00 0.00000000e+00 9.97806646e-03]"
1786900909.4669218,0.0,0.0,0.0,"[9.97282924e-03 0.00000000e+00 0.00000000e+00 0.00000000e+00
 0.00000000e+00 2.61228559e-07 0.00000000e+00 9.97257542e-03
 0.00000000e+00 0.00000000e+00 0.00000000e+00 0.00000000e+00
 0.00000000e+00 0.00000000e+00 0.00000000e+00 0.00000000e+00
 0.00000000e+00 0.00000000e+00 0.00000000e+00 0.00000000e+00
 0.00000000e+00 0.00000000e+00 0.00000000e+00 0.00000000e+00
 0.00000000e+00 0.00000000e+00 0.00000000e+00 0.00000000e+00
 0.00000000e+00 0.00000000e+00 2.61228559e-07 0.00000000e+00
 0.00000000e+00 0.00000000e+00 0.00000000e+00 9.97788108e-03]"
1786900909.5307248,0.0,0.0,0.0,"[9.97273028e-03 0.00000000e+00 0.00000000e+00 0.00000000e+00
 0.00000000e+00 2.61736154e-07 0.00000000e+00 9.97247597e-03
 0.00000000e+00 0.00000000e+00 0.00000000e+00 0.00000000e+00
 0.00000000e+00 0.00000000e+00 0.00000000e+00 0.00000000e+00
 0.00000000e+00 0.00000000e+00 0.00000000e+00 0.00000000e+00
 0.00000000e+00 0.00000000e+00 0.00000000e+00 0.00000000e+00
 0.00000000e+00 0.00000000e+00 0.00000000e+00 0.00000000e+00
 0.00000000e+00 0.00000000e+00 2.61736154e-07 0.00000000e+00
 0.00000000e+00 0.00000000e+00 0.00000000e+00 9.97779194e-03]"
1786900909.5673535,0.0,0.0,0.0,"[9.97253217e-03 0.00000000e+00 0.00000000e+00 0.00000000e+00
 0.00000000e+00 2.62543766e-07 0.00000000e+00 9.97227707e-03
 0.00000000e+00 0.00000000e+00 0.00000000e+00 0.00000000e+00
 0.00000000e+00 0.00000000e+00 0.00000000e+00 0.00000000e+00
 0.00000000e+00 0.00000000e+00 0.00000000e+00 0.00000000e+00
 0.00000000e+00 0.00000000e+00 0.00000000e+00 0.00000000e+00
 0.00000000e+00 0.00000000e+00 0.00000000e+00 0.00000000e+00
 0.00000000e+00 0.00000000e+00 2.62543766e-07 0.00000000e+00
 0.00000000e+00 0.00000000e+00 0.00000000e+00 9.97760945e-03]"
1786900909.6354105,0.0,0.0,0.0,"[9.97243322e-03 0.00000000e+00 0.00000000e+00 0.00000000e+00
 0.00000000e+00 2.63058698e-07 0.00000000e+00 9.97217762e-03
 0.00000000e+00 0.00000000e+00 0.00000000e+00 0.00000000e+00
 0.00000000e+00 0.00000000e+00 0.00000000e+00 0.00000000e+00
 0.00000000e+00 0.00000000e+00 0.00000000e+00 0.00000000e+00
 0.00000000e+00 0.00000000e+00 0.00000000e+00 0.00000000e+00
 0.00000000e+00 0.00000000e+00 0.00000000e+00 0.00000000e+00
 0.00000000e+00 0.00000000e+00 2.63058698e-07 0.00000000e+00
 0.00000000e+00 0.00000000e+00 0.00000000e+00 9.97752046e-03]"
1786900909.7238743,0.0,0.0,0.0,"[9.97233429e-03 0.00000000e+00 0.00000000e+00 0.00000000e+00
 0.00000000e+00 2.63579028e-07 0.00000000e+00 9.97207818e-03
 0.00000000e+00 0.00000000e+00 0.00000000e+00 0.00000000e+00
 0.00000000e+00 0.00000000e+00 0.00000000e+00 0.00000000e+00
