time,x,y,yaw,cov_prop,K_gain,innovation,v_ekf,omega_ekf
1787305405.5916314,0.6852797834092262,-0.44211139799005084,0.14088174519178054,"[ 3.78036087e-05  3.22648988e-07  0.00000000e+00  0.00000000e+00
  0.00000000e+00 -4.09704606e-06  3.22648988e-07  3.16452494e-05
  0.00000000e+00  0.00000000e+00  0.00000000e+00  3.58729686e-06
  0.00000000e+00  0.00000000e+00  0.00000000e+00  0.00000000e+00
  0.00000000e+00  0.00000000e+00  0.00000000e+00  0.00000000e+00
  0.00000000e+00  0.00000000e+00  0.00000000e+00  0.00000000e+00
  0.00000000e+00  0.00000000e+00  0.00000000e+00  0.00000000e+00
  0.00000000e+00  0.00000000e+00 -4.09704606e-06  3.58729686e-06
  0.00000000e+00  0.00000000e+00  0.00000000e+00  4.52158620e-06]","[[-9.44605589e-04  7.20579209e-03]
 [-4.10223811e-05 -1.67645722e-02]]",[],0.0,0.0
1787305405.6380856,0.6852797834092262,-0.44211139799005084,0.14088174519178054,"[ 3.78036087e-05  3.22648988e-07  0.00000000e+00  0.00000000e+00
  0.00000000e+00 -4.09704606e-06  3.22648988e-07  3.16452494e-05
  0.00000000e+00  0.00000000e+00  0.00000000e+00  3.58729686e-06
  0.00000000e+00  0.00000000e+00  0.00000000e+00  0.00000000e+00
  0.00000000e+00  0.00000000e+00  0.00000000e+00  0.00000000e+00
  0.00000000e+00  0.00000000e+00  0.00000000e+00  0.00000000e+00
  0.00000000e+00  0.00000000e+00  0.00000000e+00  0.00000000e+00
  0.00000000e+00  0.00000000e+00 -4.09704606e-06  3.58729686e-06
  0.00000000e+00  0.00000000e+00  0.00000000e+00  4.52158620e-06]","[[-9.44605589e-04  7.20579209e-03]
 [-4.10223811e-05 -1.67645722e-02]]",[],0.0,0.0
1787305405.7229187,0.6852797834092262,-0.44211139799005084,0.14088174519178054,"[ 3.78036087e-05  3.22648988e-07  0.00000000e+00  0.00000000e+00
  0.00000000e+00 -4.09704606e-06  3.22648988e-07  3.16452494e-05
  0.00000000e+00  0.00000000e+00  0.00000000e+00  3.58729686e-06
  0.00000000e+00  0.00000000e+00  0.00000000e+00  0.00000000e+00
  0.00000000e+00  0.00000000e+00  0.00000000e+00  0.00000000e+00
  0.00000000e+00  0.00000000e+00  0.00000000e+00  0.00000000e+00
  0.00000000e+00  0.00000000e+00  0.00000000e+00  0.00000000e+00
  0.00000000e+00  0.00000000e+00 -4.09704606e-06  3.58729686e-06
  0.00000000e+00  0.00000000e+00  0.00000000e+00  4.52158620e-06]","[[-9.44605589e-04  7.20579209e-03]
 [-4.10223811e-05 -1.67645722e-02]]",[],0.0,0.0
1787305405.781982,0.6852797834092262,-0.44211139799005084,0.14088174519178054,"[ 3.78036087e-05  3.22648988e-07  0.00000000e+00  0.00000000e+00
  0.00000000e+00 -4.09704606e-06  3.22648988e-07  3.16452494e-05
  0.00000000e+00  0.00000000e+00  0.00000000e+00  3.58729686e-06
  0.00000000e+00  0.00000000e+00  0.00000000e+00  0.00000000e+00
  0.00000000e+00  0.00000000e+00  0.00000000e+00  0.00000000e+00
  0.00000000e+00  0.00000000e+00  0.00000000e+00  0.00000000e+00
  0.00000000e+00  0.00000000e+00  0.00000000e+00  0.00000000e+00
  0.00000000e+00  0.00000000e+00 -4.09704606e-06  3.58729686e-06
  0.00000000e+00  0.00000000e+00  0.00000000e+00  4.52158620e-06]","[[-9.44605589e-04  7.20579209e-03]
 [-4.10223811e-05 -1.67645722e-02]]",[],0.0,0.0
1787305405.8448246,0.6852797834092262,-0.44211139799005084,0.14088174519178054,"[ 3.78036087e-05  3.22648988e-07  0.00000000e+00  0.00000000e+00
  0.00000000e+00 -4.09704606e-06  3.22648988e-07  3.16452494e-05
  0.00000000e+00  0.00000000e+00  0.00000000e+00  3.58729686e-06
  0.00000000e+00  0.00000000e+00  0.00000000e+00  0.00000000e+00
  0.00000000e+00  0.00000000e+00  0.00000000e+00  0.00000000e+00
  0.00000000e+00  0.00000000e+00  0.00000000e+00  0.00000000e+00
  0.00000000e+00  0.00000000e+00  0.00000000e+00  0.00000000e+00
  0.00000000e+00  0.00000000e+00 -4.09704606e-06  3.58729686e-06
  0.00000000e+00  0.00000000e+00  0.00000000e+00  4.52158620e-06]","[[-9.44605589e-04  7.20579209e-03]
 [-4.10223811e-05 -1.67645722e-02]]",[],0.0,0.0
1787305405.8859098,0.6852797834092262,-0.44211139799005084,0.14088174519178054,"[ 3.78036087e-05  3.22648988e-07  0.00000000e+00  0.00000000e+00
  0.00000000e+00 -4.09704606e-06  3.22648988e-07  3.16452494e-05
  0.00000000e+00  0.00000000e+00  0.00000000e+00  3.58729686e-06
  0.00000000e+00  0.00000000e+00  0.00000000e+00  0.00000000e+00
  0.00000000e+00  0.00000000e+00  0.00000000e+00  0.00000000e+00
  0.00000000e+00  0.00000000e+00  0.00000000e+00  0.00000000e+00
  0.00000000e+00  0.00000000e+00  0.00000000e+00  0.00000000e+00
  0.00000000e+00  0.00000000e+00 -4.09704606e-06  3.58729686e-06
  0.00000000e+00  0.00000000e+00  0.00000000e+00  4.52158620e-06]","[[-9.44605589e-04  7.20579209e-03]
 [-4.10223811e-05 -1.67645722e-02]]",[],0.0,0.0
1787305405.9322882,0.6852797834092262,-0.44211139799005084,0.14088174519178054,"[ 3.78036087e-05  3.22648988e-07  0.00000000e+00  0.00000000e+00
  0.00000000e+00 -4.09704606e-06  3.22648988e-07  3.16452494e-05
  0.00000000e+00  0.00000000e+00  0.00000000e+00  3.58729686e-06
  0.00000000e+00  0.00000000e+00  0.00000000e+00  0.00000000e+00
  0.00000000e+00  0.00000000e+00  0.00000000e+00  0.00000000e+00
  0.00000000e+00  0.00000000e+00  0.00000000e+00  0.00000000e+00
  0.00000000e+00  0.00000000e+00  0.00000000e+00  0.00000000e+00
  0.00000000e+00  0.00000000e+00 -4.09704606e-06  3.58729686e-06
  0.00000000e+00  0.00000000e+00  0.00000000e+00  4.52158620e-06]","[[-9.44605589e-04  7.20579209e-03]
 [-4.10223811e-05 -1.67645722e-02]]",[],0.0,0.0
1787305406.012054,0.6852797834092262,-0.44211139799005084,0.14088174519178054,"[ 3.78036087e-05  3.22648988e-07  0.00000000e+00  0.00000000e+00
  0.00000000e+00 -4.09704606e-06  3.22648988e-07  3.16452494e-05
  0.00000000e+00  0.00000000e+00  0.00000000e+00  3.58729686e-06
  0.00000000e+00  0.00000000e+00  0.00000000e+00  0.00000000e+00
  0.00000000e+00  0.00000000e+00  0.00000000e+00  0.00000000e+00
  0.00000000e+00  0.00000000e+00  0.00000000e+00  0.00000000e+00
  0.00000000e+00  0.00000000e+00  0.00000000e+00  0.00000000e+00
  0.00000000e+00  0.00000000e+00 -4.09704606e-06  3.58729686e-06
  0.00000000e+00  0.00000000e+00  0.00000000e+00  4.52158620e-06]","[[-9.44605589e-04  7.20579209e-03]
 [-4.10223811e-05 -1.67645722e-02]]",[],0.0,0.0
1787305406.0439925,0.6852797834092262,-0.44211139799005084,0.14088174519178054,"[ 3.78036087e-05  3.22648988e-07  0.00000000e+00  0.00000000e+00
  0.00000000e+00 -4.09704606e-06  3.22648988e-07  3.16452494e-05
  0.00000000e+00  0.00000000e+00  0.00000000e+00  3.58729686e-06
  0.00000000e+00  0.00000000e+00  0.00000000e+00  0.00000000e+00
  0.00000000e+00  0.00000000e+00  0.00000000e+00  0.00000000e+00
  0.00000000e+00  0.00000000e+00  0.00000000e+00  0.00000000e+00
  0.00000000e+00  0.00000000e+00  0.00000000e+00  0.00000000e+00
  0.00000000e+00  0.00000000e+00 -4.09704606e-06  3.58729686e-06
  0.00000000e+00  0.00000000e+00  0.00000000e+00  4.52158620e-06]","[[-9.44605589e-04  7.20579209e-03]
 [-4.10223811e-05 -1.67645722e-02]]",[],0.0,0.0
1787305406.0854666,0.6852797834092262,-0.44211139799005084,0.14088174519178054,"[ 3.78036087e-05  3.22648988e-07  0.00000000e+00  0.00000000e+00
  0.00000000e+00 -4.09704606e-06  3.22648988e-07  3.16452494e-05
  0.00000000e+00  0.00000000e+00  0.00000000e+00  3.58729686e-06
  0.00000000e+00  0.00000000e+00  0.00000000e+00  0.00000000e+00
  0.00000000e+00  0.00000000e+00  0.00000000e+00  0.00000000e+00
  0.00000000e+00  0.00000000e+00  0.00000000e+00  0.00000000e+00
  0.00000000e+00  0.00000000e+00  0.00000000e+00  0.00000000e+00
  0.00000000e+00  0.00000000e+00 -4.09704606e-06  3.58729686e-06
  0.00000000e+00  0.00000000e+00  0.00000000e+00  4.52158620e-06]","[[-9.44605589e-04  7.20579209e-03]
 [-4.10223811e-05 -1.67645722e-02]]",[],0.0,0.0
1787305406.1643713,0.6852797834092262,-0.44211139799005084,0.14088174519178054,"[ 3.78036087e-05  3.22648988e-07  0.00000000e+00  0.00000000e+00
  0.00000000e+00 -4.09704606e-06  3.22648988e-07  3.16452494e-05
  0.00000000e+00  0.00000000e+00  0.00000000e+00  3.58729686e-06
  0.00000000e+00  0.00000000e+00  0.00000000e+00  0.00000000e+00
  0.00000000e+00  0.00000000e+00  0.00000000e+00  0.00000000e+00
  0.00000000e+00  0.00000000e+00  0.00000000e+00  0.00000000e+00
  0.00000000e+00  0.00000000e+00  0.00000000e+00  0.00000000e+00
  0.00000000e+00  0.00000000e+00 -4.09704606e-06  3.58729686e-06
  0.00000000e+00  0.00000000e+00  0.00000000e+00  4.52158620e-06]","[[-9.44605589e-04  7.20579209e-03]
 [-4.10223811e-05 -1.67645722e-02]]",[],0.0,0.0
1787305406.18425,0.6852797834092262,-0.44211139799005084,0.14088174519178054,"[ 3.78036087e-05  3.22648988e-07  0.00000000e+00  0.00000000e+00
  0.00000000e+00 -4.09704606e-06  3.22648988e-07  3.16452494e-05
  0.00000000e+00  0.00000000e+00  0.00000000e+00  3.58729686e-06
  0.00000000e+00  0.00000000e+00  0.00000000e+00  0.00000000e+00
  0.00000000e+00  0.00000000e+00  0.00000000e+00  0.00000000e+00
  0.00000000e+00  0.00000000e+00  0.00000000e+00  0.00000000e+00
  0.00000000e+00  0.00000000e+00  0.00000000e+00  0.00000000e+00
  0.00000000e+00  0.00000000e+00 -4.09704606e-06  3.58729686e-06
  0.00000000e+00  0.00000000e+00  0.00000000e+00  4.52158620e-06]","[[-9.44605589e-04  7.20579209e-03]
 [-4.10223811e-05 -1.67645722e-02]]",[],0.0,0.0
1787305406.2398148,0.6852797834092262,-0.44211139799005084,0.14088174519178054,"[ 3.78036087e-05  3.22648988e-07  0.00000000e+00  0.00000000e+00
  0.00000000e+00 -4.09704606e-06  3.22648988e-07  3.16452494e-05
  0.00000000e+00  0.00000000e+00  0.00000000e+00  3.58729686e-06
  0.00000000e+00  0.00000000e+00  0.00000000e+00  0.00000000e+00
  0.00000000e+00  0.00000000e+00  0.00000000e+00  0.00000000e+00
  0.00000000e+00  0.00000000e+00  0.00000000e+00  0.00000000e+00
  0.00000000e+00  0.00000000e+00  0.00000000e+00  0.00000000e+00
  0.00000000e+00  0.00000000e+00 -4.09704606e-06  3.58729686e-06
  0.00000000e+00  0.00000000e+00  0.00000000e+00  4.52158620e-06]","[[-9.44605589e-04  7.20579209e-03]
 [-4.10223811e-05 -1.67645722e-02]]",[],0.0,0.0
1787305406.283608,0.6349024828657813,-0.37817203562611224,0.1420328036518543,"[ 2.01098945e-05  1.59884236e-07  0.00000000e+00  0.00000000e+00
  0.00000000e+00 -1.76665855e-06  1.59884236e-07  1.51039612e-05
  0.00000000e+00  0.00000000e+00  0.00000000e+00  1.23349023e-06
  0.00000000e+00  0.00000000e+00  0.00000000e+00  0.00000000e+00
  0.00000000e+00  0.00000000e+00  0.00000000e+00  0.00000000e+00
  0.00000000e+00  0.00000000e+00  0.00000000e+00  0.00000000e+00
  0.00000000e+00  0.00000000e+00  0.00000000e+00  0.00000000e+00
  0.00000000e+00  0.00000000e+00 -1.76665855e-06  1.23349023e-06
  0.00000000e+00  0.00000000e+00  0.00000000e+00  3.28656709e-06]","[[-5.02181044e-04  2.61579311e-03]
 [ 1.11737794e-05 -6.81888041e-03]]",[],0.0,0.0
1787305406.332845,0.6349024828657813,-0.37817203562611224,0.1420328036518543,"[ 2.01098945e-05  1.59884236e-07  0.00000000e+00  0.00000000e+00
  0.00000000e+00 -1.76665855e-06  1.59884236e-07  1.51039612e-05
  0.00000000e+00  0.00000000e+00  0.00000000e+00  1.23349023e-06
  0.00000000e+00  0.00000000e+00  0.00000000e+00  0.00000000e+00
  0.00000000e+00  0.00000000e+00  0.00000000e+00  0.00000000e+00
  0.00000000e+00  0.00000000e+00  0.00000000e+00  0.00000000e+00
  0.00000000e+00  0.00000000e+00  0.00000000e+00  0.00000000e+00
  0.00000000e+00  0.00000000e+00 -1.76665855e-06  1.23349023e-06
  0.00000000e+00  0.00000000e+00  0.00000000e+00  3.28656709e-06]","[[-5.02181044e-04  2.61579311e-03]
 [ 1.11737794e-05 -6.81888041e-03]]",[],0.0,0.0
1787305406.8837073,0.6349024828657813,-0.37817203562611224,0.1420328036518543,"[ 2.01098945e-05  1.59884236e-07  0.00000000e+00  0.00000000e+00
  0.00000000e+00 -1.76665855e-06  1.59884236e-07  1.51039612e-05
  0.00000000e+00  0.00000000e+00  0.00000000e+00  1.23349023e-06
  0.00000000e+00  0.00000000e+00  0.00000000e+00  0.00000000e+00
  0.00000000e+00  0.00000000e+00  0.00000000e+00  0.00000000e+00
  0.00000000e+00  0.00000000e+00  0.00000000e+00  0.00000000e+00
  0.00000000e+00  0.00000000e+00  0.00000000e+00  0.00000000e+00
  0.00000000e+00  0.00000000e+00 -1.76665855e-06  1.23349023e-06
  0.00000000e+00  0.00000000e+00  0.00000000e+00  3.28656709e-06]","[[-5.02181044e-04  2.61579311e-03]
 [ 1.11737794e-05 -6.81888041e-03]]",[],0.0,0.0
1787305407.5469162,0.6006904315156487,-0.34302444367782875,0.1342536173680182,"[ 1.35458606e-05  5.65708189e-08  0.00000000e+00  0.00000000e+00
  0.00000000e+00 -1.33566092e-06  5.65708189e-08  9.93683569e-06
  0.00000000e+00  0.00000000e+00  0.00000000e+00  9.69280246e-07
  0.00000000e+00  0.00000000e+00  0.00000000e+00  0.00000000e+00
  0.00000000e+00  0.00000000e+00  0.00000000e+00  0.00000000e+00
  0.00000000e+00  0.00000000e+00  0.00000000e+00  0.00000000e+00
  0.00000000e+00  0.00000000e+00  0.00000000e+00  0.00000000e+00
  0.00000000e+00  0.00000000e+00 -1.33566092e-06  9.69280246e-07
  0.00000000e+00  0.00000000e+00  0.00000000e+00  3.08802893e-06]","[[-3.36230373e-04  2.77465993e-03]
 [-3.20731912e-05 -5.05091512e-03]]",[],0.0,0.0
1787305408.1727724,0.5809835018746103,-0.31893145900707476,0.1264607491936385,"[ 1.03684068e-05  1.43994766e-08  0.00000000e+00  0.00000000e+00
  0.00000000e+00 -9.75896349e-07  1.43994766e-08  7.47326502e-06
  0.00000000e+00  0.00000000e+00  0.00000000e+00  6.63724908e-07
  0.00000000e+00  0.00000000e+00  0.00000000e+00  0.00000000e+00
  0.00000000e+00  0.00000000e+00  0.00000000e+00  0.00000000e+00
  0.00000000e+00  0.00000000e+00  0.00000000e+00  0.00000000e+00
  0.00000000e+00  0.00000000e+00  0.00000000e+00  0.00000000e+00
  0.00000000e+00  0.00000000e+00 -9.75896349e-07  6.63724908e-07
  0.00000000e+00  0.00000000e+00  0.00000000e+00  3.17008898e-06]","[[-2.57523007e-04  2.02480196e-03]
 [-2.18987930e-05 -3.67832753e-03]]",[],0.0,0.0
1787305408.8180656,0.5635264077611211,-0.30020188639175815,0.11848081208073456,"[ 8.32435461e-06  5.48586033e-09  0.00000000e+00  0.00000000e+00
  0.00000000e+00 -7.11581155e-07  5.48586033e-09  5.95612303e-06
  0.00000000e+00  0.00000000e+00  0.00000000e+00  5.03322074e-07
  0.00000000e+00  0.00000000e+00  0.00000000e+00  0.00000000e+00
  0.00000000e+00  0.00000000e+00  0.00000000e+00  0.00000000e+00
  0.00000000e+00  0.00000000e+00  0.00000000e+00  0.00000000e+00
  0.00000000e+00  0.00000000e+00  0.00000000e+00  0.00000000e+00
  0.00000000e+00  0.00000000e+00 -7.11581155e-07  5.03322074e-07
  0.00000000e+00  0.00000000e+00  0.00000000e+00  2.88603697e-06]","[[-2.06725664e-04  1.60144375e-03]
 [-1.73732778e-05 -3.45318214e-03]]",[],0.0,0.0
1787305409.6503198,0.5587824095159042,-0.28847540340184097,0.11074832831087543,"[ 7.11875833e-06 -1.47521801e-08  0.00000000e+00  0.00000000e+00
  0.00000000e+00 -5.78846506e-07 -1.47521801e-08  4.99041989e-06
  0.00000000e+00  0.00000000e+00  0.00000000e+00  4.30593636e-07
  0.00000000e+00  0.00000000e+00  0.00000000e+00  0.00000000e+00
  0.00000000e+00  0.00000000e+00  0.00000000e+00  0.00000000e+00
  0.00000000e+00  0.00000000e+00  0.00000000e+00  0.00000000e+00
  0.00000000e+00  0.00000000e+00  0.00000000e+00  0.00000000e+00
  0.00000000e+00  0.00000000e+00 -5.78846506e-07  4.30593636e-07
  0.00000000e+00  0.00000000e+00  0.00000000e+00  3.05667559e-06]","[[-1.76935308e-04  1.22204372e-03]
 [-1.28055316e-05 -2.42659243e-03]]",[],0.0,0.0
1787305409.703266,0.5416469010596994,-0.2720067966181788,0.08196749953044247,"[ 6.19026302e-06  2.11097672e-08  0.00000000e+00  0.00000000e+00
  0.00000000e+00 -5.34582869e-07  2.11097672e-08  4.26309680e-06
  0.00000000e+00  0.00000000e+00  0.00000000e+00  3.68810714e-07
  0.00000000e+00  0.00000000e+00  0.00000000e+00  0.00000000e+00
  0.00000000e+00  0.00000000e+00  0.00000000e+00  0.00000000e+00
  0.00000000e+00  0.00000000e+00  0.00000000e+00  0.00000000e+00
  0.00000000e+00  0.00000000e+00  0.00000000e+00  0.00000000e+00
  0.00000000e+00  0.00000000e+00 -5.34582869e-07  3.68810714e-07
  0.00000000e+00  0.00000000e+00  0.00000000e+00  3.14958260e-06]","[[-1.54245163e-04  1.10658030e-03]
 [-9.55290527e-06 -2.48621701e-03]]",[],0.0,0.0
1787305409.739392,0.5416469010596994,-0.2720067966181788,0.08196749953044247,"[ 6.19026302e-06  2.11097672e-08  0.00000000e+00  0.00000000e+00
  0.00000000e+00 -5.34582869e-07  2.11097672e-08  4.26309680e-06
  0.00000000e+00  0.00000000e+00  0.00000000e+00  3.68810714e-07
  0.00000000e+00  0.00000000e+00  0.00000000e+00  0.00000000e+00
  0.00000000e+00  0.00000000e+00  0.00000000e+00  0.00000000e+00
  0.00000000e+00  0.00000000e+00  0.00000000e+00  0.00000000e+00
  0.00000000e+00  0.00000000e+00  0.00000000e+00  0.00000000e+00
  0.00000000e+00  0.00000000e+00 -5.34582869e-07  3.68810714e-07
  0.00000000e+00  0.00000000e+00  0.00000000e+00  3.14958260e-06]","[[-1.54245163e-04  1.10658030e-03]
 [-9.55290527e-06 -2.48621701e-03]]",[],0.0,0.0
1787305409.7841866,0.5416469010596994,-0.2720067966181788,0.08196749953044247,"[ 6.19026302e-06  2.11097672e-08  0.00000000e+00  0.00000000e+00
  0.00000000e+00 -5.34582869e-07  2.11097672e-08  4.26309680e-06
  0.00000000e+00  0.00000000e+00  0.00000000e+00  3.68810714e-07
  0.00000000e+00  0.00000000e+00  0.00000000e+00  0.00000000e+00
  0.00000000e+00  0.00000000e+00  0.00000000e+00  0.00000000e+00
  0.00000000e+00  0.00000000e+00  0.00000000e+00  0.00000000e+00
  0.00000000e+00  0.00000000e+00  0.00000000e+00  0.00000000e+00
  0.00000000e+00  0.00000000e+00 -5.34582869e-07  3.68810714e-07
  0.00000000e+00  0.00000000e+00  0.00000000e+00  3.14958260e-06]","[[-1.54245163e-04  1.10658030e-03]
 [-9.55290527e-06 -2.48621701e-03]]",[],0.0,0.0
1787305409.8321974,0.5416469010596994,-0.2720067966181788,0.08196749953044247,"[ 6.19026302e-06  2.11097672e-08  0.00000000e+00  0.00000000e+00
  0.00000000e+00 -5.34582869e-07  2.11097672e-08  4.26309680e-06
  0.00000000e+00  0.00000000e+00  0.00000000e+00  3.68810714e-07
  0.00000000e+00  0.00000000e+00  0.00000000e+00  0.00000000e+00
  0.00000000e+00  0.00000000e+00  0.00000000e+00  0.00000000e+00
  0.00000000e+00  0.00000000e+00  0.00000000e+00  0.00000000e+00
  0.00000000e+00  0.00000000e+00  0.00000000e+00  0.00000000e+00
  0.00000000e+00  0.00000000e+00 -5.34582869e-07  3.68810714e-07
  0.00000000e+00  0.00000000e+00  0.00000000e+00  3.14958260e-06]","[[-1.54245163e-04  1.10658030e-03]
 [-9.55290527e-06 -2.48621701e-03]]",[],0.0,0.0
1787305409.8826492,0.5416469010596994,-0.2720067966181788,0.08196749953044247,"[ 6.19026302e-06  2.11097672e-08  0.00000000e+00  0.00000000e+00
  0.00000000e+00 -5.34582869e-07  2.11097672e-08  4.26309680e-06
  0.00000000e+00  0.00000000e+00  0.00000000e+00  3.68810714e-07
  0.00000000e+00  0.00000000e+00  0.00000000e+00  0.00000000e+00
  0.00000000e+00  0.00000000e+00  0.00000000e+00  0.00000000e+00
  0.00000000e+00  0.00000000e+00  0.00000000e+00  0.00000000e+00
  0.00000000e+00  0.00000000e+00  0.00000000e+00  0.00000000e+00
  0.00000000e+00  0.00000000e+00 -5.34582869e-07  3.68810714e-07
  0.00000000e+00  0.00000000e+00  0.00000000e+00  3.14958260e-06]","[[-1.54245163e-04  1.10658030e-03]
 [-9.55290527e-06 -2.48621701e-03]]",[],0.0,0.0
1787305409.9345794,0.5416469010596994,-0.2720067966181788,0.08196749953044247,"[ 6.19026302e-06  2.11097672e-08  0.00000000e+00  0.00000000e+00
  0.00000000e+00 -5.34582869e-07  2.11097672e-08  4.26309680e-06
  0.00000000e+00  0.00000000e+00  0.00000000e+00  3.68810714e-07
  0.00000000e+00  0.00000000e+00  0.00000000e+00  0.00000000e+00
  0.00000000e+00  0.00000000e+00  0.00000000e+00  0.00000000e+00
  0.00000000e+00  0.00000000e+00  0.00000000e+00  0.00000000e+00
  0.00000000e+00  0.00000000e+00  0.00000000e+00  0.00000000e+00
  0.00000000e+00  0.00000000e+00 -5.34582869e-07  3.68810714e-07
  0.00000000e+00  0.00000000e+00  0.00000000e+00  3.14958260e-06]","[[-1.54245163e-04  1.10658030e-03]
 [-9.55290527e-06 -2.48621701e-03]]",[],0.0,0.0
1787305409.9863656,0.5416469010596994,-0.2720067966181788,0.08196749953044247,"[ 6.19026302e-06  2.11097672e-08  0.00000000e+00  0.00000000e+00
  0.00000000e+00 -5.34582869e-07  2.11097672e-08  4.26309680e-06
  0.00000000e+00  0.00000000e+00  0.00000000e+00  3.68810714e-07
  0.00000000e+00  0.00000000e+00  0.00000000e+00  0.00000000e+00
  0.00000000e+00  0.00000000e+00  0.00000000e+00  0.00000000e+00
  0.00000000e+00  0.00000000e+00  0.00000000e+00  0.00000000e+00
  0.00000000e+00  0.00000000e+00  0.00000000e+00  0.00000000e+00
  0.00000000e+00  0.00000000e+00 -5.34582869e-07  3.68810714e-07
  0.00000000e+00  0.00000000e+00  0.00000000e+00  3.14958260e-06]","[[-1.54245163e-04  1.10658030e-03]
 [-9.55290527e-06 -2.48621701e-03]]",[],0.0,0.0
1787305410.0380402,0.5416469010596994,-0.2720067966181788,0.08196749953044247,"[ 6.19026302e-06  2.11097672e-08  0.00000000e+00  0.00000000e+00
  0.00000000e+00 -5.34582869e-07  2.11097672e-08  4.26309680e-06
  0.00000000e+00  0.00000000e+00  0.00000000e+00  3.68810714e-07
  0.00000000e+00  0.00000000e+00  0.00000000e+00  0.00000000e+00
  0.00000000e+00  0.00000000e+00  0.00000000e+00  0.00000000e+00
  0.00000000e+00  0.00000000e+00  0.00000000e+00  0.00000000e+00
  0.00000000e+00  0.00000000e+00  0.00000000e+00  0.00000000e+00
  0.00000000e+00  0.00000000e+00 -5.34582869e-07  3.68810714e-07
  0.00000000e+00  0.00000000e+00  0.00000000e+00  3.14958260e-06]","[[-1.54245163e-04  1.10658030e-03]
 [-9.55290527e-06 -2.48621701e-03]]",[],0.0,0.0
1787305410.103265,0.5416469010596994,-0.2720067966181788,0.08196749953044247,"[ 6.19026302e-06  2.11097672e-08  0.00000000e+00  0.00000000e+00
  0.00000000e+00 -5.34582869e-07  2.11097672e-08  4.26309680e-06
  0.00000000e+00  0.00000000e+00  0.00000000e+00  3.68810714e-07
  0.00000000e+00  0.00000000e+00  0.00000000e+00  0.00000000e+00
  0.00000000e+00  0.00000000e+00  0.00000000e+00  0.00000000e+00
  0.00000000e+00  0.00000000e+00  0.00000000e+00  0.00000000e+00
  0.00000000e+00  0.00000000e+00  0.00000000e+00  0.00000000e+00
  0.00000000e+00  0.00000000e+00 -5.34582869e-07  3.68810714e-07
  0.00000000e+00  0.00000000e+00  0.00000000e+00  3.14958260e-06]","[[-1.54245163e-04  1.10658030e-03]
 [-9.55290527e-06 -2.48621701e-03]]",[],0.0,0.0
1787305410.1481829,0.5416469010596994,-0.2720067966181788,0.08196749953044247,"[ 6.19026302e-06  2.11097672e-08  0.00000000e+00  0.00000000e+00
  0.00000000e+00 -5.34582869e-07  2.11097672e-08  4.26309680e-06
  0.00000000e+00  0.00000000e+00  0.00000000e+00  3.68810714e-07
  0.00000000e+00  0.00000000e+00  0.00000000e+00  0.00000000e+00
  0.00000000e+00  0.00000000e+00  0.00000000e+00  0.00000000e+00
  0.00000000e+00  0.00000000e+00  0.00000000e+00  0.00000000e+00
  0.00000000e+00  0.00000000e+00  0.00000000e+00  0.00000000e+00
  0.00000000e+00  0.00000000e+00 -5.34582869e-07  3.68810714e-07
  0.00000000e+00  0.00000000e+00  0.00000000e+00  3.14958260e-06]","[[-1.54245163e-04  1.10658030e-03]
 [-9.55290527e-06 -2.48621701e-03]]",[],0.0,0.0
1787305410.2013192,0.5416469010596994,-0.2720067966181788,0.08196749953044247,"[ 6.19026302e-06  2.11097672e-08  0.00000000e+00  0.00000000e+00
  0.00000000e+00 -5.34582869e-07  2.11097672e-08  4.26309680e-06
  0.00000000e+00  0.00000000e+00  0.00000000e+00  3.68810714e-07
  0.00000000e+00  0.00000000e+00  0.00000000e+00  0.00000000e+00
  0.00000000e+00  0.00000000e+00  0.00000000e+00  0.00000000e+00
  0.00000000e+00  0.00000000e+00  0.00000000e+00  0.00000000e+00
  0.00000000e+00  0.00000000e+00  0.00000000e+00  0.00000000e+00
  0.00000000e+00  0.00000000e+00 -5.34582869e-07  3.68810714e-07
  0.00000000e+00  0.00000000e+00  0.00000000e+00  3.14958260e-06]","[[-1.54245163e-04  1.10658030e-03]
 [-9.55290527e-06 -2.48621701e-03]]",[],0.0,0.0
1787305410.232113,0.5416469010596994,-0.2720067966181788,0.08196749953044247,"[ 6.19026302e-06  2.11097672e-08  0.00000000e+00  0.00000000e+00
  0.00000000e+00 -5.34582869e-07  2.11097672e-08  4.26309680e-06
  0.00000000e+00  0.00000000e+00  0.00000000e+00  3.68810714e-07
  0.00000000e+00  0.00000000e+00  0.00000000e+00  0.00000000e+00
  0.00000000e+00  0.00000000e+00  0.00000000e+00  0.00000000e+00
  0.00000000e+00  0.00000000e+00  0.00000000e+00  0.00000000e+00
  0.00000000e+00  0.00000000e+00  0.00000000e+00  0.00000000e+00
  0.00000000e+00  0.00000000e+00 -5.34582869e-07  3.68810714e-07
  0.00000000e+00  0.00000000e+00  0.00000000e+00  3.14958260e-06]","[[-1.54245163e-04  1.10658030e-03]
 [-9.55290527e-06 -2.48621701e-03]]",[],0.0,0.0
1787305410.28493,0.5416469010596994,-0.2720067966181788,0.08196749953044247,"[ 6.19026302e-06  2.11097672e-08  0.00000000e+00  0.00000000e+00
  0.00000000e+00 -5.34582869e-07  2.11097672e-08  4.26309680e-06
  0.00000000e+00  0.00000000e+00  0.00000000e+00  3.68810714e-07
  0.00000000e+00  0.00000000e+00  0.00000000e+00  0.00000000e+00
  0.00000000e+00  0.00000000e+00  0.00000000e+00  0.00000000e+00
  0.00000000e+00  0.00000000e+00  0.00000000e+00  0.00000000e+00
  0.00000000e+00  0.00000000e+00  0.00000000e+00  0.00000000e+00
  0.00000000e+00  0.00000000e+00 -5.34582869e-07  3.68810714e-07
  0.00000000e+00  0.00000000e+00  0.00000000e+00  3.14958260e-06]","[[-1.54245163e-04  1.10658030e-03]
 [-9.55290527e-06 -2.48621701e-03]]",[],0.0,0.0
1787305410.3352323,0.5416469010596994,-0.2720067966181788,0.08196749953044247,"[ 6.19026302e-06  2.11097672e-08  0.00000000e+00  0.00000000e+00
  0.00000000e+00 -5.34582869e-07  2.11097672e-08  4.26309680e-06
  0.00000000e+00  0.00000000e+00  0.00000000e+00  3.68810714e-07
  0.00000000e+00  0.00000000e+00  0.00000000e+00  0.00000000e+00
  0.00000000e+00  0.00000000e+00  0.00000000e+00  0.00000000e+00
  0.00000000e+00  0.00000000e+00  0.00000000e+00  0.00000000e+00
  0.00000000e+00  0.00000000e+00  0.00000000e+00  0.00000000e+00
  0.00000000e+00  0.00000000e+00 -5.34582869e-07  3.68810714e-07
  0.00000000e+00  0.00000000e+00  0.00000000e+00  3.14958260e-06]","[[-1.54245163e-04  1.10658030e-03]
 [-9.55290527e-06 -2.48621701e-03]]",[],0.0,0.0
1787305410.3824422,0.5416469010596994,-0.2720067966181788,0.08196749953044247,"[ 6.19026302e-06  2.11097672e-08  0.00000000e+00  0.00000000e+00
  0.00000000e+00 -5.34582869e-07  2.11097672e-08  4.26309680e-06
  0.00000000e+00  0.00000000e+00  0.00000000e+00  3.68810714e-07
  0.00000000e+00  0.00000000e+00  0.00000000e+00  0.00000000e+00
  0.00000000e+00  0.00000000e+00  0.00000000e+00  0.00000000e+00
  0.00000000e+00  0.00000000e+00  0.00000000e+00  0.00000000e+00
  0.00000000e+00  0.00000000e+00  0.00000000e+00  0.00000000e+00
  0.00000000e+00  0.00000000e+00 -5.34582869e-07  3.68810714e-07
  0.00000000e+00  0.00000000e+00  0.00000000e+00  3.14958260e-06]","[[-1.54245163e-04  1.10658030e-03]
 [-9.55290527e-06 -2.48621701e-03]]",[],0.0,0.0
1787305410.439276,0.5416469010596994,-0.2720067966181788,0.08196749953044247,"[ 6.19026302e-06  2.11097672e-08  0.00000000e+00  0.00000000e+00
  0.00000000e+00 -5.34582869e-07  2.11097672e-08  4.26309680e-06
  0.00000000e+00  0.00000000e+00  0.00000000e+00  3.68810714e-07
  0.00000000e+00  0.00000000e+00  0.00000000e+00  0.00000000e+00
  0.00000000e+00  0.00000000e+00  0.00000000e+00  0.00000000e+00
  0.00000000e+00  0.00000000e+00  0.00000000e+00  0.00000000e+00
  0.00000000e+00  0.00000000e+00  0.00000000e+00  0.00000000e+00
  0.00000000e+00  0.00000000e+00 -5.34582869e-07  3.68810714e-07
  0.00000000e+00  0.00000000e+00  0.00000000e+00  3.14958260e-06]","[[-1.54245163e-04  1.10658030e-03]
 [-9.55290527e-06 -2.48621701e-03]]",[],0.0,0.0
1787305410.5231395,0.5358535057340255,-0.2588205908256491,0.06325958477832082,"[ 5.57224092e-06  9.68162511e-09  0.00000000e+00  0.00000000e+00
  0.00000000e+00 -4.75080633e-07  9.68162511e-09  3.73243775e-06
  0.00000000e+00  0.00000000e+00  0.00000000e+00  3.19844669e-07
  0.00000000e+00  0.00000000e+00  0.00000000e+00  0.00000000e+00
  0.00000000e+00  0.00000000e+00  0.00000000e+00  0.00000000e+00
  0.00000000e+00  0.00000000e+00  0.00000000e+00  0.00000000e+00
  0.00000000e+00  0.00000000e+00  0.00000000e+00  0.00000000e+00
  0.00000000e+00  0.00000000e+00 -4.75080633e-07  3.19844669e-07
  0.00000000e+00  0.00000000e+00  0.00000000e+00  3.22409836e-06]","[[-1.38854871e-04  6.45903060e-04]
 [ 7.10248464e-06 -1.69046032e-03]]",[],0.0,0.0
1787305410.5988033,0.5358535057340255,-0.2588205908256491,0.06325958477832082,"[ 5.57224092e-06  9.68162511e-09  0.00000000e+00  0.00000000e+00
  0.00000000e+00 -4.75080633e-07  9.68162511e-09  3.73243775e-06
  0.00000000e+00  0.00000000e+00  0.00000000e+00  3.19844669e-07
  0.00000000e+00  0.00000000e+00  0.00000000e+00  0.00000000e+00
  0.00000000e+00  0.00000000e+00  0.00000000e+00  0.00000000e+00
  0.00000000e+00  0.00000000e+00  0.00000000e+00  0.00000000e+00
  0.00000000e+00  0.00000000e+00  0.00000000e+00  0.00000000e+00
  0.00000000e+00  0.00000000e+00 -4.75080633e-07  3.19844669e-07
  0.00000000e+00  0.00000000e+00  0.00000000e+00  3.22409836e-06]","[[-1.38854871e-04  6.45903060e-04]
 [ 7.10248464e-06 -1.69046032e-03]]",[],0.0,0.0
1787305410.6343558,0.5358535057340255,-0.2588205908256491,0.06325958477832082,"[ 5.57224092e-06  9.68162511e-09  0.00000000e+00  0.00000000e+00
  0.00000000e+00 -4.75080633e-07  9.68162511e-09  3.73243775e-06
  0.00000000e+00  0.00000000e+00  0.00000000e+00  3.19844669e-07
  0.00000000e+00  0.00000000e+00  0.00000000e+00  0.00000000e+00
  0.00000000e+00  0.00000000e+00  0.00000000e+00  0.00000000e+00
  0.00000000e+00  0.00000000e+00  0.00000000e+00  0.00000000e+00
  0.00000000e+00  0.00000000e+00  0.00000000e+00  0.00000000e+00
  0.00000000e+00  0.00000000e+00 -4.75080633e-07  3.19844669e-07
  0.00000000e+00  0.00000000e+00  0.00000000e+00  3.22409836e-06]","[[-1.38854871e-04  6.45903060e-04]
 [ 7.10248464e-06 -1.69046032e-03]]",[],0.0,0.0
1787305411.0310335,0.5358535057340255,-0.2588205908256491,0.06325958477832082,"[ 5.57224092e-06  9.68162511e-09  0.00000000e+00  0.00000000e+00
  0.00000000e+00 -4.75080633e-07  9.68162511e-09  3.73243775e-06
  0.00000000e+00  0.00000000e+00  0.00000000e+00  3.19844669e-07
  0.00000000e+00  0.00000000e+00  0.00000000e+00  0.00000000e+00
  0.00000000e+00  0.00000000e+00  0.00000000e+00  0.00000000e+00
  0.00000000e+00  0.00000000e+00  0.00000000e+00  0.00000000e+00
  0.00000000e+00  0.00000000e+00  0.00000000e+00  0.00000000e+00
  0.00000000e+00  0.00000000e+00 -4.75080633e-07  3.19844669e-07
  0.00000000e+00  0.00000000e+00  0.00000000e+00  3.22409836e-06]","[[-1.38854871e-04  6.45903060e-04]
 [ 7.10248464e-06 -1.69046032e-03]]",[],0.0,0.0
1787305411.032121,0.5358535057340255,-0.2588205908256491,0.06325958477832082,"[ 5.57224092e-06  9.68162511e-09  0.00000000e+00  0.00000000e+00
  0.00000000e+00 -4.75080633e-07  9.68162511e-09  3.73243775e-06
  0.00000000e+00  0.00000000e+00  0.00000000e+00  3.19844669e-07
  0.00000000e+00  0.00000000e+00  0.00000000e+00  0.00000000e+00
  0.00000000e+00  0.00000000e+00  0.00000000e+00  0.00000000e+00
  0.00000000e+00  0.00000000e+00  0.00000000e+00  0.00000000e+00
  0.00000000e+00  0.00000000e+00  0.00000000e+00  0.00000000e+00
  0.00000000e+00  0.00000000e+00 -4.75080633e-07  3.19844669e-07
  0.00000000e+00  0.00000000e+00  0.00000000e+00  3.22409836e-06]","[[-1.38854871e-04  6.45903060e-04]
 [ 7.10248464e-06 -1.69046032e-03]]",[],0.0,0.0
1787305411.6602786,0.5256824861317454,-0.24811994386308522,0.053970594383038854,"[ 4.99229105e-06  1.10302413e-08  0.00000000e+00  0.00000000e+00
  0.00000000e+00 -4.02615926e-07  1.10302413e-08  3.32729738e-06
  0.00000000e+00  0.00000000e+00  0.00000000e+00  3.01716144e-07
  0.00000000e+00  0.00000000e+00  0.00000000e+00  0.00000000e+00
  0.00000000e+00  0.00000000e+00  0.00000000e+00  0.00000000e+00
  0.00000000e+00  0.00000000e+00  0.00000000e+00  0.00000000e+00
  0.00000000e+00  0.00000000e+00  0.00000000e+00  0.00000000e+00
  0.00000000e+00  0.00000000e+00 -4.02615926e-07  3.01716144e-07
  0.00000000e+00  0.00000000e+00  0.00000000e+00  3.00569237e-06]","[[-1.24454024e-04  5.50592087e-04]
 [ 5.79843871e-06 -1.51846467e-03]]",[],0.0,0.0
1787305412.2978117,0.5186151508175584,-0.24083556596306438,0.037682587972842185,"[ 4.58323026e-06 -7.37387403e-09  0.00000000e+00  0.00000000e+00
  0.00000000e+00 -3.69663036e-07 -7.37387403e-09  3.00274408e-06
  0.00000000e+00  0.00000000e+00  0.00000000e+00  2.59933091e-07
  0.00000000e+00  0.00000000e+00  0.00000000e+00  0.00000000e+00
  0.00000000e+00  0.00000000e+00  0.00000000e+00  0.00000000e+00
  0.00000000e+00  0.00000000e+00  0.00000000e+00  0.00000000e+00
  0.00000000e+00  0.00000000e+00  0.00000000e+00  0.00000000e+00
  0.00000000e+00  0.00000000e+00 -3.69663036e-07  2.59933091e-07
  0.00000000e+00  0.00000000e+00  0.00000000e+00  3.05662289e-06]","[[-1.14201356e-04  4.95483677e-04]
 [ 6.40915345e-06 -1.36046874e-03]]",[],0.0,0.0
1787305413.035389,0.5104038258442493,-0.23458286296597533,0.013695650526869052,"[ 4.22000879e-06 -1.48657728e-08  0.00000000e+00  0.00000000e+00
  0.00000000e+00 -3.36687488e-07 -1.48657728e-08  2.73003862e-06
  0.00000000e+00  0.00000000e+00  0.00000000e+00  2.36304657e-07
  0.00000000e+00  0.00000000e+00  0.00000000e+00  0.00000000e+00
  0.00000000e+00  0.00000000e+00  0.00000000e+00  0.00000000e+00
  0.00000000e+00  0.00000000e+00  0.00000000e+00  0.00000000e+00
  0.00000000e+00  0.00000000e+00  0.00000000e+00  0.00000000e+00
  0.00000000e+00  0.00000000e+00 -3.36687488e-07  2.36304657e-07
  0.00000000e+00  0.00000000e+00  0.00000000e+00  2.94966165e-06]","[[-1.05475825e-04  5.97539631e-04]
 [-8.75219222e-07 -1.59802066e-03]]",[],0.0,0.0
1787305413.7643034,0.49950115373914455,-0.23042579533705276,-0.008013789466263077,"[ 3.97992138e-06 -2.49150267e-08  0.00000000e+00  0.00000000e+00
  0.00000000e+00 -3.19633958e-07 -2.49150267e-08  2.51209399e-06
  0.00000000e+00  0.00000000e+00  0.00000000e+00  2.44343298e-07
  0.00000000e+00  0.00000000e+00  0.00000000e+00  0.00000000e+00
  0.00000000e+00  0.00000000e+00  0.00000000e+00  0.00000000e+00
  0.00000000e+00  0.00000000e+00  0.00000000e+00  0.00000000e+00
  0.00000000e+00  0.00000000e+00  0.00000000e+00  0.00000000e+00
  0.00000000e+00  0.00000000e+00 -3.19633958e-07  2.44343298e-07
  0.00000000e+00  0.00000000e+00  0.00000000e+00  3.13025310e-06]","[[-9.91892094e-05  4.31206806e-04]
 [ 5.97221688e-06 -1.17959435e-03]]",[],0.0,0.0
1787305414.465978,0.4851343529049929,-0.22597894013002628,-0.031288068391465806,"[ 3.74878745e-06 -2.98805681e-08  0.00000000e+00  0.00000000e+00
  0.00000000e+00 -3.20198862e-07 -2.98805681e-08  2.32316945e-06
  0.00000000e+00  0.00000000e+00  0.00000000e+00  2.43863590e-07
  0.00000000e+00  0.00000000e+00  0.00000000e+00  0.00000000e+00
  0.00000000e+00  0.00000000e+00  0.00000000e+00  0.00000000e+00
  0.00000000e+00  0.00000000e+00  0.00000000e+00  0.00000000e+00
  0.00000000e+00  0.00000000e+00  0.00000000e+00  0.00000000e+00
  0.00000000e+00  0.00000000e+00 -3.20198862e-07  2.43863590e-07
  0.00000000e+00  0.00000000e+00  0.00000000e+00  3.07111431e-06]","[[-9.34380871e-05  4.39275834e-04]
 [ 5.72817420e-06 -1.11875426e-03]]",[],0.0,0.0
1787305414.4817772,0.47762551599974684,-0.22221701206692326,-0.048515644734147934,"[ 3.55700239e-06 -3.85078955e-08  0.00000000e+00  0.00000000e+00
  0.00000000e+00 -2.41467419e-07 -3.85078955e-08  2.16343921e-06
  0.00000000e+00  0.00000000e+00  0.00000000e+00  2.03622350e-07
  0.00000000e+00  0.00000000e+00  0.00000000e+00  0.00000000e+00
  0.00000000e+00  0.00000000e+00  0.00000000e+00  0.00000000e+00
  0.00000000e+00  0.00000000e+00  0.00000000e+00  0.00000000e+00
  0.00000000e+00  0.00000000e+00  0.00000000e+00  0.00000000e+00
  0.00000000e+00  0.00000000e+00 -2.41467419e-07  2.03622350e-07
  0.00000000e+00  0.00000000e+00  0.00000000e+00  2.99837538e-06]","[[-8.85283612e-05  2.93521493e-04]
 [ 6.67611957e-06 -1.00968635e-03]]",[],0.0,0.0
1787305414.9658697,0.47762551599974684,-0.22221701206692326,-0.048515644734147934,"[ 3.55700239e-06 -3.85078955e-08  0.00000000e+00  0.00000000e+00
  0.00000000e+00 -2.41467419e-07 -3.85078955e-08  2.16343921e-06
  0.00000000e+00  0.00000000e+00  0.00000000e+00  2.03622350e-07
  0.00000000e+00  0.00000000e+00  0.00000000e+00  0.00000000e+00
  0.00000000e+00  0.00000000e+00  0.00000000e+00  0.00000000e+00
  0.00000000e+00  0.00000000e+00  0.00000000e+00  0.00000000e+00
  0.00000000e+00  0.00000000e+00  0.00000000e+00  0.00000000e+00
  0.00000000e+00  0.00000000e+00 -2.41467419e-07  2.03622350e-07
  0.00000000e+00  0.00000000e+00  0.00000000e+00  2.99837538e-06]","[[-8.85283612e-05  2.93521493e-04]
 [ 6.67611957e-06 -1.00968635e-03]]",[],0.0,0.0
1787305415.132724,0.47762551599974684,-0.22221701206692326,-0.048515644734147934,"[ 3.55700239e-06 -3.85078955e-08  0.00000000e+00  0.00000000e+00
  0.00000000e+00 -2.41467419e-07 -3.85078955e-08  2.16343921e-06
  0.00000000e+00  0.00000000e+00  0.00000000e+00  2.03622350e-07
  0.00000000e+00  0.00000000e+00  0.00000000e+00  0.00000000e+00
  0.00000000e+00  0.00000000e+00  0.00000000e+00  0.00000000e+00
  0.00000000e+00  0.00000000e+00  0.00000000e+00  0.00000000e+00
  0.00000000e+00  0.00000000e+00  0.00000000e+00  0.00000000e+00
  0.00000000e+00  0.00000000e+00 -2.41467419e-07  2.03622350e-07
  0.00000000e+00  0.00000000e+00  0.00000000e+00  2.99837538e-06]","[[-8.85283612e-05  2.93521493e-04]
 [ 6.67611957e-06 -1.00968635e-03]]",[],0.0,0.0
1787305415.1844194,0.4701784181734904,-0.21823785656925,-0.058152424361250794,"[ 3.39990139e-06 -5.32619237e-08  0.00000000e+00  0.00000000e+00
  0.00000000e+00 -2.48037857e-07 -5.32619237e-08  2.02983821e-06
  0.00000000e+00  0.00000000e+00  0.00000000e+00  1.93345931e-07
  0.00000000e+00  0.00000000e+00  0.00000000e+00  0.00000000e+00
  0.00000000e+00  0.00000000e+00  0.00000000e+00  0.00000000e+00
  0.00000000e+00  0.00000000e+00  0.00000000e+00  0.00000000e+00
  0.00000000e+00  0.00000000e+00  0.00000000e+00  0.00000000e+00
  0.00000000e+00  0.00000000e+00 -2.48037857e-07  1.93345931e-07
  0.00000000e+00  0.00000000e+00  0.00000000e+00  3.07858496e-06]","[[-8.46575681e-05  3.13744332e-04]
 [ 6.71779604e-06 -9.49582118e-04]]",[],0.0,0.0
1787305415.237383,0.4701784181734904,-0.21823785656925,-0.058152424361250794,"[ 3.39990139e-06 -5.32619237e-08  0.00000000e+00  0.00000000e+00
  0.00000000e+00 -2.48037857e-07 -5.32619237e-08  2.02983821e-06
  0.00000000e+00  0.00000000e+00  0.00000000e+00  1.93345931e-07
  0.00000000e+00  0.00000000e+00  0.00000000e+00  0.00000000e+00
  0.00000000e+00  0.00000000e+00  0.00000000e+00  0.00000000e+00
  0.00000000e+00  0.00000000e+00  0.00000000e+00  0.00000000e+00
  0.00000000e+00  0.00000000e+00  0.00000000e+00  0.00000000e+00
  0.00000000e+00  0.00000000e+00 -2.48037857e-07  1.93345931e-07
  0.00000000e+00  0.00000000e+00  0.00000000e+00  3.07858496e-06]","[[-8.46575681e-05  3.13744332e-04]
 [ 6.71779604e-06 -9.49582118e-04]]",[],0.0,0.0
1787305415.2848272,0.4701784181734904,-0.21823785656925,-0.058152424361250794,"[ 3.39990139e-06 -5.32619237e-08  0.00000000e+00  0.00000000e+00
  0.00000000e+00 -2.48037857e-07 -5.32619237e-08  2.02983821e-06
  0.00000000e+00  0.00000000e+00  0.00000000e+00  1.93345931e-07
  0.00000000e+00  0.00000000e+00  0.00000000e+00  0.00000000e+00
  0.00000000e+00  0.00000000e+00  0.00000000e+00  0.00000000e+00
  0.00000000e+00  0.00000000e+00  0.00000000e+00  0.00000000e+00
  0.00000000e+00  0.00000000e+00  0.00000000e+00  0.00000000e+00
  0.00000000e+00  0.00000000e+00 -2.48037857e-07  1.93345931e-07
  0.00000000e+00  0.00000000e+00  0.00000000e+00  3.07858496e-06]","[[-8.46575681e-05  3.13744332e-04]
 [ 6.71779604e-06 -9.49582118e-04]]",[],0.0,0.0
1787305415.3658636,0.4701784181734904,-0.21823785656925,-0.058152424361250794,"[ 3.39990139e-06 -5.32619237e-08  0.00000000e+00  0.00000000e+00
  0.00000000e+00 -2.48037857e-07 -5.32619237e-08  2.02983821e-06
  0.00000000e+00  0.00000000e+00  0.00000000e+00  1.93345931e-07
  0.00000000e+00  0.00000000e+00  0.00000000e+00  0.00000000e+00
  0.00000000e+00  0.00000000e+00  0.00000000e+00  0.00000000e+00
  0.00000000e+00  0.00000000e+00  0.00000000e+00  0.00000000e+00
  0.00000000e+00  0.00000000e+00  0.00000000e+00  0.00000000e+00
  0.00000000e+00  0.00000000e+00 -2.48037857e-07  1.93345931e-07
  0.00000000e+00  0.00000000e+00  0.00000000e+00  3.07858496e-06]","[[-8.46575681e-05  3.13744332e-04]
 [ 6.71779604e-06 -9.49582118e-04]]",[],0.0,0.0
1787305415.4542615,0.4701784181734904,-0.21823785656925,-0.058152424361250794,"[ 3.39990139e-06 -5.32619237e-08  0.00000000e+00  0.00000000e+00
  0.00000000e+00 -2.48037857e-07 -5.32619237e-08  2.02983821e-06
  0.00000000e+00  0.00000000e+00  0.00000000e+00  1.93345931e-07
  0.00000000e+00  0.00000000e+00  0.00000000e+00  0.00000000e+00
  0.00000000e+00  0.00000000e+00  0.00000000e+00  0.00000000e+00
  0.00000000e+00  0.00000000e+00  0.00000000e+00  0.00000000e+00
  0.00000000e+00  0.00000000e+00  0.00000000e+00  0.00000000e+00
  0.00000000e+00  0.00000000e+00 -2.48037857e-07  1.93345931e-07
  0.00000000e+00  0.00000000e+00  0.00000000e+00  3.07858496e-06]","[[-8.46575681e-05  3.13744332e-04]
 [ 6.71779604e-06 -9.49582118e-04]]",[],0.0,0.0
1787305415.4917338,0.4701784181734904,-0.21823785656925,-0.058152424361250794,"[ 3.39990139e-06 -5.32619237e-08  0.00000000e+00  0.00000000e+00
  0.00000000e+00 -2.48037857e-07 -5.32619237e-08  2.02983821e-06
  0.00000000e+00  0.00000000e+00  0.00000000e+00  1.93345931e-07
  0.00000000e+00  0.00000000e+00  0.00000000e+00  0.00000000e+00
  0.00000000e+00  0.00000000e+00  0.00000000e+00  0.00000000e+00
  0.00000000e+00  0.00000000e+00  0.00000000e+00  0.00000000e+00
  0.00000000e+00  0.00000000e+00  0.00000000e+00  0.00000000e+00
  0.00000000e+00  0.00000000e+00 -2.48037857e-07  1.93345931e-07
  0.00000000e+00  0.00000000e+00  0.00000000e+00  3.07858496e-06]","[[-8.46575681e-05  3.13744332e-04]
 [ 6.71779604e-06 -9.49582118e-04]]",[],0.0,0.0
1787305415.5534217,0.4701784181734904,-0.21823785656925,-0.058152424361250794,"[ 3.39990139e-06 -5.32619237e-08  0.00000000e+00  0.00000000e+00
  0.00000000e+00 -2.48037857e-07 -5.32619237e-08  2.02983821e-06
  0.00000000e+00  0.00000000e+00  0.00000000e+00  1.93345931e-07
  0.00000000e+00  0.00000000e+00  0.00000000e+00  0.00000000e+00
  0.00000000e+00  0.00000000e+00  0.00000000e+00  0.00000000e+00
  0.00000000e+00  0.00000000e+00  0.00000000e+00  0.00000000e+00
  0.00000000e+00  0.00000000e+00  0.00000000e+00  0.00000000e+00
  0.00000000e+00  0.00000000e+00 -2.48037857e-07  1.93345931e-07
  0.00000000e+00  0.00000000e+00  0.00000000e+00  3.07858496e-06]","[[-8.46575681e-05  3.13744332e-04]
 [ 6.71779604e-06 -9.49582118e-04]]",[],0.0,0.0
1787305415.6411927,0.4701784181734904,-0.21823785656925,-0.058152424361250794,"[ 3.39990139e-06 -5.32619237e-08  0.00000000e+00  0.00000000e+00
  0.00000000e+00 -2.48037857e-07 -5.32619237e-08  2.02983821e-06
  0.00000000e+00  0.00000000e+00  0.00000000e+00  1.93345931e-07
  0.00000000e+00  0.00000000e+00  0.00000000e+00  0.00000000e+00
  0.00000000e+00  0.00000000e+00  0.00000000e+00  0.00000000e+00
  0.00000000e+00  0.00000000e+00  0.00000000e+00  0.00000000e+00
  0.00000000e+00  0.00000000e+00  0.00000000e+00  0.00000000e+00
  0.00000000e+00  0.00000000e+00 -2.48037857e-07  1.93345931e-07
  0.00000000e+00  0.00000000e+00  0.00000000e+00  3.07858496e-06]","[[-8.46575681e-05  3.13744332e-04]
 [ 6.71779604e-06 -9.49582118e-04]]",[],0.0,0.0
1787305415.6838727,0.4701784181734904,-0.21823785656925,-0.058152424361250794,"[ 3.39990139e-06 -5.32619237e-08  0.00000000e+00  0.00000000e+00
  0.00000000e+00 -2.48037857e-07 -5.32619237e-08  2.02983821e-06
  0.00000000e+00  0.00000000e+00  0.00000000e+00  1.93345931e-07
  0.00000000e+00  0.00000000e+00  0.00000000e+00  0.00000000e+00
  0.00000000e+00  0.00000000e+00  0.00000000e+00  0.00000000e+00
  0.00000000e+00  0.00000000e+00  0.00000000e+00  0.00000000e+00
  0.00000000e+00  0.00000000e+00  0.00000000e+00  0.00000000e+00
  0.00000000e+00  0.00000000e+00 -2.48037857e-07  1.93345931e-07
  0.00000000e+00  0.00000000e+00  0.00000000e+00  3.07858496e-06]","[[-8.46575681e-05  3.13744332e-04]
 [ 6.71779604e-06 -9.49582118e-04]]",[],0.0,0.0
1787305415.735099,0.4701784181734904,-0.21823785656925,-0.058152424361250794,"[ 3.39990139e-06 -5.32619237e-08  0.00000000e+00  0.00000000e+00
  0.00000000e+00 -2.48037857e-07 -5.32619237e-08  2.02983821e-06
  0.00000000e+00  0.00000000e+00  0.00000000e+00  1.93345931e-07
  0.00000000e+00  0.00000000e+00  0.00000000e+00  0.00000000e+00
  0.00000000e+00  0.00000000e+00  0.00000000e+00  0.00000000e+00
  0.00000000e+00  0.00000000e+00  0.00000000e+00  0.00000000e+00
  0.00000000e+00  0.00000000e+00  0.00000000e+00  0.00000000e+00
  0.00000000e+00  0.00000000e+00 -2.48037857e-07  1.93345931e-07
  0.00000000e+00  0.00000000e+00  0.00000000e+00  3.07858496e-06]","[[-8.46575681e-05  3.13744332e-04]
 [ 6.71779604e-06 -9.49582118e-04]]",[],0.0,0.0
1787305415.7969484,0.4701784181734904,-0.21823785656925,-0.058152424361250794,"[ 3.39990139e-06 -5.32619237e-08  0.00000000e+00  0.00000000e+00
  0.00000000e+00 -2.48037857e-07 -5.32619237e-08  2.02983821e-06
  0.00000000e+00  0.00000000e+00  0.00000000e+00  1.93345931e-07
  0.00000000e+00  0.00000000e+00  0.00000000e+00  0.00000000e+00
  0.00000000e+00  0.00000000e+00  0.00000000e+00  0.00000000e+00
  0.00000000e+00  0.00000000e+00  0.00000000e+00  0.00000000e+00
  0.00000000e+00  0.00000000e+00  0.00000000e+00  0.00000000e+00
  0.00000000e+00  0.00000000e+00 -2.48037857e-07  1.93345931e-07
  0.00000000e+00  0.00000000e+00  0.00000000e+00  3.07858496e-06]","[[-8.46575681e-05  3.13744332e-04]
 [ 6.71779604e-06 -9.49582118e-04]]",[],0.0,0.0
1787305415.869766,0.4701784181734904,-0.21823785656925,-0.058152424361250794,"[ 3.39990139e-06 -5.32619237e-08  0.00000000e+00  0.00000000e+00
  0.00000000e+00 -2.48037857e-07 -5.32619237e-08  2.02983821e-06
  0.00000000e+00  0.00000000e+00  0.00000000e+00  1.93345931e-07
  0.00000000e+00  0.00000000e+00  0.00000000e+00  0.00000000e+00
  0.00000000e+00  0.00000000e+00  0.00000000e+00  0.00000000e+00
  0.00000000e+00  0.00000000e+00  0.00000000e+00  0.00000000e+00
  0.00000000e+00  0.00000000e+00  0.00000000e+00  0.00000000e+00
  0.00000000e+00  0.00000000e+00 -2.48037857e-07  1.93345931e-07
  0.00000000e+00  0.00000000e+00  0.00000000e+00  3.07858496e-06]","[[-8.46575681e-05  3.13744332e-04]
 [ 6.71779604e-06 -9.49582118e-04]]",[],0.0,0.0
1787305415.8822422,0.4701784181734904,-0.21823785656925,-0.058152424361250794,"[ 3.39990139e-06 -5.32619237e-08  0.00000000e+00  0.00000000e+00
  0.00000000e+00 -2.48037857e-07 -5.32619237e-08  2.02983821e-06
  0.00000000e+00  0.00000000e+00  0.00000000e+00  1.93345931e-07
  0.00000000e+00  0.00000000e+00  0.00000000e+00  0.00000000e+00
  0.00000000e+00  0.00000000e+00  0.00000000e+00  0.00000000e+00
  0.00000000e+00  0.00000000e+00  0.00000000e+00  0.00000000e+00
  0.00000000e+00  0.00000000e+00  0.00000000e+00  0.00000000e+00
  0.00000000e+00  0.00000000e+00 -2.48037857e-07  1.93345931e-07
  0.00000000e+00  0.00000000e+00  0.00000000e+00  3.07858496e-06]","[[-8.46575681e-05  3.13744332e-04]
 [ 6.71779604e-06 -9.49582118e-04]]",[],0.0,0.0
1787305415.9341364,0.46376331494972206,-0.2144370542643545,-0.06001927072242319,"[ 3.28983972e-06 -6.41554122e-08  0.00000000e+00  0.00000000e+00
  0.00000000e+00 -2.57409391e-07 -6.41554122e-08  1.91020074e-06
  0.00000000e+00  0.00000000e+00  0.00000000e+00  1.81946899e-07
  0.00000000e+00  0.00000000e+00  0.00000000e+00  0.00000000e+00
  0.00000000e+00  0.00000000e+00  0.00000000e+00  0.00000000e+00
  0.00000000e+00  0.00000000e+00  0.00000000e+00  0.00000000e+00
  0.00000000e+00  0.00000000e+00  0.00000000e+00  0.00000000e+00
  0.00000000e+00  0.00000000e+00 -2.57409391e-07  1.81946899e-07
  0.00000000e+00  0.00000000e+00  0.00000000e+00  3.20558636e-06]","[[-8.19462722e-05  3.35814631e-04]
 [ 6.69897154e-06 -8.92216295e-04]]",[],0.0,0.0
1787305415.9886603,0.46376331494972206,-0.2144370542643545,-0.06001927072242319,"[ 3.28983972e-06 -6.41554122e-08  0.00000000e+00  0.00000000e+00
  0.00000000e+00 -2.57409391e-07 -6.41554122e-08  1.91020074e-06
  0.00000000e+00  0.00000000e+00  0.00000000e+00  1.81946899e-07
  0.00000000e+00  0.00000000e+00  0.00000000e+00  0.00000000e+00
  0.00000000e+00  0.00000000e+00  0.00000000e+00  0.00000000e+00
  0.00000000e+00  0.00000000e+00  0.00000000e+00  0.00000000e+00
  0.00000000e+00  0.00000000e+00  0.00000000e+00  0.00000000e+00
  0.00000000e+00  0.00000000e+00 -2.57409391e-07  1.81946899e-07
  0.00000000e+00  0.00000000e+00  0.00000000e+00  3.20558636e-06]","[[-8.19462722e-05  3.35814631e-04]
 [ 6.69897154e-06 -8.92216295e-04]]",[],0.0,0.0
1787305416.0320292,0.46376331494972206,-0.2144370542643545,-0.06001927072242319,"[ 3.28983972e-06 -6.41554122e-08  0.00000000e+00  0.00000000e+00
  0.00000000e+00 -2.57409391e-07 -6.41554122e-08  1.91020074e-06
  0.00000000e+00  0.00000000e+00  0.00000000e+00  1.81946899e-07
  0.00000000e+00  0.00000000e+00  0.00000000e+00  0.00000000e+00
  0.00000000e+00  0.00000000e+00  0.00000000e+00  0.00000000e+00
  0.00000000e+00  0.00000000e+00  0.00000000e+00  0.00000000e+00
  0.00000000e+00  0.00000000e+00  0.00000000e+00  0.00000000e+00
  0.00000000e+00  0.00000000e+00 -2.57409391e-07  1.81946899e-07
  0.00000000e+00  0.00000000e+00  0.00000000e+00  3.20558636e-06]","[[-8.19462722e-05  3.35814631e-04]
 [ 6.69897154e-06 -8.92216295e-04]]",[],0.0,0.0
1787305416.083371,0.46376331494972206,-0.2144370542643545,-0.06001927072242319,"[ 3.28983972e-06 -6.41554122e-08  0.00000000e+00  0.00000000e+00
  0.00000000e+00 -2.57409391e-07 -6.41554122e-08  1.91020074e-06
  0.00000000e+00  0.00000000e+00  0.00000000e+00  1.81946899e-07
  0.00000000e+00  0.00000000e+00  0.00000000e+00  0.00000000e+00
  0.00000000e+00  0.00000000e+00  0.00000000e+00  0.00000000e+00
  0.00000000e+00  0.00000000e+00  0.00000000e+00  0.00000000e+00
  0.00000000e+00  0.00000000e+00  0.00000000e+00  0.00000000e+00
  0.00000000e+00  0.00000000e+00 -2.57409391e-07  1.81946899e-07
  0.00000000e+00  0.00000000e+00  0.00000000e+00  3.20558636e-06]","[[-8.19462722e-05  3.35814631e-04]
 [ 6.69897154e-06 -8.92216295e-04]]",[],0.0,0.0
1787305416.1327724,0.46376331494972206,-0.2144370542643545,-0.06001927072242319,"[ 3.28983972e-06 -6.41554122e-08  0.00000000e+00  0.00000000e+00
  0.00000000e+00 -2.57409391e-07 -6.41554122e-08  1.91020074e-06
  0.00000000e+00  0.00000000e+00  0.00000000e+00  1.81946899e-07
  0.00000000e+00  0.00000000e+00  0.00000000e+00  0.00000000e+00
  0.00000000e+00  0.00000000e+00  0.00000000e+00  0.00000000e+00
  0.00000000e+00  0.00000000e+00  0.00000000e+00  0.00000000e+00
  0.00000000e+00  0.00000000e+00  0.00000000e+00  0.00000000e+00
  0.00000000e+00  0.00000000e+00 -2.57409391e-07  1.81946899e-07
  0.00000000e+00  0.00000000e+00  0.00000000e+00  3.20558636e-06]","[[-8.19462722e-05  3.35814631e-04]
 [ 6.69897154e-06 -8.92216295e-04]]",[],0.0,0.0
1787305416.188785,0.46376331494972206,-0.2144370542643545,-0.06001927072242319,"[ 3.28983972e-06 -6.41554122e-08  0.00000000e+00  0.00000000e+00
  0.00000000e+00 -2.57409391e-07 -6.41554122e-08  1.91020074e-06
  0.00000000e+00  0.00000000e+00  0.00000000e+00  1.81946899e-07
  0.00000000e+00  0.00000000e+00  0.00000000e+00  0.00000000e+00
  0.00000000e+00  0.00000000e+00  0.00000000e+00  0.00000000e+00
  0.00000000e+00  0.00000000e+00  0.00000000e+00  0.00000000e+00
  0.00000000e+00  0.00000000e+00  0.00000000e+00  0.00000000e+00
  0.00000000e+00  0.00000000e+00 -2.57409391e-07  1.81946899e-07
  0.00000000e+00  0.00000000e+00  0.00000000e+00  3.20558636e-06]","[[-8.19462722e-05  3.35814631e-04]
 [ 6.69897154e-06 -8.92216295e-04]]",[],0.0,0.0
1787305416.2341747,0.46376331494972206,-0.2144370542643545,-0.06001927072242319,"[ 3.28983972e-06 -6.41554122e-08  0.00000000e+00  0.00000000e+00
  0.00000000e+00 -2.57409391e-07 -6.41554122e-08  1.91020074e-06
  0.00000000e+00  0.00000000e+00  0.00000000e+00  1.81946899e-07
  0.00000000e+00  0.00000000e+00  0.00000000e+00  0.00000000e+00
  0.00000000e+00  0.00000000e+00  0.00000000e+00  0.00000000e+00
  0.00000000e+00  0.00000000e+00  0.00000000e+00  0.00000000e+00
  0.00000000e+00  0.00000000e+00  0.00000000e+00  0.00000000e+00
  0.00000000e+00  0.00000000e+00 -2.57409391e-07  1.81946899e-07
  0.00000000e+00  0.00000000e+00  0.00000000e+00  3.20558636e-06]","[[-8.19462722e-05  3.35814631e-04]
 [ 6.69897154e-06 -8.92216295e-04]]",[],0.0,0.0
1787305416.3082025,0.46376331494972206,-0.2144370542643545,-0.06001927072242319,"[ 3.28983972e-06 -6.41554122e-08  0.00000000e+00  0.00000000e+00
  0.00000000e+00 -2.57409391e-07 -6.41554122e-08  1.91020074e-06
  0.00000000e+00  0.00000000e+00  0.00000000e+00  1.81946899e-07
  0.00000000e+00  0.00000000e+00  0.00000000e+00  0.00000000e+00
  0.00000000e+00  0.00000000e+00  0.00000000e+00  0.00000000e+00
  0.00000000e+00  0.00000000e+00  0.00000000e+00  0.00000000e+00
  0.00000000e+00  0.00000000e+00  0.00000000e+00  0.00000000e+00
  0.00000000e+00  0.00000000e+00 -2.57409391e-07  1.81946899e-07
  0.00000000e+00  0.00000000e+00  0.00000000e+00  3.20558636e-06]","[[-8.19462722e-05  3.35814631e-04]
 [ 6.69897154e-06 -8.92216295e-04]]",[],0.0,0.0
1787305416.3347292,0.46376331494972206,-0.2144370542643545,-0.06001927072242319,"[ 3.28983972e-06 -6.41554122e-08  0.00000000e+00  0.00000000e+00
  0.00000000e+00 -2.57409391e-07 -6.41554122e-08  1.91020074e-06
  0.00000000e+00  0.00000000e+00  0.00000000e+00  1.81946899e-07
  0.00000000e+00  0.00000000e+00  0.00000000e+00  0.00000000e+00
  0.00000000e+00  0.00000000e+00  0.00000000e+00  0.00000000e+00
  0.00000000e+00  0.00000000e+00  0.00000000e+00  0.00000000e+00
  0.00000000e+00  0.00000000e+00  0.00000000e+00  0.00000000e+00
  0.00000000e+00  0.00000000e+00 -2.57409391e-07  1.81946899e-07
  0.00000000e+00  0.00000000e+00  0.00000000e+00  3.20558636e-06]","[[-8.19462722e-05  3.35814631e-04]
 [ 6.69897154e-06 -8.92216295e-04]]",[],0.0,0.0
1787305416.3875995,0.46376331494972206,-0.2144370542643545,-0.06001927072242319,"[ 3.28983972e-06 -6.41554122e-08  0.00000000e+00  0.00000000e+00
  0.00000000e+00 -2.57409391e-07 -6.41554122e-08  1.91020074e-06
  0.00000000e+00  0.00000000e+00  0.00000000e+00  1.81946899e-07
  0.00000000e+00  0.00000000e+00  0.00000000e+00  0.00000000e+00
  0.00000000e+00  0.00000000e+00  0.00000000e+00  0.00000000e+00
  0.00000000e+00  0.00000000e+00  0.00000000e+00  0.00000000e+00
  0.00000000e+00  0.00000000e+00  0.00000000e+00  0.00000000e+00
  0.00000000e+00  0.00000000e+00 -2.57409391e-07  1.81946899e-07
  0.00000000e+00  0.00000000e+00  0.00000000e+00  3.20558636e-06]","[[-8.19462722e-05  3.35814631e-04]
 [ 6.69897154e-06 -8.92216295e-04]]",[],0.0,0.0
1787305416.4335284,0.46376331494972206,-0.2144370542643545,-0.06001927072242319,"[ 3.28983972e-06 -6.41554122e-08  0.00000000e+00  0.00000000e+00
  0.00000000e+00 -2.57409391e-07 -6.41554122e-08  1.91020074e-06
  0.00000000e+00  0.00000000e+00  0.00000000e+00  1.81946899e-07
  0.00000000e+00  0.00000000e+00  0.00000000e+00  0.00000000e+00
  0.00000000e+00  0.00000000e+00  0.00000000e+00  0.00000000e+00
  0.00000000e+00  0.00000000e+00  0.00000000e+00  0.00000000e+00
  0.00000000e+00  0.00000000e+00  0.00000000e+00  0.00000000e+00
  0.00000000e+00  0.00000000e+00 -2.57409391e-07  1.81946899e-07
  0.00000000e+00  0.00000000e+00  0.00000000e+00  3.20558636e-06]","[[-8.19462722e-05  3.35814631e-04]
 [ 6.69897154e-06 -8.92216295e-04]]",[],0.0,0.0
1787305416.4824224,0.46376331494972206,-0.2144370542643545,-0.06001927072242319,"[ 3.28983972e-06 -6.41554122e-08  0.00000000e+00  0.00000000e+00
  0.00000000e+00 -2.57409391e-07 -6.41554122e-08  1.91020074e-06
  0.00000000e+00  0.00000000e+00  0.00000000e+00  1.81946899e-07
  0.00000000e+00  0.00000000e+00  0.00000000e+00  0.00000000e+00
  0.00000000e+00  0.00000000e+00  0.00000000e+00  0.00000000e+00
  0.00000000e+00  0.00000000e+00  0.00000000e+00  0.00000000e+00
  0.00000000e+00  0.00000000e+00  0.00000000e+00  0.00000000e+00
  0.00000000e+00  0.00000000e+00 -2.57409391e-07  1.81946899e-07
  0.00000000e+00  0.00000000e+00  0.00000000e+00  3.20558636e-06]","[[-8.19462722e-05  3.35814631e-04]
 [ 6.69897154e-06 -8.92216295e-04]]",[],0.0,0.0
1787305416.5341833,0.46376331494972206,-0.2144370542643545,-0.06001927072242319,"[ 3.28983972e-06 -6.41554122e-08  0.00000000e+00  0.00000000e+00
  0.00000000e+00 -2.57409391e-07 -6.41554122e-08  1.91020074e-06
  0.00000000e+00  0.00000000e+00  0.00000000e+00  1.81946899e-07
  0.00000000e+00  0.00000000e+00  0.00000000e+00  0.00000000e+00
  0.00000000e+00  0.00000000e+00  0.00000000e+00  0.00000000e+00
  0.00000000e+00  0.00000000e+00  0.00000000e+00  0.00000000e+00
  0.00000000e+00  0.00000000e+00  0.00000000e+00  0.00000000e+00
  0.00000000e+00  0.00000000e+00 -2.57409391e-07  1.81946899e-07
  0.00000000e+00  0.00000000e+00  0.00000000e+00  3.20558636e-06]","[[-8.19462722e-05  3.35814631e-04]
 [ 6.69897154e-06 -8.92216295e-04]]",[],0.0,0.0
1787305416.585142,0.46376331494972206,-0.2144370542643545,-0.06001927072242319,"[ 3.28983972e-06 -6.41554122e-08  0.00000000e+00  0.00000000e+00
  0.00000000e+00 -2.57409391e-07 -6.41554122e-08  1.91020074e-06
  0.00000000e+00  0.00000000e+00  0.00000000e+00  1.81946899e-07
  0.00000000e+00  0.00000000e+00  0.00000000e+00  0.00000000e+00
  0.00000000e+00  0.00000000e+00  0.00000000e+00  0.00000000e+00
  0.00000000e+00  0.00000000e+00  0.00000000e+00  0.00000000e+00
  0.00000000e+00  0.00000000e+00  0.00000000e+00  0.00000000e+00
  0.00000000e+00  0.00000000e+00 -2.57409391e-07  1.81946899e-07
  0.00000000e+00  0.00000000e+00  0.00000000e+00  3.20558636e-06]","[[-8.19462722e-05  3.35814631e-04]
 [ 6.69897154e-06 -8.92216295e-04]]",[],0.0,0.0
1787305416.6355906,0.46376331494972206,-0.2144370542643545,-0.06001927072242319,"[ 3.28983972e-06 -6.41554122e-08  0.00000000e+00  0.00000000e+00
  0.00000000e+00 -2.57409391e-07 -6.41554122e-08  1.91020074e-06
  0.00000000e+00  0.00000000e+00  0.00000000e+00  1.81946899e-07
  0.00000000e+00  0.00000000e+00  0.00000000e+00  0.00000000e+00
  0.00000000e+00  0.00000000e+00  0.00000000e+00  0.00000000e+00
  0.00000000e+00  0.00000000e+00  0.00000000e+00  0.00000000e+00
  0.00000000e+00  0.00000000e+00  0.00000000e+00  0.00000000e+00
  0.00000000e+00  0.00000000e+00 -2.57409391e-07  1.81946899e-07
  0.00000000e+00  0.00000000e+00  0.00000000e+00  3.20558636e-06]","[[-8.19462722e-05  3.35814631e-04]
 [ 6.69897154e-06 -8.92216295e-04]]",[],0.0,0.0
1787305416.6877592,0.46376331494972206,-0.2144370542643545,-0.06001927072242319,"[ 3.28983972e-06 -6.41554122e-08  0.00000000e+00  0.00000000e+00
  0.00000000e+00 -2.57409391e-07 -6.41554122e-08  1.91020074e-06
  0.00000000e+00  0.00000000e+00  0.00000000e+00  1.81946899e-07
  0.00000000e+00  0.00000000e+00  0.00000000e+00  0.00000000e+00
  0.00000000e+00  0.00000000e+00  0.00000000e+00  0.00000000e+00
  0.00000000e+00  0.00000000e+00  0.00000000e+00  0.00000000e+00
  0.00000000e+00  0.00000000e+00  0.00000000e+00  0.00000000e+00
  0.00000000e+00  0.00000000e+00 -2.57409391e-07  1.81946899e-07
  0.00000000e+00  0.00000000e+00  0.00000000e+00  3.20558636e-06]","[[-8.19462722e-05  3.35814631e-04]
 [ 6.69897154e-06 -8.92216295e-04]]",[],0.0,0.0
1787305416.7328603,0.4577837027334663,-0.21112700867989018,-0.06622160084945385,"[ 3.24959880e-06 -8.22414732e-08  0.00000000e+00  0.00000000e+00
  0.00000000e+00 -2.14047381e-07 -8.22414732e-08  1.80528797e-06
  0.00000000e+00  0.00000000e+00  0.00000000e+00  1.69228257e-07
  0.00000000e+00  0.00000000e+00  0.00000000e+00  0.00000000e+00
  0.00000000e+00  0.00000000e+00  0.00000000e+00  0.00000000e+00
  0.00000000e+00  0.00000000e+00  0.00000000e+00  0.00000000e+00
  0.00000000e+00  0.00000000e+00  0.00000000e+00  0.00000000e+00
  0.00000000e+00  0.00000000e+00 -2.14047381e-07  1.69228257e-07
  0.00000000e+00  0.00000000e+00  0.00000000e+00  3.28172151e-06]","[[-8.09904519e-05  2.70573181e-04]
 [ 6.89425315e-06 -8.37219156e-04]]",[],0.0,0.0
1787305416.7870617,0.4577837027334663,-0.21112700867989018,-0.06622160084945385,"[ 3.24959880e-06 -8.22414732e-08  0.00000000e+00  0.00000000e+00
  0.00000000e+00 -2.14047381e-07 -8.22414732e-08  1.80528797e-06
  0.00000000e+00  0.00000000e+00  0.00000000e+00  1.69228257e-07
  0.00000000e+00  0.00000000e+00  0.00000000e+00  0.00000000e+00
  0.00000000e+00  0.00000000e+00  0.00000000e+00  0.00000000e+00
  0.00000000e+00  0.00000000e+00  0.00000000e+00  0.00000000e+00
  0.00000000e+00  0.00000000e+00  0.00000000e+00  0.00000000e+00
  0.00000000e+00  0.00000000e+00 -2.14047381e-07  1.69228257e-07
  0.00000000e+00  0.00000000e+00  0.00000000e+00  3.28172151e-06]","[[-8.09904519e-05  2.70573181e-04]
 [ 6.89425315e-06 -8.37219156e-04]]",[],0.0,0.0
1787305416.8407664,0.4577837027334663,-0.21112700867989018,-0.06622160084945385,"[ 3.24959880e-06 -8.22414732e-08  0.00000000e+00  0.00000000e+00
  0.00000000e+00 -2.14047381e-07 -8.22414732e-08  1.80528797e-06
  0.00000000e+00  0.00000000e+00  0.00000000e+00  1.69228257e-07
  0.00000000e+00  0.00000000e+00  0.00000000e+00  0.00000000e+00
  0.00000000e+00  0.00000000e+00  0.00000000e+00  0.00000000e+00
  0.00000000e+00  0.00000000e+00  0.00000000e+00  0.00000000e+00
  0.00000000e+00  0.00000000e+00  0.00000000e+00  0.00000000e+00
  0.00000000e+00  0.00000000e+00 -2.14047381e-07  1.69228257e-07
  0.00000000e+00  0.00000000e+00  0.00000000e+00  3.28172151e-06]","[[-8.09904519e-05  2.70573181e-04]
 [ 6.89425315e-06 -8.37219156e-04]]",[],0.0,0.0
1787305416.8877637,0.4577837027334663,-0.21112700867989018,-0.06622160084945385,"[ 3.24959880e-06 -8.22414732e-08  0.00000000e+00  0.00000000e+00
  0.00000000e+00 -2.14047381e-07 -8.22414732e-08  1.80528797e-06
  0.00000000e+00  0.00000000e+00  0.00000000e+00  1.69228257e-07
  0.00000000e+00  0.00000000e+00  0.00000000e+00  0.00000000e+00
  0.00000000e+00  0.00000000e+00  0.00000000e+00  0.00000000e+00
  0.00000000e+00  0.00000000e+00  0.00000000e+00  0.00000000e+00
  0.00000000e+00  0.00000000e+00  0.00000000e+00  0.00000000e+00
  0.00000000e+00  0.00000000e+00 -2.14047381e-07  1.69228257e-07
  0.00000000e+00  0.00000000e+00  0.00000000e+00  3.28172151e-06]","[[-8.09904519e-05  2.70573181e-04]
 [ 6.89425315e-06 -8.37219156e-04]]",[],0.0,0.0
1787305416.9332848,0.4577837027334663,-0.21112700867989018,-0.06622160084945385,"[ 3.24959880e-06 -8.22414732e-08  0.00000000e+00  0.00000000e+00
  0.00000000e+00 -2.14047381e-07 -8.22414732e-08  1.80528797e-06
  0.00000000e+00  0.00000000e+00  0.00000000e+00  1.69228257e-07
  0.00000000e+00  0.00000000e+00  0.00000000e+00  0.00000000e+00
  0.00000000e+00  0.00000000e+00  0.00000000e+00  0.00000000e+00
  0.00000000e+00  0.00000000e+00  0.00000000e+00  0.00000000e+00
  0.00000000e+00  0.00000000e+00  0.00000000e+00  0.00000000e+00
  0.00000000e+00  0.00000000e+00 -2.14047381e-07  1.69228257e-07
  0.00000000e+00  0.00000000e+00  0.00000000e+00  3.28172151e-06]","[[-8.09904519e-05  2.70573181e-04]
 [ 6.89425315e-06 -8.37219156e-04]]",[],0.0,0.0
1787305416.9835505,0.4577837027334663,-0.21112700867989018,-0.06622160084945385,"[ 3.24959880e-06 -8.22414732e-08  0.00000000e+00  0.00000000e+00
  0.00000000e+00 -2.14047381e-07 -8.22414732e-08  1.80528797e-06
  0.00000000e+00  0.00000000e+00  0.00000000e+00  1.69228257e-07
  0.00000000e+00  0.00000000e+00  0.00000000e+00  0.00000000e+00
  0.00000000e+00  0.00000000e+00  0.00000000e+00  0.00000000e+00
  0.00000000e+00  0.00000000e+00  0.00000000e+00  0.00000000e+00
  0.00000000e+00  0.00000000e+00  0.00000000e+00  0.00000000e+00
  0.00000000e+00  0.00000000e+00 -2.14047381e-07  1.69228257e-07
  0.00000000e+00  0.00000000e+00  0.00000000e+00  3.28172151e-06]","[[-8.09904519e-05  2.70573181e-04]
 [ 6.89425315e-06 -8.37219156e-04]]",[],0.0,0.0
1787305417.0409544,0.4577837027334663,-0.21112700867989018,-0.06622160084945385,"[ 3.24959880e-06 -8.22414732e-08  0.00000000e+00  0.00000000e+00
  0.00000000e+00 -2.14047381e-07 -8.22414732e-08  1.80528797e-06
  0.00000000e+00  0.00000000e+00  0.00000000e+00  1.69228257e-07
  0.00000000e+00  0.00000000e+00  0.00000000e+00  0.00000000e+00
  0.00000000e+00  0.00000000e+00  0.00000000e+00  0.00000000e+00
  0.00000000e+00  0.00000000e+00  0.00000000e+00  0.00000000e+00
  0.00000000e+00  0.00000000e+00  0.00000000e+00  0.00000000e+00
  0.00000000e+00  0.00000000e+00 -2.14047381e-07  1.69228257e-07
  0.00000000e+00  0.00000000e+00  0.00000000e+00  3.28172151e-06]","[[-8.09904519e-05  2.70573181e-04]
 [ 6.89425315e-06 -8.37219156e-04]]",[],0.0,0.0
1787305417.0887475,0.4577837027334663,-0.21112700867989018,-0.06622160084945385,"[ 3.24959880e-06 -8.22414732e-08  0.00000000e+00  0.00000000e+00
  0.00000000e+00 -2.14047381e-07 -8.22414732e-08  1.80528797e-06
  0.00000000e+00  0.00000000e+00  0.00000000e+00  1.69228257e-07
  0.00000000e+00  0.00000000e+00  0.00000000e+00  0.00000000e+00
  0.00000000e+00  0.00000000e+00  0.00000000e+00  0.00000000e+00
  0.00000000e+00  0.00000000e+00  0.00000000e+00  0.00000000e+00
  0.00000000e+00  0.00000000e+00  0.00000000e+00  0.00000000e+00
  0.00000000e+00  0.00000000e+00 -2.14047381e-07  1.69228257e-07
  0.00000000e+00  0.00000000e+00  0.00000000e+00  3.28172151e-06]","[[-8.09904519e-05  2.70573181e-04]
 [ 6.89425315e-06 -8.37219156e-04]]",[],0.0,0.0
1787305417.1515899,0.4577837027334663,-0.21112700867989018,-0.06622160084945385,"[ 3.24959880e-06 -8.22414732e-08  0.00000000e+00  0.00000000e+00
  0.00000000e+00 -2.14047381e-07 -8.22414732e-08  1.80528797e-06
  0.00000000e+00  0.00000000e+00  0.00000000e+00  1.69228257e-07
  0.00000000e+00  0.00000000e+00  0.00000000e+00  0.00000000e+00
  0.00000000e+00  0.00000000e+00  0.00000000e+00  0.00000000e+00
  0.00000000e+00  0.00000000e+00  0.00000000e+00  0.00000000e+00
  0.00000000e+00  0.00000000e+00  0.00000000e+00  0.00000000e+00
  0.00000000e+00  0.00000000e+00 -2.14047381e-07  1.69228257e-07
  0.00000000e+00  0.00000000e+00  0.00000000e+00  3.28172151e-06]","[[-8.09904519e-05  2.70573181e-04]
 [ 6.89425315e-06 -8.37219156e-04]]",[],0.0,0.0
1787305417.2229598,0.4577837027334663,-0.21112700867989018,-0.06622160084945385,"[ 3.24959880e-06 -8.22414732e-08  0.00000000e+00  0.00000000e+00
  0.00000000e+00 -2.14047381e-07 -8.22414732e-08  1.80528797e-06
  0.00000000e+00  0.00000000e+00  0.00000000e+00  1.69228257e-07
  0.00000000e+00  0.00000000e+00  0.00000000e+00  0.00000000e+00
  0.00000000e+00  0.00000000e+00  0.00000000e+00  0.00000000e+00
  0.00000000e+00  0.00000000e+00  0.00000000e+00  0.00000000e+00
  0.00000000e+00  0.00000000e+00  0.00000000e+00  0.00000000e+00
  0.00000000e+00  0.00000000e+00 -2.14047381e-07  1.69228257e-07
  0.00000000e+00  0.00000000e+00  0.00000000e+00  3.28172151e-06]","[[-8.09904519e-05  2.70573181e-04]
 [ 6.89425315e-06 -8.37219156e-04]]",[],0.0,0.0
1787305417.2341475,0.4577837027334663,-0.21112700867989018,-0.06622160084945385,"[ 3.24959880e-06 -8.22414732e-08  0.00000000e+00  0.00000000e+00
  0.00000000e+00 -2.14047381e-07 -8.22414732e-08  1.80528797e-06
  0.00000000e+00  0.00000000e+00  0.00000000e+00  1.69228257e-07
  0.00000000e+00  0.00000000e+00  0.00000000e+00  0.00000000e+00
  0.00000000e+00  0.00000000e+00  0.00000000e+00  0.00000000e+00
  0.00000000e+00  0.00000000e+00  0.00000000e+00  0.00000000e+00
  0.00000000e+00  0.00000000e+00  0.00000000e+00  0.00000000e+00
  0.00000000e+00  0.00000000e+00 -2.14047381e-07  1.69228257e-07
  0.00000000e+00  0.00000000e+00  0.00000000e+00  3.28172151e-06]","[[-8.09904519e-05  2.70573181e-04]
 [ 6.89425315e-06 -8.37219156e-04]]",[],0.0,0.0
1787305417.414052,0.4577837027334663,-0.21112700867989018,-0.06622160084945385,"[ 3.24959880e-06 -8.22414732e-08  0.00000000e+00  0.00000000e+00
  0.00000000e+00 -2.14047381e-07 -8.22414732e-08  1.80528797e-06
  0.00000000e+00  0.00000000e+00  0.00000000e+00  1.69228257e-07
  0.00000000e+00  0.00000000e+00  0.00000000e+00  0.00000000e+00
  0.00000000e+00  0.00000000e+00  0.00000000e+00  0.00000000e+00
  0.00000000e+00  0.00000000e+00  0.00000000e+00  0.00000000e+00
  0.00000000e+00  0.00000000e+00  0.00000000e+00  0.00000000e+00
  0.00000000e+00  0.00000000e+00 -2.14047381e-07  1.69228257e-07
  0.00000000e+00  0.00000000e+00  0.00000000e+00  3.28172151e-06]","[[-8.09904519e-05  2.70573181e-04]
 [ 6.89425315e-06 -8.37219156e-04]]",[],0.0,0.0
1787305417.6206312,0.453152620757205,-0.20811308718367733,-0.07309265337254356,"[ 3.16770222e-06 -9.60278528e-08  0.00000000e+00  0.00000000e+00
  0.00000000e+00 -1.85412742e-07 -9.60278528e-08  1.71227651e-06
  0.00000000e+00  0.00000000e+00  0.00000000e+00  1.57067762e-07
  0.00000000e+00  0.00000000e+00  0.00000000e+00  0.00000000e+00
  0.00000000e+00  0.00000000e+00  0.00000000e+00  0.00000000e+00
  0.00000000e+00  0.00000000e+00  0.00000000e+00  0.00000000e+00
  0.00000000e+00  0.00000000e+00  0.00000000e+00  0.00000000e+00
  0.00000000e+00  0.00000000e+00 -1.85412742e-07  1.57067762e-07
  0.00000000e+00  0.00000000e+00  0.00000000e+00  3.15588333e-06]","[[-7.89888671e-05  2.29834651e-04]
 [ 7.00813943e-06 -7.87117004e-04]]",[],0.0,0.0
1787305418.0927632,0.453152620757205,-0.20811308718367733,-0.07309265337254356,"[ 3.16770222e-06 -9.60278528e-08  0.00000000e+00  0.00000000e+00
  0.00000000e+00 -1.85412742e-07 -9.60278528e-08  1.71227651e-06
  0.00000000e+00  0.00000000e+00  0.00000000e+00  1.57067762e-07
  0.00000000e+00  0.00000000e+00  0.00000000e+00  0.00000000e+00
  0.00000000e+00  0.00000000e+00  0.00000000e+00  0.00000000e+00
  0.00000000e+00  0.00000000e+00  0.00000000e+00  0.00000000e+00
  0.00000000e+00  0.00000000e+00  0.00000000e+00  0.00000000e+00
  0.00000000e+00  0.00000000e+00 -1.85412742e-07  1.57067762e-07
  0.00000000e+00  0.00000000e+00  0.00000000e+00  3.15588333e-06]","[[-7.89888671e-05  2.29834651e-04]
 [ 7.00813943e-06 -7.87117004e-04]]",[],0.0,0.0
1787305418.2001467,0.4471483187018317,-0.20555094736915183,-0.07498804298456596,"[ 3.06321922e-06 -1.01132790e-07  0.00000000e+00  0.00000000e+00
  0.00000000e+00 -2.21631295e-07 -1.01132790e-07  1.62683975e-06
  0.00000000e+00  0.00000000e+00  0.00000000e+00  1.65853331e-07
  0.00000000e+00  0.00000000e+00  0.00000000e+00  0.00000000e+00
  0.00000000e+00  0.00000000e+00  0.00000000e+00  0.00000000e+00
  0.00000000e+00  0.00000000e+00  0.00000000e+00  0.00000000e+00
  0.00000000e+00  0.00000000e+00  0.00000000e+00  0.00000000e+00
  0.00000000e+00  0.00000000e+00 -2.21631295e-07  1.65853331e-07
  0.00000000e+00  0.00000000e+00  0.00000000e+00  3.03579792e-06]","[[-7.64839027e-05  2.85478248e-04]
 [ 6.29819010e-06 -9.83838354e-04]]",[],0.0,0.0
1787305418.7705548,0.4471483187018317,-0.20555094736915183,-0.07498804298456596,"[ 3.06321922e-06 -1.01132790e-07  0.00000000e+00  0.00000000e+00
  0.00000000e+00 -2.21631295e-07 -1.01132790e-07  1.62683975e-06
  0.00000000e+00  0.00000000e+00  0.00000000e+00  1.65853331e-07
  0.00000000e+00  0.00000000e+00  0.00000000e+00  0.00000000e+00
  0.00000000e+00  0.00000000e+00  0.00000000e+00  0.00000000e+00
  0.00000000e+00  0.00000000e+00  0.00000000e+00  0.00000000e+00
  0.00000000e+00  0.00000000e+00  0.00000000e+00  0.00000000e+00
  0.00000000e+00  0.00000000e+00 -2.21631295e-07  1.65853331e-07
  0.00000000e+00  0.00000000e+00  0.00000000e+00  3.03579792e-06]","[[-7.64839027e-05  2.85478248e-04]
 [ 6.29819010e-06 -9.83838354e-04]]",[],0.0,0.0
1787305418.7846973,0.4471483187018317,-0.20555094736915183,-0.07498804298456596,"[ 3.06321922e-06 -1.01132790e-07  0.00000000e+00  0.00000000e+00
  0.00000000e+00 -2.21631295e-07 -1.01132790e-07  1.62683975e-06
  0.00000000e+00  0.00000000e+00  0.00000000e+00  1.65853331e-07
  0.00000000e+00  0.00000000e+00  0.00000000e+00  0.00000000e+00
  0.00000000e+00  0.00000000e+00  0.00000000e+00  0.00000000e+00
  0.00000000e+00  0.00000000e+00  0.00000000e+00  0.00000000e+00
  0.00000000e+00  0.00000000e+00  0.00000000e+00  0.00000000e+00
  0.00000000e+00  0.00000000e+00 -2.21631295e-07  1.65853331e-07
  0.00000000e+00  0.00000000e+00  0.00000000e+00  3.03579792e-06]","[[-7.64839027e-05  2.85478248e-04]
 [ 6.29819010e-06 -9.83838354e-04]]",[],0.0,0.0
1787305419.2384322,0.4403060650379071,-0.20333209158694077,-0.09137428664067704,"[ 2.94809563e-06 -9.86650647e-08  0.00000000e+00  0.00000000e+00
  0.00000000e+00 -1.69806776e-07 -9.86650647e-08  1.54681385e-06
  0.00000000e+00  0.00000000e+00  0.00000000e+00  1.70875838e-07
  0.00000000e+00  0.00000000e+00  0.00000000e+00  0.00000000e+00
  0.00000000e+00  0.00000000e+00  0.00000000e+00  0.00000000e+00
  0.00000000e+00  0.00000000e+00  0.00000000e+00  0.00000000e+00
  0.00000000e+00  0.00000000e+00  0.00000000e+00  0.00000000e+00
  0.00000000e+00  0.00000000e+00 -1.69806776e-07  1.70875838e-07
  0.00000000e+00  0.00000000e+00  0.00000000e+00  2.86811570e-06]","[[-7.35333348e-05  2.11617434e-04]
 [ 6.65864883e-06 -7.57528222e-04]]",[],0.0,0.0
1787305419.3129516,0.43587719523415197,-0.20128600410512276,-0.09815436212817644,"[ 2.80572082e-06 -1.02168499e-07  0.00000000e+00  0.00000000e+00
  0.00000000e+00 -1.89875894e-07 -1.02168499e-07  1.47844136e-06
  0.00000000e+00  0.00000000e+00  0.00000000e+00  1.50973392e-07
  0.00000000e+00  0.00000000e+00  0.00000000e+00  0.00000000e+00
  0.00000000e+00  0.00000000e+00  0.00000000e+00  0.00000000e+00
  0.00000000e+00  0.00000000e+00  0.00000000e+00  0.00000000e+00
  0.00000000e+00  0.00000000e+00  0.00000000e+00  0.00000000e+00
  0.00000000e+00  0.00000000e+00 -1.89875894e-07  1.50973392e-07
  0.00000000e+00  0.00000000e+00  0.00000000e+00  2.65664993e-06]","[[-7.00032153e-05  2.50556840e-04]
 [ 6.56977839e-06 -7.02729662e-04]]",[],0.0,0.0
1787305419.8826945,0.43587719523415197,-0.20128600410512276,-0.09815436212817644,"[ 2.80572082e-06 -1.02168499e-07  0.00000000e+00  0.00000000e+00
  0.00000000e+00 -1.89875894e-07 -1.02168499e-07  1.47844136e-06
  0.00000000e+00  0.00000000e+00  0.00000000e+00  1.50973392e-07
  0.00000000e+00  0.00000000e+00  0.00000000e+00  0.00000000e+00
  0.00000000e+00  0.00000000e+00  0.00000000e+00  0.00000000e+00
  0.00000000e+00  0.00000000e+00  0.00000000e+00  0.00000000e+00
  0.00000000e+00  0.00000000e+00  0.00000000e+00  0.00000000e+00
  0.00000000e+00  0.00000000e+00 -1.89875894e-07  1.50973392e-07
  0.00000000e+00  0.00000000e+00  0.00000000e+00  2.65664993e-06]","[[-7.00032153e-05  2.50556840e-04]
 [ 6.56977839e-06 -7.02729662e-04]]",[],0.0,0.0
1787305419.9355688,0.4294262263619522,-0.20090702399810506,-0.11484756389153274,"[ 2.74506429e-06 -1.07689572e-07  0.00000000e+00  0.00000000e+00
  0.00000000e+00 -1.87341472e-07 -1.07689572e-07  1.41850251e-06
  0.00000000e+00  0.00000000e+00  0.00000000e+00  1.53469377e-07
  0.00000000e+00  0.00000000e+00  0.00000000e+00  0.00000000e+00
  0.00000000e+00  0.00000000e+00  0.00000000e+00  0.00000000e+00
  0.00000000e+00  0.00000000e+00  0.00000000e+00  0.00000000e+00
  0.00000000e+00  0.00000000e+00  0.00000000e+00  0.00000000e+00
  0.00000000e+00  0.00000000e+00 -1.87341472e-07  1.53469377e-07
  0.00000000e+00  0.00000000e+00  0.00000000e+00  3.04142315e-06]","[[-6.85094971e-05  2.49928663e-04]
 [ 6.55373787e-06 -6.87763649e-04]]",[],0.0,0.0
1787305420.0048916,0.4294262263619522,-0.20090702399810506,-0.11484756389153274,"[ 2.74506429e-06 -1.07689572e-07  0.00000000e+00  0.00000000e+00
  0.00000000e+00 -1.87341472e-07 -1.07689572e-07  1.41850251e-06
  0.00000000e+00  0.00000000e+00  0.00000000e+00  1.53469377e-07
  0.00000000e+00  0.00000000e+00  0.00000000e+00  0.00000000e+00
  0.00000000e+00  0.00000000e+00  0.00000000e+00  0.00000000e+00
  0.00000000e+00  0.00000000e+00  0.00000000e+00  0.00000000e+00
  0.00000000e+00  0.00000000e+00  0.00000000e+00  0.00000000e+00
  0.00000000e+00  0.00000000e+00 -1.87341472e-07  1.53469377e-07
  0.00000000e+00  0.00000000e+00  0.00000000e+00  3.04142315e-06]","[[-6.85094971e-05  2.49928663e-04]
 [ 6.55373787e-06 -6.87763649e-04]]",[],0.0,0.0
1787305420.0706043,0.4294262263619522,-0.20090702399810506,-0.11484756389153274,"[ 2.74506429e-06 -1.07689572e-07  0.00000000e+00  0.00000000e+00
  0.00000000e+00 -1.87341472e-07 -1.07689572e-07  1.41850251e-06
  0.00000000e+00  0.00000000e+00  0.00000000e+00  1.53469377e-07
  0.00000000e+00  0.00000000e+00  0.00000000e+00  0.00000000e+00
  0.00000000e+00  0.00000000e+00  0.00000000e+00  0.00000000e+00
  0.00000000e+00  0.00000000e+00  0.00000000e+00  0.00000000e+00
  0.00000000e+00  0.00000000e+00  0.00000000e+00  0.00000000e+00
  0.00000000e+00  0.00000000e+00 -1.87341472e-07  1.53469377e-07
  0.00000000e+00  0.00000000e+00  0.00000000e+00  3.04142315e-06]","[[-6.85094971e-05  2.49928663e-04]
 [ 6.55373787e-06 -6.87763649e-04]]",[],0.0,0.0
1787305420.087217,0.4294262263619522,-0.20090702399810506,-0.11484756389153274,"[ 2.74506429e-06 -1.07689572e-07  0.00000000e+00  0.00000000e+00
  0.00000000e+00 -1.87341472e-07 -1.07689572e-07  1.41850251e-06
  0.00000000e+00  0.00000000e+00  0.00000000e+00  1.53469377e-07
  0.00000000e+00  0.00000000e+00  0.00000000e+00  0.00000000e+00
  0.00000000e+00  0.00000000e+00  0.00000000e+00  0.00000000e+00
  0.00000000e+00  0.00000000e+00  0.00000000e+00  0.00000000e+00
  0.00000000e+00  0.00000000e+00  0.00000000e+00  0.00000000e+00
  0.00000000e+00  0.00000000e+00 -1.87341472e-07  1.53469377e-07
  0.00000000e+00  0.00000000e+00  0.00000000e+00  3.04142315e-06]","[[-6.85094971e-05  2.49928663e-04]
 [ 6.55373787e-06 -6.87763649e-04]]",[],0.0,0.0
1787305420.1340165,0.4294262263619522,-0.20090702399810506,-0.11484756389153274,"[ 2.74506429e-06 -1.07689572e-07  0.00000000e+00  0.00000000e+00
  0.00000000e+00 -1.87341472e-07 -1.07689572e-07  1.41850251e-06
  0.00000000e+00  0.00000000e+00  0.00000000e+00  1.53469377e-07
  0.00000000e+00  0.00000000e+00  0.00000000e+00  0.00000000e+00
  0.00000000e+00  0.00000000e+00  0.00000000e+00  0.00000000e+00
  0.00000000e+00  0.00000000e+00  0.00000000e+00  0.00000000e+00
  0.00000000e+00  0.00000000e+00  0.00000000e+00  0.00000000e+00
  0.00000000e+00  0.00000000e+00 -1.87341472e-07  1.53469377e-07
  0.00000000e+00  0.00000000e+00  0.00000000e+00  3.04142315e-06]","[[-6.85094971e-05  2.49928663e-04]
 [ 6.55373787e-06 -6.87763649e-04]]",[],0.0,0.0
1787305420.2397382,0.4294262263619522,-0.20090702399810506,-0.11484756389153274,"[ 2.74506429e-06 -1.07689572e-07  0.00000000e+00  0.00000000e+00
  0.00000000e+00 -1.87341472e-07 -1.07689572e-07  1.41850251e-06
  0.00000000e+00  0.00000000e+00  0.00000000e+00  1.53469377e-07
  0.00000000e+00  0.00000000e+00  0.00000000e+00  0.00000000e+00
  0.00000000e+00  0.00000000e+00  0.00000000e+00  0.00000000e+00
  0.00000000e+00  0.00000000e+00  0.00000000e+00  0.00000000e+00
  0.00000000e+00  0.00000000e+00  0.00000000e+00  0.00000000e+00
  0.00000000e+00  0.00000000e+00 -1.87341472e-07  1.53469377e-07
  0.00000000e+00  0.00000000e+00  0.00000000e+00  3.04142315e-06]","[[-6.85094971e-05  2.49928663e-04]
 [ 6.55373787e-06 -6.87763649e-04]]",[],0.0,0.0
1787305420.3218668,0.4294262263619522,-0.20090702399810506,-0.11484756389153274,"[ 2.74506429e-06 -1.07689572e-07  0.00000000e+00  0.00000000e+00
  0.00000000e+00 -1.87341472e-07 -1.07689572e-07  1.41850251e-06
  0.00000000e+00  0.00000000e+00  0.00000000e+00  1.53469377e-07
  0.00000000e+00  0.00000000e+00  0.00000000e+00  0.00000000e+00
  0.00000000e+00  0.00000000e+00  0.00000000e+00  0.00000000e+00
  0.00000000e+00  0.00000000e+00  0.00000000e+00  0.00000000e+00
  0.00000000e+00  0.00000000e+00  0.00000000e+00  0.00000000e+00
  0.00000000e+00  0.00000000e+00 -1.87341472e-07  1.53469377e-07
  0.00000000e+00  0.00000000e+00  0.00000000e+00  3.04142315e-06]","[[-6.85094971e-05  2.49928663e-04]
 [ 6.55373787e-06 -6.87763649e-04]]",[],0.0,0.0
1787305420.3344483,0.4294262263619522,-0.20090702399810506,-0.11484756389153274,"[ 2.74506429e-06 -1.07689572e-07  0.00000000e+00  0.00000000e+00
  0.00000000e+00 -1.87341472e-07 -1.07689572e-07  1.41850251e-06
  0.00000000e+00  0.00000000e+00  0.00000000e+00  1.53469377e-07
  0.00000000e+00  0.00000000e+00  0.00000000e+00  0.00000000e+00
  0.00000000e+00  0.00000000e+00  0.00000000e+00  0.00000000e+00
  0.00000000e+00  0.00000000e+00  0.00000000e+00  0.00000000e+00
  0.00000000e+00  0.00000000e+00  0.00000000e+00  0.00000000e+00
  0.00000000e+00  0.00000000e+00 -1.87341472e-07  1.53469377e-07
  0.00000000e+00  0.00000000e+00  0.00000000e+00  3.04142315e-06]","[[-6.85094971e-05  2.49928663e-04]
 [ 6.55373787e-06 -6.87763649e-04]]",[],0.0,0.0
1787305420.4005258,0.4294262263619522,-0.20090702399810506,-0.11484756389153274,"[ 2.74506429e-06 -1.07689572e-07  0.00000000e+00  0.00000000e+00
  0.00000000e+00 -1.87341472e-07 -1.07689572e-07  1.41850251e-06
  0.00000000e+00  0.00000000e+00  0.00000000e+00  1.53469377e-07
  0.00000000e+00  0.00000000e+00  0.00000000e+00  0.00000000e+00
  0.00000000e+00  0.00000000e+00  0.00000000e+00  0.00000000e+00
  0.00000000e+00  0.00000000e+00  0.00000000e+00  0.00000000e+00
  0.00000000e+00  0.00000000e+00  0.00000000e+00  0.00000000e+00
  0.00000000e+00  0.00000000e+00 -1.87341472e-07  1.53469377e-07
  0.00000000e+00  0.00000000e+00  0.00000000e+00  3.04142315e-06]","[[-6.85094971e-05  2.49928663e-04]
 [ 6.55373787e-06 -6.87763649e-04]]",[],0.0,0.0
1787305420.475132,0.4294262263619522,-0.20090702399810506,-0.11484756389153274,"[ 2.74506429e-06 -1.07689572e-07  0.00000000e+00  0.00000000e+00
  0.00000000e+00 -1.87341472e-07 -1.07689572e-07  1.41850251e-06
  0.00000000e+00  0.00000000e+00  0.00000000e+00  1.53469377e-07
  0.00000000e+00  0.00000000e+00  0.00000000e+00  0.00000000e+00
  0.00000000e+00  0.00000000e+00  0.00000000e+00  0.00000000e+00
  0.00000000e+00  0.00000000e+00  0.00000000e+00  0.00000000e+00
  0.00000000e+00  0.00000000e+00  0.00000000e+00  0.00000000e+00
  0.00000000e+00  0.00000000e+00 -1.87341472e-07  1.53469377e-07
  0.00000000e+00  0.00000000e+00  0.00000000e+00  3.04142315e-06]","[[-6.85094971e-05  2.49928663e-04]
 [ 6.55373787e-06 -6.87763649e-04]]",[],0.0,0.0
1787305420.5384336,0.4294262263619522,-0.20090702399810506,-0.11484756389153274,"[ 2.74506429e-06 -1.07689572e-07  0.00000000e+00  0.00000000e+00
  0.00000000e+00 -1.87341472e-07 -1.07689572e-07  1.41850251e-06
  0.00000000e+00  0.00000000e+00  0.00000000e+00  1.53469377e-07
  0.00000000e+00  0.00000000e+00  0.00000000e+00  0.00000000e+00
  0.00000000e+00  0.00000000e+00  0.00000000e+00  0.00000000e+00
  0.00000000e+00  0.00000000e+00  0.00000000e+00  0.00000000e+00
  0.00000000e+00  0.00000000e+00  0.00000000e+00  0.00000000e+00
  0.00000000e+00  0.00000000e+00 -1.87341472e-07  1.53469377e-07
  0.00000000e+00  0.00000000e+00  0.00000000e+00  3.04142315e-06]","[[-6.85094971e-05  2.49928663e-04]
 [ 6.55373787e-06 -6.87763649e-04]]",[],0.0,0.0
1787305420.5945976,0.4294262263619522,-0.20090702399810506,-0.11484756389153274,"[ 2.74506429e-06 -1.07689572e-07  0.00000000e+00  0.00000000e+00
  0.00000000e+00 -1.87341472e-07 -1.07689572e-07  1.41850251e-06
  0.00000000e+00  0.00000000e+00  0.00000000e+00  1.53469377e-07
  0.00000000e+00  0.00000000e+00  0.00000000e+00  0.00000000e+00
  0.00000000e+00  0.00000000e+00  0.00000000e+00  0.00000000e+00
  0.00000000e+00  0.00000000e+00  0.00000000e+00  0.00000000e+00
  0.00000000e+00  0.00000000e+00  0.00000000e+00  0.00000000e+00
  0.00000000e+00  0.00000000e+00 -1.87341472e-07  1.53469377e-07
  0.00000000e+00  0.00000000e+00  0.00000000e+00  3.04142315e-06]","[[-6.85094971e-05  2.49928663e-04]
 [ 6.55373787e-06 -6.87763649e-04]]",[],0.0,0.0
1787305420.6322923,0.42140004894167504,-0.2010420624448583,-0.13541363477680868,"[ 2.72243429e-06 -1.18401143e-07  0.00000000e+00  0.00000000e+00
  0.00000000e+00 -1.38841912e-07 -1.18401143e-07  1.36248548e-06
  0.00000000e+00  0.00000000e+00  0.00000000e+00  1.42422122e-07
  0.00000000e+00  0.00000000e+00  0.00000000e+00  0.00000000e+00
  0.00000000e+00  0.00000000e+00  0.00000000e+00  0.00000000e+00
  0.00000000e+00  0.00000000e+00  0.00000000e+00  0.00000000e+00
  0.00000000e+00  0.00000000e+00  0.00000000e+00  0.00000000e+00
  0.00000000e+00  0.00000000e+00 -1.38841912e-07  1.42422122e-07
  0.00000000e+00  0.00000000e+00  0.00000000e+00  3.01168446e-06]","[[-6.78785265e-05  1.27355793e-04]
 [ 7.30347048e-06 -8.25428857e-04]]",[],0.0,0.0
1787305420.6912208,0.42140004894167504,-0.2010420624448583,-0.13541363477680868,"[ 2.72243429e-06 -1.18401143e-07  0.00000000e+00  0.00000000e+00
  0.00000000e+00 -1.38841912e-07 -1.18401143e-07  1.36248548e-06
  0.00000000e+00  0.00000000e+00  0.00000000e+00  1.42422122e-07
  0.00000000e+00  0.00000000e+00  0.00000000e+00  0.00000000e+00
  0.00000000e+00  0.00000000e+00  0.00000000e+00  0.00000000e+00
  0.00000000e+00  0.00000000e+00  0.00000000e+00  0.00000000e+00
  0.00000000e+00  0.00000000e+00  0.00000000e+00  0.00000000e+00
  0.00000000e+00  0.00000000e+00 -1.38841912e-07  1.42422122e-07
  0.00000000e+00  0.00000000e+00  0.00000000e+00  3.01168446e-06]","[[-6.78785265e-05  1.27355793e-04]
 [ 7.30347048e-06 -8.25428857e-04]]",[],0.0,0.0
1787305420.7325234,0.42140004894167504,-0.2010420624448583,-0.13541363477680868,"[ 2.72243429e-06 -1.18401143e-07  0.00000000e+00  0.00000000e+00
  0.00000000e+00 -1.38841912e-07 -1.18401143e-07  1.36248548e-06
  0.00000000e+00  0.00000000e+00  0.00000000e+00  1.42422122e-07
  0.00000000e+00  0.00000000e+00  0.00000000e+00  0.00000000e+00
  0.00000000e+00  0.00000000e+00  0.00000000e+00  0.00000000e+00
  0.00000000e+00  0.00000000e+00  0.00000000e+00  0.00000000e+00
  0.00000000e+00  0.00000000e+00  0.00000000e+00  0.00000000e+00
  0.00000000e+00  0.00000000e+00 -1.38841912e-07  1.42422122e-07
  0.00000000e+00  0.00000000e+00  0.00000000e+00  3.01168446e-06]","[[-6.78785265e-05  1.27355793e-04]
 [ 7.30347048e-06 -8.25428857e-04]]",[],0.0,0.0
1787305420.8117602,0.42140004894167504,-0.2010420624448583,-0.13541363477680868,"[ 2.72243429e-06 -1.18401143e-07  0.00000000e+00  0.00000000e+00
  0.00000000e+00 -1.38841912e-07 -1.18401143e-07  1.36248548e-06
  0.00000000e+00  0.00000000e+00  0.00000000e+00  1.42422122e-07
  0.00000000e+00  0.00000000e+00  0.00000000e+00  0.00000000e+00
  0.00000000e+00  0.00000000e+00  0.00000000e+00  0.00000000e+00
  0.00000000e+00  0.00000000e+00  0.00000000e+00  0.00000000e+00
  0.00000000e+00  0.00000000e+00  0.00000000e+00  0.00000000e+00
  0.00000000e+00  0.00000000e+00 -1.38841912e-07  1.42422122e-07
  0.00000000e+00  0.00000000e+00  0.00000000e+00  3.01168446e-06]","[[-6.78785265e-05  1.27355793e-04]
 [ 7.30347048e-06 -8.25428857e-04]]",[],0.0,0.0
1787305420.8780847,0.42140004894167504,-0.2010420624448583,-0.13541363477680868,"[ 2.72243429e-06 -1.18401143e-07  0.00000000e+00  0.00000000e+00
  0.00000000e+00 -1.38841912e-07 -1.18401143e-07  1.36248548e-06
  0.00000000e+00  0.00000000e+00  0.00000000e+00  1.42422122e-07
  0.00000000e+00  0.00000000e+00  0.00000000e+00  0.00000000e+00
  0.00000000e+00  0.00000000e+00  0.00000000e+00  0.00000000e+00
  0.00000000e+00  0.00000000e+00  0.00000000e+00  0.00000000e+00
  0.00000000e+00  0.00000000e+00  0.00000000e+00  0.00000000e+00
  0.00000000e+00  0.00000000e+00 -1.38841912e-07  1.42422122e-07
  0.00000000e+00  0.00000000e+00  0.00000000e+00  3.01168446e-06]","[[-6.78785265e-05  1.27355793e-04]
 [ 7.30347048e-06 -8.25428857e-04]]",[],0.0,0.0
1787305420.882162,0.42140004894167504,-0.2010420624448583,-0.13541363477680868,"[ 2.72243429e-06 -1.18401143e-07  0.00000000e+00  0.00000000e+00
  0.00000000e+00 -1.38841912e-07 -1.18401143e-07  1.36248548e-06
  0.00000000e+00  0.00000000e+00  0.00000000e+00  1.42422122e-07
  0.00000000e+00  0.00000000e+00  0.00000000e+00  0.00000000e+00
  0.00000000e+00  0.00000000e+00  0.00000000e+00  0.00000000e+00
  0.00000000e+00  0.00000000e+00  0.00000000e+00  0.00000000e+00
  0.00000000e+00  0.00000000e+00  0.00000000e+00  0.00000000e+00
  0.00000000e+00  0.00000000e+00 -1.38841912e-07  1.42422122e-07
  0.00000000e+00  0.00000000e+00  0.00000000e+00  3.01168446e-06]","[[-6.78785265e-05  1.27355793e-04]
 [ 7.30347048e-06 -8.25428857e-04]]",[],0.0,0.0
1787305420.9618714,0.42140004894167504,-0.2010420624448583,-0.13541363477680868,"[ 2.72243429e-06 -1.18401143e-07  0.00000000e+00  0.00000000e+00
  0.00000000e+00 -1.38841912e-07 -1.18401143e-07  1.36248548e-06
  0.00000000e+00  0.00000000e+00  0.00000000e+00  1.42422122e-07
  0.00000000e+00  0.00000000e+00  0.00000000e+00  0.00000000e+00
  0.00000000e+00  0.00000000e+00  0.00000000e+00  0.00000000e+00
  0.00000000e+00  0.00000000e+00  0.00000000e+00  0.00000000e+00
  0.00000000e+00  0.00000000e+00  0.00000000e+00  0.00000000e+00
  0.00000000e+00  0.00000000e+00 -1.38841912e-07  1.42422122e-07
  0.00000000e+00  0.00000000e+00  0.00000000e+00  3.01168446e-06]","[[-6.78785265e-05  1.27355793e-04]
 [ 7.30347048e-06 -8.25428857e-04]]",[],0.0,0.0
1787305421.3245962,0.42140004894167504,-0.2010420624448583,-0.13541363477680868,"[ 2.72243429e-06 -1.18401143e-07  0.00000000e+00  0.00000000e+00
  0.00000000e+00 -1.38841912e-07 -1.18401143e-07  1.36248548e-06
  0.00000000e+00  0.00000000e+00  0.00000000e+00  1.42422122e-07
  0.00000000e+00  0.00000000e+00  0.00000000e+00  0.00000000e+00
  0.00000000e+00  0.00000000e+00  0.00000000e+00  0.00000000e+00
  0.00000000e+00  0.00000000e+00  0.00000000e+00  0.00000000e+00
  0.00000000e+00  0.00000000e+00  0.00000000e+00  0.00000000e+00
  0.00000000e+00  0.00000000e+00 -1.38841912e-07  1.42422122e-07
  0.00000000e+00  0.00000000e+00  0.00000000e+00  3.01168446e-06]","[[-6.78785265e-05  1.27355793e-04]
 [ 7.30347048e-06 -8.25428857e-04]]",[],0.0,0.0
1787305421.3334923,0.42140004894167504,-0.2010420624448583,-0.13541363477680868,"[ 2.72243429e-06 -1.18401143e-07  0.00000000e+00  0.00000000e+00
  0.00000000e+00 -1.38841912e-07 -1.18401143e-07  1.36248548e-06
  0.00000000e+00  0.00000000e+00  0.00000000e+00  1.42422122e-07
  0.00000000e+00  0.00000000e+00  0.00000000e+00  0.00000000e+00
  0.00000000e+00  0.00000000e+00  0.00000000e+00  0.00000000e+00
  0.00000000e+00  0.00000000e+00  0.00000000e+00  0.00000000e+00
  0.00000000e+00  0.00000000e+00  0.00000000e+00  0.00000000e+00
  0.00000000e+00  0.00000000e+00 -1.38841912e-07  1.42422122e-07
  0.00000000e+00  0.00000000e+00  0.00000000e+00  3.01168446e-06]","[[-6.78785265e-05  1.27355793e-04]
 [ 7.30347048e-06 -8.25428857e-04]]",[],0.0,0.0
1787305422.0496547,0.41130821269943846,-0.20167991995807275,-0.15841759615683682,"[ 2.68370850e-06 -1.32258851e-07  0.00000000e+00  0.00000000e+00
  0.00000000e+00 -1.38523085e-07 -1.32258851e-07  1.31388716e-06
  0.00000000e+00  0.00000000e+00  0.00000000e+00  1.41260645e-07
  0.00000000e+00  0.00000000e+00  0.00000000e+00  0.00000000e+00
  0.00000000e+00  0.00000000e+00  0.00000000e+00  0.00000000e+00
  0.00000000e+00  0.00000000e+00  0.00000000e+00  0.00000000e+00
  0.00000000e+00  0.00000000e+00  0.00000000e+00  0.00000000e+00
  0.00000000e+00  0.00000000e+00 -1.38523085e-07  1.41260645e-07
  0.00000000e+00  0.00000000e+00  0.00000000e+00  3.01755164e-06]","[[-6.56391495e-05  4.33179189e-05]
 [ 1.17456435e-05 -6.35123280e-04]]",[],0.0,0.0
1787305422.124344,0.4000358541231686,-0.2024410022846485,-0.18906947006404318,"[ 2.65344007e-06 -1.46902230e-07  0.00000000e+00  0.00000000e+00
  0.00000000e+00 -1.44637885e-07 -1.46902230e-07  1.27006833e-06
  0.00000000e+00  0.00000000e+00  0.00000000e+00  1.51389989e-07
  0.00000000e+00  0.00000000e+00  0.00000000e+00  0.00000000e+00
  0.00000000e+00  0.00000000e+00  0.00000000e+00  0.00000000e+00
  0.00000000e+00  0.00000000e+00  0.00000000e+00  0.00000000e+00
  0.00000000e+00  0.00000000e+00  0.00000000e+00  0.00000000e+00
  0.00000000e+00  0.00000000e+00 -1.44637885e-07  1.51389989e-07
  0.00000000e+00  0.00000000e+00  0.00000000e+00  3.04568281e-06]","[[-6.59146707e-05  9.26862645e-05]
 [ 9.32383535e-06 -7.88945737e-04]]",[],0.0,0.0
1787305422.7025886,0.4000358541231686,-0.2024410022846485,-0.18906947006404318,"[ 2.65344007e-06 -1.46902230e-07  0.00000000e+00  0.00000000e+00
  0.00000000e+00 -1.44637885e-07 -1.46902230e-07  1.27006833e-06
  0.00000000e+00  0.00000000e+00  0.00000000e+00  1.51389989e-07
  0.00000000e+00  0.00000000e+00  0.00000000e+00  0.00000000e+00
  0.00000000e+00  0.00000000e+00  0.00000000e+00  0.00000000e+00
  0.00000000e+00  0.00000000e+00  0.00000000e+00  0.00000000e+00
  0.00000000e+00  0.00000000e+00  0.00000000e+00  0.00000000e+00
  0.00000000e+00  0.00000000e+00 -1.44637885e-07  1.51389989e-07
  0.00000000e+00  0.00000000e+00  0.00000000e+00  3.04568281e-06]","[[-6.59146707e-05  9.26862645e-05]
 [ 9.32383535e-06 -7.88945737e-04]]",[],0.0,0.0
1787305423.2871392,0.3897974297585483,-0.20257857346830224,-0.21710085744508015,"[ 2.58614237e-06 -1.60093714e-07  0.00000000e+00  0.00000000e+00
  0.00000000e+00 -1.38527029e-07 -1.60093714e-07  1.22959270e-06
  0.00000000e+00  0.00000000e+00  0.00000000e+00  1.37354374e-07
  0.00000000e+00  0.00000000e+00  0.00000000e+00  0.00000000e+00
  0.00000000e+00  0.00000000e+00  0.00000000e+00  0.00000000e+00
  0.00000000e+00  0.00000000e+00  0.00000000e+00  0.00000000e+00
  0.00000000e+00  0.00000000e+00  0.00000000e+00  0.00000000e+00
  0.00000000e+00  0.00000000e+00 -1.38527029e-07  1.37354374e-07
  0.00000000e+00  0.00000000e+00  0.00000000e+00  2.94329594e-06]","[[-6.34828538e-05  6.21165800e-05]
 [ 1.18299642e-05 -5.98556491e-04]]",[],0.0,0.0
1787305423.9015224,0.3818661595001601,-0.20291429683312934,-0.2447511843544992,"[ 2.51853832e-06 -1.73388988e-07  0.00000000e+00  0.00000000e+00
  0.00000000e+00 -1.39906905e-07 -1.73388988e-07  1.19413950e-06
  0.00000000e+00  0.00000000e+00  0.00000000e+00  1.36320955e-07
  0.00000000e+00  0.00000000e+00  0.00000000e+00  0.00000000e+00
  0.00000000e+00  0.00000000e+00  0.00000000e+00  0.00000000e+00
  0.00000000e+00  0.00000000e+00  0.00000000e+00  0.00000000e+00
  0.00000000e+00  0.00000000e+00  0.00000000e+00  0.00000000e+00
  0.00000000e+00  0.00000000e+00 -1.39906905e-07  1.36320955e-07
  0.00000000e+00  0.00000000e+00  0.00000000e+00  2.94768048e-06]","[[-6.19431739e-05  7.49743968e-05]
 [ 1.19062655e-05 -5.84027557e-04]]",[],0.0,0.0
1787305424.6318684,0.36955825579702206,-0.20176906021785374,-0.27288948197325613,"[ 2.42086547e-06 -1.83149377e-07  0.00000000e+00  0.00000000e+00
  0.00000000e+00 -1.51195974e-07 -1.83149377e-07  1.16020514e-06
  0.00000000e+00  0.00000000e+00  0.00000000e+00  1.52044240e-07
  0.00000000e+00  0.00000000e+00  0.00000000e+00  0.00000000e+00
  0.00000000e+00  0.00000000e+00  0.00000000e+00  0.00000000e+00
  0.00000000e+00  0.00000000e+00  0.00000000e+00  0.00000000e+00
  0.00000000e+00  0.00000000e+00  0.00000000e+00  0.00000000e+00
  0.00000000e+00  0.00000000e+00 -1.51195974e-07  1.52044240e-07
  0.00000000e+00  0.00000000e+00  0.00000000e+00  2.82083325e-06]","[[-5.86332996e-05  5.86747792e-05]
 [ 1.39087131e-05 -5.67092533e-04]]",[],0.0,0.0
1787305424.6966505,0.3633040231539684,-0.20190990864555694,-0.30360014098972726,"[ 2.41645939e-06 -2.16100317e-07  0.00000000e+00  0.00000000e+00
  0.00000000e+00 -1.22435042e-07 -2.16100317e-07  1.13637443e-06
  0.00000000e+00  0.00000000e+00  0.00000000e+00  1.31759479e-07
  0.00000000e+00  0.00000000e+00  0.00000000e+00  0.00000000e+00
  0.00000000e+00  0.00000000e+00  0.00000000e+00  0.00000000e+00
  0.00000000e+00  0.00000000e+00  0.00000000e+00  0.00000000e+00
  0.00000000e+00  0.00000000e+00  0.00000000e+00  0.00000000e+00
  0.00000000e+00  0.00000000e+00 -1.22435042e-07  1.31759479e-07
  0.00000000e+00  0.00000000e+00  0.00000000e+00  3.02593723e-06]","[[-5.79718844e-05 -2.68121460e-05]
 [ 1.57398040e-05 -5.29899844e-04]]",[],0.0,0.0
1787305424.850079,0.3633040231539684,-0.20190990864555694,-0.30360014098972726,"[ 2.41645939e-06 -2.16100317e-07  0.00000000e+00  0.00000000e+00
  0.00000000e+00 -1.22435042e-07 -2.16100317e-07  1.13637443e-06
  0.00000000e+00  0.00000000e+00  0.00000000e+00  1.31759479e-07
  0.00000000e+00  0.00000000e+00  0.00000000e+00  0.00000000e+00
  0.00000000e+00  0.00000000e+00  0.00000000e+00  0.00000000e+00
  0.00000000e+00  0.00000000e+00  0.00000000e+00  0.00000000e+00
  0.00000000e+00  0.00000000e+00  0.00000000e+00  0.00000000e+00
  0.00000000e+00  0.00000000e+00 -1.22435042e-07  1.31759479e-07
  0.00000000e+00  0.00000000e+00  0.00000000e+00  3.02593723e-06]","[[-5.79718844e-05 -2.68121460e-05]
 [ 1.57398040e-05 -5.29899844e-04]]",[],0.0,0.0
1787305424.9014926,0.3633040231539684,-0.20190990864555694,-0.30360014098972726,"[ 2.41645939e-06 -2.16100317e-07  0.00000000e+00  0.00000000e+00
  0.00000000e+00 -1.22435042e-07 -2.16100317e-07  1.13637443e-06
  0.00000000e+00  0.00000000e+00  0.00000000e+00  1.31759479e-07
  0.00000000e+00  0.00000000e+00  0.00000000e+00  0.00000000e+00
  0.00000000e+00  0.00000000e+00  0.00000000e+00  0.00000000e+00
  0.00000000e+00  0.00000000e+00  0.00000000e+00  0.00000000e+00
  0.00000000e+00  0.00000000e+00  0.00000000e+00  0.00000000e+00
  0.00000000e+00  0.00000000e+00 -1.22435042e-07  1.31759479e-07
  0.00000000e+00  0.00000000e+00  0.00000000e+00  3.02593723e-06]","[[-5.79718844e-05 -2.68121460e-05]
 [ 1.57398040e-05 -5.29899844e-04]]",[],0.0,0.0
1787305425.2974982,0.3633040231539684,-0.20190990864555694,-0.30360014098972726,"[ 2.41645939e-06 -2.16100317e-07  0.00000000e+00  0.00000000e+00
  0.00000000e+00 -1.22435042e-07 -2.16100317e-07  1.13637443e-06
  0.00000000e+00  0.00000000e+00  0.00000000e+00  1.31759479e-07
  0.00000000e+00  0.00000000e+00  0.00000000e+00  0.00000000e+00
  0.00000000e+00  0.00000000e+00  0.00000000e+00  0.00000000e+00
  0.00000000e+00  0.00000000e+00  0.00000000e+00  0.00000000e+00
  0.00000000e+00  0.00000000e+00  0.00000000e+00  0.00000000e+00
  0.00000000e+00  0.00000000e+00 -1.22435042e-07  1.31759479e-07
  0.00000000e+00  0.00000000e+00  0.00000000e+00  3.02593723e-06]","[[-5.79718844e-05 -2.68121460e-05]
 [ 1.57398040e-05 -5.29899844e-04]]",[],0.0,0.0
1787305425.3344977,0.3633040231539684,-0.20190990864555694,-0.30360014098972726,"[ 2.41645939e-06 -2.16100317e-07  0.00000000e+00  0.00000000e+00
  0.00000000e+00 -1.22435042e-07 -2.16100317e-07  1.13637443e-06
  0.00000000e+00  0.00000000e+00  0.00000000e+00  1.31759479e-07
  0.00000000e+00  0.00000000e+00  0.00000000e+00  0.00000000e+00
  0.00000000e+00  0.00000000e+00  0.00000000e+00  0.00000000e+00
  0.00000000e+00  0.00000000e+00  0.00000000e+00  0.00000000e+00
  0.00000000e+00  0.00000000e+00  0.00000000e+00  0.00000000e+00
  0.00000000e+00  0.00000000e+00 -1.22435042e-07  1.31759479e-07
  0.00000000e+00  0.00000000e+00  0.00000000e+00  3.02593723e-06]","[[-5.79718844e-05 -2.68121460e-05]
 [ 1.57398040e-05 -5.29899844e-04]]",[],0.0,0.0
1787305425.3897195,0.3633040231539684,-0.20190990864555694,-0.30360014098972726,"[ 2.41645939e-06 -2.16100317e-07  0.00000000e+00  0.00000000e+00
  0.00000000e+00 -1.22435042e-07 -2.16100317e-07  1.13637443e-06
  0.00000000e+00  0.00000000e+00  0.00000000e+00  1.31759479e-07
  0.00000000e+00  0.00000000e+00  0.00000000e+00  0.00000000e+00
  0.00000000e+00  0.00000000e+00  0.00000000e+00  0.00000000e+00
  0.00000000e+00  0.00000000e+00  0.00000000e+00  0.00000000e+00
  0.00000000e+00  0.00000000e+00  0.00000000e+00  0.00000000e+00
  0.00000000e+00  0.00000000e+00 -1.22435042e-07  1.31759479e-07
  0.00000000e+00  0.00000000e+00  0.00000000e+00  3.02593723e-06]","[[-5.79718844e-05 -2.68121460e-05]
 [ 1.57398040e-05 -5.29899844e-04]]",[],0.0,0.0
1787305425.4322035,0.3633040231539684,-0.20190990864555694,-0.30360014098972726,"[ 2.41645939e-06 -2.16100317e-07  0.00000000e+00  0.00000000e+00
  0.00000000e+00 -1.22435042e-07 -2.16100317e-07  1.13637443e-06
  0.00000000e+00  0.00000000e+00  0.00000000e+00  1.31759479e-07
  0.00000000e+00  0.00000000e+00  0.00000000e+00  0.00000000e+00
  0.00000000e+00  0.00000000e+00  0.00000000e+00  0.00000000e+00
  0.00000000e+00  0.00000000e+00  0.00000000e+00  0.00000000e+00
  0.00000000e+00  0.00000000e+00  0.00000000e+00  0.00000000e+00
  0.00000000e+00  0.00000000e+00 -1.22435042e-07  1.31759479e-07
  0.00000000e+00  0.00000000e+00  0.00000000e+00  3.02593723e-06]","[[-5.79718844e-05 -2.68121460e-05]
 [ 1.57398040e-05 -5.29899844e-04]]",[],0.0,0.0
1787305425.5677116,0.35416218456929116,-0.2006116016068605,-0.33545544617027234,"[ 2.39789182e-06 -2.49712728e-07  0.00000000e+00  0.00000000e+00
  0.00000000e+00 -1.53703717e-07 -2.49712728e-07  1.11473959e-06
  0.00000000e+00  0.00000000e+00  0.00000000e+00  1.42796713e-07
  0.00000000e+00  0.00000000e+00  0.00000000e+00  0.00000000e+00
  0.00000000e+00  0.00000000e+00  0.00000000e+00  0.00000000e+00
  0.00000000e+00  0.00000000e+00  0.00000000e+00  0.00000000e+00
  0.00000000e+00  0.00000000e+00  0.00000000e+00  0.00000000e+00
  0.00000000e+00  0.00000000e+00 -1.53703717e-07  1.42796713e-07
  0.00000000e+00  0.00000000e+00  0.00000000e+00  2.94555576e-06]","[[-5.86986575e-05  1.36088753e-05]
 [ 1.50026682e-05 -6.63639098e-04]]",[],0.0,0.0
1787305426.1146302,0.35416218456929116,-0.2006116016068605,-0.33545544617027234,"[ 2.39789182e-06 -2.49712728e-07  0.00000000e+00  0.00000000e+00
  0.00000000e+00 -1.53703717e-07 -2.49712728e-07  1.11473959e-06
  0.00000000e+00  0.00000000e+00  0.00000000e+00  1.42796713e-07
  0.00000000e+00  0.00000000e+00  0.00000000e+00  0.00000000e+00
  0.00000000e+00  0.00000000e+00  0.00000000e+00  0.00000000e+00
  0.00000000e+00  0.00000000e+00  0.00000000e+00  0.00000000e+00
  0.00000000e+00  0.00000000e+00  0.00000000e+00  0.00000000e+00
  0.00000000e+00  0.00000000e+00 -1.53703717e-07  1.42796713e-07
  0.00000000e+00  0.00000000e+00  0.00000000e+00  2.94555576e-06]","[[-5.86986575e-05  1.36088753e-05]
 [ 1.50026682e-05 -6.63639098e-04]]",[],0.0,0.0
1787305426.1324728,0.35217631878814654,-0.200160790235881,-0.354394610226215,"[ 2.36063435e-06 -2.74960176e-07  0.00000000e+00  0.00000000e+00
  0.00000000e+00 -1.44874113e-07 -2.74960176e-07  1.09445472e-06
  0.00000000e+00  0.00000000e+00  0.00000000e+00  1.33592391e-07
  0.00000000e+00  0.00000000e+00  0.00000000e+00  0.00000000e+00
  0.00000000e+00  0.00000000e+00  0.00000000e+00  0.00000000e+00
  0.00000000e+00  0.00000000e+00  0.00000000e+00  0.00000000e+00
  0.00000000e+00  0.00000000e+00  0.00000000e+00  0.00000000e+00
  0.00000000e+00  0.00000000e+00 -1.44874113e-07  1.33592391e-07
  0.00000000e+00  0.00000000e+00  0.00000000e+00  2.93591151e-06]","[[-5.70471607e-05  1.17631597e-05]
 [ 1.69686563e-05 -5.30219467e-04]]",[],0.0,0.0
1787305426.182419,0.35217631878814654,-0.200160790235881,-0.354394610226215,"[ 2.36063435e-06 -2.74960176e-07  0.00000000e+00  0.00000000e+00
  0.00000000e+00 -1.44874113e-07 -2.74960176e-07  1.09445472e-06
  0.00000000e+00  0.00000000e+00  0.00000000e+00  1.33592391e-07
  0.00000000e+00  0.00000000e+00  0.00000000e+00  0.00000000e+00
  0.00000000e+00  0.00000000e+00  0.00000000e+00  0.00000000e+00
  0.00000000e+00  0.00000000e+00  0.00000000e+00  0.00000000e+00
  0.00000000e+00  0.00000000e+00  0.00000000e+00  0.00000000e+00
  0.00000000e+00  0.00000000e+00 -1.44874113e-07  1.33592391e-07
  0.00000000e+00  0.00000000e+00  0.00000000e+00  2.93591151e-06]","[[-5.70471607e-05  1.17631597e-05]
 [ 1.69686563e-05 -5.30219467e-04]]",[],0.0,0.0
1787305426.2337215,0.35217631878814654,-0.200160790235881,-0.354394610226215,"[ 2.36063435e-06 -2.74960176e-07  0.00000000e+00  0.00000000e+00
  0.00000000e+00 -1.44874113e-07 -2.74960176e-07  1.09445472e-06
  0.00000000e+00  0.00000000e+00  0.00000000e+00  1.33592391e-07
  0.00000000e+00  0.00000000e+00  0.00000000e+00  0.00000000e+00
  0.00000000e+00  0.00000000e+00  0.00000000e+00  0.00000000e+00
  0.00000000e+00  0.00000000e+00  0.00000000e+00  0.00000000e+00
  0.00000000e+00  0.00000000e+00  0.00000000e+00  0.00000000e+00
  0.00000000e+00  0.00000000e+00 -1.44874113e-07  1.33592391e-07
  0.00000000e+00  0.00000000e+00  0.00000000e+00  2.93591151e-06]","[[-5.70471607e-05  1.17631597e-05]
 [ 1.69686563e-05 -5.30219467e-04]]",[],0.0,0.0
1787305426.2820516,0.35217631878814654,-0.200160790235881,-0.354394610226215,"[ 2.36063435e-06 -2.74960176e-07  0.00000000e+00  0.00000000e+00
  0.00000000e+00 -1.44874113e-07 -2.74960176e-07  1.09445472e-06
  0.00000000e+00  0.00000000e+00  0.00000000e+00  1.33592391e-07
  0.00000000e+00  0.00000000e+00  0.00000000e+00  0.00000000e+00
  0.00000000e+00  0.00000000e+00  0.00000000e+00  0.00000000e+00
  0.00000000e+00  0.00000000e+00  0.00000000e+00  0.00000000e+00
  0.00000000e+00  0.00000000e+00  0.00000000e+00  0.00000000e+00
  0.00000000e+00  0.00000000e+00 -1.44874113e-07  1.33592391e-07
  0.00000000e+00  0.00000000e+00  0.00000000e+00  2.93591151e-06]","[[-5.70471607e-05  1.17631597e-05]
 [ 1.69686563e-05 -5.30219467e-04]]",[],0.0,0.0
1787305426.3733227,0.35217631878814654,-0.200160790235881,-0.354394610226215,"[ 2.36063435e-06 -2.74960176e-07  0.00000000e+00  0.00000000e+00
  0.00000000e+00 -1.44874113e-07 -2.74960176e-07  1.09445472e-06
  0.00000000e+00  0.00000000e+00  0.00000000e+00  1.33592391e-07
  0.00000000e+00  0.00000000e+00  0.00000000e+00  0.00000000e+00
  0.00000000e+00  0.00000000e+00  0.00000000e+00  0.00000000e+00
  0.00000000e+00  0.00000000e+00  0.00000000e+00  0.00000000e+00
  0.00000000e+00  0.00000000e+00  0.00000000e+00  0.00000000e+00
  0.00000000e+00  0.00000000e+00 -1.44874113e-07  1.33592391e-07
  0.00000000e+00  0.00000000e+00  0.00000000e+00  2.93591151e-06]","[[-5.70471607e-05  1.17631597e-05]
 [ 1.69686563e-05 -5.30219467e-04]]",[],0.0,0.0
1787305426.385394,0.35217631878814654,-0.200160790235881,-0.354394610226215,"[ 2.36063435e-06 -2.74960176e-07  0.00000000e+00  0.00000000e+00
  0.00000000e+00 -1.44874113e-07 -2.74960176e-07  1.09445472e-06
  0.00000000e+00  0.00000000e+00  0.00000000e+00  1.33592391e-07
  0.00000000e+00  0.00000000e+00  0.00000000e+00  0.00000000e+00
  0.00000000e+00  0.00000000e+00  0.00000000e+00  0.00000000e+00
  0.00000000e+00  0.00000000e+00  0.00000000e+00  0.00000000e+00
  0.00000000e+00  0.00000000e+00  0.00000000e+00  0.00000000e+00
  0.00000000e+00  0.00000000e+00 -1.44874113e-07  1.33592391e-07
  0.00000000e+00  0.00000000e+00  0.00000000e+00  2.93591151e-06]","[[-5.70471607e-05  1.17631597e-05]
 [ 1.69686563e-05 -5.30219467e-04]]",[],0.0,0.0
1787305426.4839723,0.35217631878814654,-0.200160790235881,-0.354394610226215,"[ 2.36063435e-06 -2.74960176e-07  0.00000000e+00  0.00000000e+00
  0.00000000e+00 -1.44874113e-07 -2.74960176e-07  1.09445472e-06
  0.00000000e+00  0.00000000e+00  0.00000000e+00  1.33592391e-07
  0.00000000e+00  0.00000000e+00  0.00000000e+00  0.00000000e+00
  0.00000000e+00  0.00000000e+00  0.00000000e+00  0.00000000e+00
  0.00000000e+00  0.00000000e+00  0.00000000e+00  0.00000000e+00
  0.00000000e+00  0.00000000e+00  0.00000000e+00  0.00000000e+00
  0.00000000e+00  0.00000000e+00 -1.44874113e-07  1.33592391e-07
  0.00000000e+00  0.00000000e+00  0.00000000e+00  2.93591151e-06]","[[-5.70471607e-05  1.17631597e-05]
 [ 1.69686563e-05 -5.30219467e-04]]",[],0.0,0.0
1787305426.5361707,0.35217631878814654,-0.200160790235881,-0.354394610226215,"[ 2.36063435e-06 -2.74960176e-07  0.00000000e+00  0.00000000e+00
  0.00000000e+00 -1.44874113e-07 -2.74960176e-07  1.09445472e-06
  0.00000000e+00  0.00000000e+00  0.00000000e+00  1.33592391e-07
  0.00000000e+00  0.00000000e+00  0.00000000e+00  0.00000000e+00
  0.00000000e+00  0.00000000e+00  0.00000000e+00  0.00000000e+00
  0.00000000e+00  0.00000000e+00  0.00000000e+00  0.00000000e+00
  0.00000000e+00  0.00000000e+00  0.00000000e+00  0.00000000e+00
  0.00000000e+00  0.00000000e+00 -1.44874113e-07  1.33592391e-07
  0.00000000e+00  0.00000000e+00  0.00000000e+00  2.93591151e-06]","[[-5.70471607e-05  1.17631597e-05]
 [ 1.69686563e-05 -5.30219467e-04]]",[],0.0,0.0
1787305426.600399,0.35217631878814654,-0.200160790235881,-0.354394610226215,"[ 2.36063435e-06 -2.74960176e-07  0.00000000e+00  0.00000000e+00
  0.00000000e+00 -1.44874113e-07 -2.74960176e-07  1.09445472e-06
  0.00000000e+00  0.00000000e+00  0.00000000e+00  1.33592391e-07
  0.00000000e+00  0.00000000e+00  0.00000000e+00  0.00000000e+00
  0.00000000e+00  0.00000000e+00  0.00000000e+00  0.00000000e+00
  0.00000000e+00  0.00000000e+00  0.00000000e+00  0.00000000e+00
  0.00000000e+00  0.00000000e+00  0.00000000e+00  0.00000000e+00
  0.00000000e+00  0.00000000e+00 -1.44874113e-07  1.33592391e-07
  0.00000000e+00  0.00000000e+00  0.00000000e+00  2.93591151e-06]","[[-5.70471607e-05  1.17631597e-05]
 [ 1.69686563e-05 -5.30219467e-04]]",[],0.0,0.0
1787305426.9033103,0.35217631878814654,-0.200160790235881,-0.354394610226215,"[ 2.36063435e-06 -2.74960176e-07  0.00000000e+00  0.00000000e+00
  0.00000000e+00 -1.44874113e-07 -2.74960176e-07  1.09445472e-06
  0.00000000e+00  0.00000000e+00  0.00000000e+00  1.33592391e-07
  0.00000000e+00  0.00000000e+00  0.00000000e+00  0.00000000e+00
  0.00000000e+00  0.00000000e+00  0.00000000e+00  0.00000000e+00
  0.00000000e+00  0.00000000e+00  0.00000000e+00  0.00000000e+00
  0.00000000e+00  0.00000000e+00  0.00000000e+00  0.00000000e+00
  0.00000000e+00  0.00000000e+00 -1.44874113e-07  1.33592391e-07
  0.00000000e+00  0.00000000e+00  0.00000000e+00  2.93591151e-06]","[[-5.70471607e-05  1.17631597e-05]
 [ 1.69686563e-05 -5.30219467e-04]]",[],0.0,0.0
1787305427.0779784,0.34982097783052885,-0.19963826657586606,-0.3650467742989485,"[ 2.36540936e-06 -3.15373239e-07  0.00000000e+00  0.00000000e+00
  0.00000000e+00 -1.30626299e-07 -3.15373239e-07  1.08267523e-06
  0.00000000e+00  0.00000000e+00  0.00000000e+00  1.29982681e-07
  0.00000000e+00  0.00000000e+00  0.00000000e+00  0.00000000e+00
  0.00000000e+00  0.00000000e+00  0.00000000e+00  0.00000000e+00
  0.00000000e+00  0.00000000e+00  0.00000000e+00  0.00000000e+00
  0.00000000e+00  0.00000000e+00  0.00000000e+00  0.00000000e+00
  0.00000000e+00  0.00000000e+00 -1.30626299e-07  1.29982681e-07
  0.00000000e+00  0.00000000e+00  0.00000000e+00  3.00267556e-06]","[[-5.76817909e-05 -5.16607469e-05]
 [ 1.75979457e-05 -6.02146673e-04]]",[],0.0,0.0
1787305427.1041985,0.34982097783052885,-0.19963826657586606,-0.3650467742989485,"[ 2.36540936e-06 -3.15373239e-07  0.00000000e+00  0.00000000e+00
  0.00000000e+00 -1.30626299e-07 -3.15373239e-07  1.08267523e-06
  0.00000000e+00  0.00000000e+00  0.00000000e+00  1.29982681e-07
  0.00000000e+00  0.00000000e+00  0.00000000e+00  0.00000000e+00
  0.00000000e+00  0.00000000e+00  0.00000000e+00  0.00000000e+00
  0.00000000e+00  0.00000000e+00  0.00000000e+00  0.00000000e+00
  0.00000000e+00  0.00000000e+00  0.00000000e+00  0.00000000e+00
  0.00000000e+00  0.00000000e+00 -1.30626299e-07  1.29982681e-07
  0.00000000e+00  0.00000000e+00  0.00000000e+00  3.00267556e-06]","[[-5.76817909e-05 -5.16607469e-05]
 [ 1.75979457e-05 -6.02146673e-04]]",[],0.0,0.0
1787305427.5781674,0.34982097783052885,-0.19963826657586606,-0.3650467742989485,"[ 2.36540936e-06 -3.15373239e-07  0.00000000e+00  0.00000000e+00
  0.00000000e+00 -1.30626299e-07 -3.15373239e-07  1.08267523e-06
  0.00000000e+00  0.00000000e+00  0.00000000e+00  1.29982681e-07
  0.00000000e+00  0.00000000e+00  0.00000000e+00  0.00000000e+00
  0.00000000e+00  0.00000000e+00  0.00000000e+00  0.00000000e+00
  0.00000000e+00  0.00000000e+00  0.00000000e+00  0.00000000e+00
  0.00000000e+00  0.00000000e+00  0.00000000e+00  0.00000000e+00
  0.00000000e+00  0.00000000e+00 -1.30626299e-07  1.29982681e-07
  0.00000000e+00  0.00000000e+00  0.00000000e+00  3.00267556e-06]","[[-5.76817909e-05 -5.16607469e-05]
 [ 1.75979457e-05 -6.02146673e-04]]",[],0.0,0.0
1787305427.5884717,0.34982097783052885,-0.19963826657586606,-0.3650467742989485,"[ 2.36540936e-06 -3.15373239e-07  0.00000000e+00  0.00000000e+00
  0.00000000e+00 -1.30626299e-07 -3.15373239e-07  1.08267523e-06
  0.00000000e+00  0.00000000e+00  0.00000000e+00  1.29982681e-07
  0.00000000e+00  0.00000000e+00  0.00000000e+00  0.00000000e+00
  0.00000000e+00  0.00000000e+00  0.00000000e+00  0.00000000e+00
  0.00000000e+00  0.00000000e+00  0.00000000e+00  0.00000000e+00
  0.00000000e+00  0.00000000e+00  0.00000000e+00  0.00000000e+00
  0.00000000e+00  0.00000000e+00 -1.30626299e-07  1.29982681e-07
  0.00000000e+00  0.00000000e+00  0.00000000e+00  3.00267556e-06]","[[-5.76817909e-05 -5.16607469e-05]
 [ 1.75979457e-05 -6.02146673e-04]]",[],0.0,0.0
1787305427.690969,0.3473434839175055,-0.1994052253213183,-0.37725776168808534,"[ 2.32061438e-06 -3.36010293e-07  0.00000000e+00  0.00000000e+00
  0.00000000e+00 -1.16388834e-07 -3.36010293e-07  1.06743162e-06
  0.00000000e+00  0.00000000e+00  0.00000000e+00  1.29292910e-07
  0.00000000e+00  0.00000000e+00  0.00000000e+00  0.00000000e+00
  0.00000000e+00  0.00000000e+00  0.00000000e+00  0.00000000e+00
  0.00000000e+00  0.00000000e+00  0.00000000e+00  0.00000000e+00
  0.00000000e+00  0.00000000e+00  0.00000000e+00  0.00000000e+00
  0.00000000e+00  0.00000000e+00 -1.16388834e-07  1.29292910e-07
  0.00000000e+00  0.00000000e+00  0.00000000e+00  2.90546475e-06]","[[-5.68443526e-05 -5.90582616e-05]
 [ 1.79275075e-05 -5.91154306e-04]]",[],0.0,0.0
1787305428.3155198,0.3473434839175055,-0.1994052253213183,-0.37725776168808534,"[ 2.32061438e-06 -3.36010293e-07  0.00000000e+00  0.00000000e+00
  0.00000000e+00 -1.16388834e-07 -3.36010293e-07  1.06743162e-06
  0.00000000e+00  0.00000000e+00  0.00000000e+00  1.29292910e-07
  0.00000000e+00  0.00000000e+00  0.00000000e+00  0.00000000e+00
  0.00000000e+00  0.00000000e+00  0.00000000e+00  0.00000000e+00
  0.00000000e+00  0.00000000e+00  0.00000000e+00  0.00000000e+00
  0.00000000e+00  0.00000000e+00  0.00000000e+00  0.00000000e+00
  0.00000000e+00  0.00000000e+00 -1.16388834e-07  1.29292910e-07
  0.00000000e+00  0.00000000e+00  0.00000000e+00  2.90546475e-06]","[[-5.68443526e-05 -5.90582616e-05]
 [ 1.79275075e-05 -5.91154306e-04]]",[],0.0,0.0
1787305428.332678,0.34526386169240086,-0.19937878891240504,-0.3930057334972963,"[ 2.31797339e-06 -3.69377728e-07  0.00000000e+00  0.00000000e+00
  0.00000000e+00 -9.04776483e-08 -3.69377728e-07  1.05836375e-06
  0.00000000e+00  0.00000000e+00  0.00000000e+00  1.17410964e-07
  0.00000000e+00  0.00000000e+00  0.00000000e+00  0.00000000e+00
  0.00000000e+00  0.00000000e+00  0.00000000e+00  0.00000000e+00
  0.00000000e+00  0.00000000e+00  0.00000000e+00  0.00000000e+00
  0.00000000e+00  0.00000000e+00  0.00000000e+00  0.00000000e+00
  0.00000000e+00  0.00000000e+00 -9.04776483e-08  1.17410964e-07
  0.00000000e+00  0.00000000e+00  0.00000000e+00  2.98697888e-06]","[[-5.71035040e-05 -8.75791477e-05]
 [ 1.86085155e-05 -5.62070707e-04]]",[],0.0,0.0
1787305429.0445433,0.34526386169240086,-0.19937878891240504,-0.3930057334972963,"[ 2.31797339e-06 -3.69377728e-07  0.00000000e+00  0.00000000e+00
  0.00000000e+00 -9.04776483e-08 -3.69377728e-07  1.05836375e-06
  0.00000000e+00  0.00000000e+00  0.00000000e+00  1.17410964e-07
  0.00000000e+00  0.00000000e+00  0.00000000e+00  0.00000000e+00
  0.00000000e+00  0.00000000e+00  0.00000000e+00  0.00000000e+00
  0.00000000e+00  0.00000000e+00  0.00000000e+00  0.00000000e+00
  0.00000000e+00  0.00000000e+00  0.00000000e+00  0.00000000e+00
  0.00000000e+00  0.00000000e+00 -9.04776483e-08  1.17410964e-07
  0.00000000e+00  0.00000000e+00  0.00000000e+00  2.98697888e-06]","[[-5.71035040e-05 -8.75791477e-05]
 [ 1.86085155e-05 -5.62070707e-04]]",[],0.0,0.0
1787305429.8383222,0.3441881560060136,-0.19893851270173019,-0.39936376606129365,"[ 2.29702224e-06 -3.97000261e-07  0.00000000e+00  0.00000000e+00
  0.00000000e+00 -1.07507660e-07 -3.97000261e-07  1.05059266e-06
  0.00000000e+00  0.00000000e+00  0.00000000e+00  1.16980475e-07
  0.00000000e+00  0.00000000e+00  0.00000000e+00  0.00000000e+00
  0.00000000e+00  0.00000000e+00  0.00000000e+00  0.00000000e+00
  0.00000000e+00  0.00000000e+00  0.00000000e+00  0.00000000e+00
  0.00000000e+00  0.00000000e+00  0.00000000e+00  0.00000000e+00
  0.00000000e+00  0.00000000e+00 -1.07507660e-07  1.16980475e-07
  0.00000000e+00  0.00000000e+00  0.00000000e+00  3.00239302e-06]","[[-5.58799207e-05 -3.68219688e-05]
 [ 2.05334229e-05 -4.41964127e-04]]",[],0.0,0.0
1787305429.8824825,0.34060653945146674,-0.19875992936958828,-0.41192743694501127,"[ 2.29728075e-06 -4.30529481e-07  0.00000000e+00  0.00000000e+00
  0.00000000e+00 -1.19524067e-07 -4.30529481e-07  1.04574387e-06
  0.00000000e+00  0.00000000e+00  0.00000000e+00  1.23900145e-07
  0.00000000e+00  0.00000000e+00  0.00000000e+00  0.00000000e+00
  0.00000000e+00  0.00000000e+00  0.00000000e+00  0.00000000e+00
  0.00000000e+00  0.00000000e+00  0.00000000e+00  0.00000000e+00
  0.00000000e+00  0.00000000e+00  0.00000000e+00  0.00000000e+00
  0.00000000e+00  0.00000000e+00 -1.19524067e-07  1.23900145e-07
  0.00000000e+00  0.00000000e+00  0.00000000e+00  2.92191519e-06]","[[-5.68419768e-05 -3.74502439e-05]
 [ 2.04699921e-05 -5.43656523e-04]]",[],0.0,0.0
1787305429.9324217,0.34060653945146674,-0.19875992936958828,-0.41192743694501127,"[ 2.29728075e-06 -4.30529481e-07  0.00000000e+00  0.00000000e+00
  0.00000000e+00 -1.19524067e-07 -4.30529481e-07  1.04574387e-06
  0.00000000e+00  0.00000000e+00  0.00000000e+00  1.23900145e-07
  0.00000000e+00  0.00000000e+00  0.00000000e+00  0.00000000e+00
  0.00000000e+00  0.00000000e+00  0.00000000e+00  0.00000000e+00
  0.00000000e+00  0.00000000e+00  0.00000000e+00  0.00000000e+00
  0.00000000e+00  0.00000000e+00  0.00000000e+00  0.00000000e+00
  0.00000000e+00  0.00000000e+00 -1.19524067e-07  1.23900145e-07
  0.00000000e+00  0.00000000e+00  0.00000000e+00  2.92191519e-06]","[[-5.68419768e-05 -3.74502439e-05]
 [ 2.04699921e-05 -5.43656523e-04]]",[],0.0,0.0
1787305429.9826896,0.34060653945146674,-0.19875992936958828,-0.41192743694501127,"[ 2.29728075e-06 -4.30529481e-07  0.00000000e+00  0.00000000e+00
  0.00000000e+00 -1.19524067e-07 -4.30529481e-07  1.04574387e-06
  0.00000000e+00  0.00000000e+00  0.00000000e+00  1.23900145e-07
  0.00000000e+00  0.00000000e+00  0.00000000e+00  0.00000000e+00
  0.00000000e+00  0.00000000e+00  0.00000000e+00  0.00000000e+00
  0.00000000e+00  0.00000000e+00  0.00000000e+00  0.00000000e+00
  0.00000000e+00  0.00000000e+00  0.00000000e+00  0.00000000e+00
  0.00000000e+00  0.00000000e+00 -1.19524067e-07  1.23900145e-07
  0.00000000e+00  0.00000000e+00  0.00000000e+00  2.92191519e-06]","[[-5.68419768e-05 -3.74502439e-05]
 [ 2.04699921e-05 -5.43656523e-04]]",[],0.0,0.0
1787305430.032585,0.34060653945146674,-0.19875992936958828,-0.41192743694501127,"[ 2.29728075e-06 -4.30529481e-07  0.00000000e+00  0.00000000e+00
  0.00000000e+00 -1.19524067e-07 -4.30529481e-07  1.04574387e-06
  0.00000000e+00  0.00000000e+00  0.00000000e+00  1.23900145e-07
  0.00000000e+00  0.00000000e+00  0.00000000e+00  0.00000000e+00
  0.00000000e+00  0.00000000e+00  0.00000000e+00  0.00000000e+00
  0.00000000e+00  0.00000000e+00  0.00000000e+00  0.00000000e+00
  0.00000000e+00  0.00000000e+00  0.00000000e+00  0.00000000e+00
  0.00000000e+00  0.00000000e+00 -1.19524067e-07  1.23900145e-07
  0.00000000e+00  0.00000000e+00  0.00000000e+00  2.92191519e-06]","[[-5.68419768e-05 -3.74502439e-05]
 [ 2.04699921e-05 -5.43656523e-04]]",[],0.0,0.0
1787305430.0835004,0.34060653945146674,-0.19875992936958828,-0.41192743694501127,"[ 2.29728075e-06 -4.30529481e-07  0.00000000e+00  0.00000000e+00
  0.00000000e+00 -1.19524067e-07 -4.30529481e-07  1.04574387e-06
  0.00000000e+00  0.00000000e+00  0.00000000e+00  1.23900145e-07
  0.00000000e+00  0.00000000e+00  0.00000000e+00  0.00000000e+00
  0.00000000e+00  0.00000000e+00  0.00000000e+00  0.00000000e+00
  0.00000000e+00  0.00000000e+00  0.00000000e+00  0.00000000e+00
  0.00000000e+00  0.00000000e+00  0.00000000e+00  0.00000000e+00
  0.00000000e+00  0.00000000e+00 -1.19524067e-07  1.23900145e-07
  0.00000000e+00  0.00000000e+00  0.00000000e+00  2.92191519e-06]","[[-5.68419768e-05 -3.74502439e-05]
 [ 2.04699921e-05 -5.43656523e-04]]",[],0.0,0.0
1787305430.137846,0.34060653945146674,-0.19875992936958828,-0.41192743694501127,"[ 2.29728075e-06 -4.30529481e-07  0.00000000e+00  0.00000000e+00
  0.00000000e+00 -1.19524067e-07 -4.30529481e-07  1.04574387e-06
  0.00000000e+00  0.00000000e+00  0.00000000e+00  1.23900145e-07
  0.00000000e+00  0.00000000e+00  0.00000000e+00  0.00000000e+00
  0.00000000e+00  0.00000000e+00  0.00000000e+00  0.00000000e+00
  0.00000000e+00  0.00000000e+00  0.00000000e+00  0.00000000e+00
  0.00000000e+00  0.00000000e+00  0.00000000e+00  0.00000000e+00
  0.00000000e+00  0.00000000e+00 -1.19524067e-07  1.23900145e-07
  0.00000000e+00  0.00000000e+00  0.00000000e+00  2.92191519e-06]","[[-5.68419768e-05 -3.74502439e-05]
 [ 2.04699921e-05 -5.43656523e-04]]",[],0.0,0.0
1787305430.1822655,0.34060653945146674,-0.19875992936958828,-0.41192743694501127,"[ 2.29728075e-06 -4.30529481e-07  0.00000000e+00  0.00000000e+00
  0.00000000e+00 -1.19524067e-07 -4.30529481e-07  1.04574387e-06
  0.00000000e+00  0.00000000e+00  0.00000000e+00  1.23900145e-07
  0.00000000e+00  0.00000000e+00  0.00000000e+00  0.00000000e+00
