time,x,y,yaw,cov_prop,K_gain,innovation,v_ekf,omega_ekf
1787561048.297812,1.619693078126553,1.2352412686355523,2.1204299462156575,"[ 6.59407497e-05 -1.23077256e-06  0.00000000e+00  0.00000000e+00
  0.00000000e+00 -7.33349493e-06 -1.23077256e-06  5.28809079e-05
  0.00000000e+00  0.00000000e+00  0.00000000e+00 -1.01812388e-06
  0.00000000e+00  0.00000000e+00  0.00000000e+00  0.00000000e+00
  0.00000000e+00  0.00000000e+00  0.00000000e+00  0.00000000e+00
  0.00000000e+00  0.00000000e+00  0.00000000e+00  0.00000000e+00
  0.00000000e+00  0.00000000e+00  0.00000000e+00  0.00000000e+00
  0.00000000e+00  0.00000000e+00 -7.33349493e-06 -1.01812388e-06
  0.00000000e+00  0.00000000e+00  0.00000000e+00  5.15753096e-06]","[[-0.00105039  0.03256381]
 [-0.0009831  -0.01253617]]",[],0.0,0.0
1787561048.36045,1.619693078126553,1.2352412686355523,2.1204299462156575,"[ 6.59407497e-05 -1.23077256e-06  0.00000000e+00  0.00000000e+00
  0.00000000e+00 -7.33349493e-06 -1.23077256e-06  5.28809079e-05
  0.00000000e+00  0.00000000e+00  0.00000000e+00 -1.01812388e-06
  0.00000000e+00  0.00000000e+00  0.00000000e+00  0.00000000e+00
  0.00000000e+00  0.00000000e+00  0.00000000e+00  0.00000000e+00
  0.00000000e+00  0.00000000e+00  0.00000000e+00  0.00000000e+00
  0.00000000e+00  0.00000000e+00  0.00000000e+00  0.00000000e+00
  0.00000000e+00  0.00000000e+00 -7.33349493e-06 -1.01812388e-06
  0.00000000e+00  0.00000000e+00  0.00000000e+00  5.15753096e-06]","[[-0.00105039  0.03256381]
 [-0.0009831  -0.01253617]]",[],0.0,0.0
1787561048.392785,1.619693078126553,1.2352412686355523,2.1204299462156575,"[ 6.59407497e-05 -1.23077256e-06  0.00000000e+00  0.00000000e+00
  0.00000000e+00 -7.33349493e-06 -1.23077256e-06  5.28809079e-05
  0.00000000e+00  0.00000000e+00  0.00000000e+00 -1.01812388e-06
  0.00000000e+00  0.00000000e+00  0.00000000e+00  0.00000000e+00
  0.00000000e+00  0.00000000e+00  0.00000000e+00  0.00000000e+00
  0.00000000e+00  0.00000000e+00  0.00000000e+00  0.00000000e+00
  0.00000000e+00  0.00000000e+00  0.00000000e+00  0.00000000e+00
  0.00000000e+00  0.00000000e+00 -7.33349493e-06 -1.01812388e-06
  0.00000000e+00  0.00000000e+00  0.00000000e+00  5.15753096e-06]","[[-0.00105039  0.03256381]
 [-0.0009831  -0.01253617]]",[],0.0,0.0
1787561048.442675,1.619693078126553,1.2352412686355523,2.1204299462156575,"[ 6.59407497e-05 -1.23077256e-06  0.00000000e+00  0.00000000e+00
  0.00000000e+00 -7.33349493e-06 -1.23077256e-06  5.28809079e-05
  0.00000000e+00  0.00000000e+00  0.00000000e+00 -1.01812388e-06
  0.00000000e+00  0.00000000e+00  0.00000000e+00  0.00000000e+00
  0.00000000e+00  0.00000000e+00  0.00000000e+00  0.00000000e+00
  0.00000000e+00  0.00000000e+00  0.00000000e+00  0.00000000e+00
  0.00000000e+00  0.00000000e+00  0.00000000e+00  0.00000000e+00
  0.00000000e+00  0.00000000e+00 -7.33349493e-06 -1.01812388e-06
  0.00000000e+00  0.00000000e+00  0.00000000e+00  5.15753096e-06]","[[-0.00105039  0.03256381]
 [-0.0009831  -0.01253617]]",[],0.0,0.0
1787561048.492432,1.619693078126553,1.2352412686355523,2.1204299462156575,"[ 6.59407497e-05 -1.23077256e-06  0.00000000e+00  0.00000000e+00
  0.00000000e+00 -7.33349493e-06 -1.23077256e-06  5.28809079e-05
  0.00000000e+00  0.00000000e+00  0.00000000e+00 -1.01812388e-06
  0.00000000e+00  0.00000000e+00  0.00000000e+00  0.00000000e+00
  0.00000000e+00  0.00000000e+00  0.00000000e+00  0.00000000e+00
  0.00000000e+00  0.00000000e+00  0.00000000e+00  0.00000000e+00
  0.00000000e+00  0.00000000e+00  0.00000000e+00  0.00000000e+00
  0.00000000e+00  0.00000000e+00 -7.33349493e-06 -1.01812388e-06
  0.00000000e+00  0.00000000e+00  0.00000000e+00  5.15753096e-06]","[[-0.00105039  0.03256381]
 [-0.0009831  -0.01253617]]",[],0.0,0.0
1787561048.5426981,1.619693078126553,1.2352412686355523,2.1204299462156575,"[ 6.59407497e-05 -1.23077256e-06  0.00000000e+00  0.00000000e+00
  0.00000000e+00 -7.33349493e-06 -1.23077256e-06  5.28809079e-05
  0.00000000e+00  0.00000000e+00  0.00000000e+00 -1.01812388e-06
  0.00000000e+00  0.00000000e+00  0.00000000e+00  0.00000000e+00
  0.00000000e+00  0.00000000e+00  0.00000000e+00  0.00000000e+00
  0.00000000e+00  0.00000000e+00  0.00000000e+00  0.00000000e+00
  0.00000000e+00  0.00000000e+00  0.00000000e+00  0.00000000e+00
  0.00000000e+00  0.00000000e+00 -7.33349493e-06 -1.01812388e-06
  0.00000000e+00  0.00000000e+00  0.00000000e+00  5.15753096e-06]","[[-0.00105039  0.03256381]
 [-0.0009831  -0.01253617]]",[],0.0,0.0
1787561048.5923166,1.619693078126553,1.2352412686355523,2.1204299462156575,"[ 6.59407497e-05 -1.23077256e-06  0.00000000e+00  0.00000000e+00
  0.00000000e+00 -7.33349493e-06 -1.23077256e-06  5.28809079e-05
  0.00000000e+00  0.00000000e+00  0.00000000e+00 -1.01812388e-06
  0.00000000e+00  0.00000000e+00  0.00000000e+00  0.00000000e+00
  0.00000000e+00  0.00000000e+00  0.00000000e+00  0.00000000e+00
  0.00000000e+00  0.00000000e+00  0.00000000e+00  0.00000000e+00
  0.00000000e+00  0.00000000e+00  0.00000000e+00  0.00000000e+00
  0.00000000e+00  0.00000000e+00 -7.33349493e-06 -1.01812388e-06
  0.00000000e+00  0.00000000e+00  0.00000000e+00  5.15753096e-06]","[[-0.00105039  0.03256381]
 [-0.0009831  -0.01253617]]",[],0.0,0.0
1787561048.6418383,1.619693078126553,1.2352412686355523,2.1204299462156575,"[ 6.59407497e-05 -1.23077256e-06  0.00000000e+00  0.00000000e+00
  0.00000000e+00 -7.33349493e-06 -1.23077256e-06  5.28809079e-05
  0.00000000e+00  0.00000000e+00  0.00000000e+00 -1.01812388e-06
  0.00000000e+00  0.00000000e+00  0.00000000e+00  0.00000000e+00
  0.00000000e+00  0.00000000e+00  0.00000000e+00  0.00000000e+00
  0.00000000e+00  0.00000000e+00  0.00000000e+00  0.00000000e+00
  0.00000000e+00  0.00000000e+00  0.00000000e+00  0.00000000e+00
  0.00000000e+00  0.00000000e+00 -7.33349493e-06 -1.01812388e-06
  0.00000000e+00  0.00000000e+00  0.00000000e+00  5.15753096e-06]","[[-0.00105039  0.03256381]
 [-0.0009831  -0.01253617]]",[],0.0,0.0
1787561048.6973886,1.619693078126553,1.2352412686355523,2.1204299462156575,"[ 6.59407497e-05 -1.23077256e-06  0.00000000e+00  0.00000000e+00
  0.00000000e+00 -7.33349493e-06 -1.23077256e-06  5.28809079e-05
  0.00000000e+00  0.00000000e+00  0.00000000e+00 -1.01812388e-06
  0.00000000e+00  0.00000000e+00  0.00000000e+00  0.00000000e+00
  0.00000000e+00  0.00000000e+00  0.00000000e+00  0.00000000e+00
  0.00000000e+00  0.00000000e+00  0.00000000e+00  0.00000000e+00
  0.00000000e+00  0.00000000e+00  0.00000000e+00  0.00000000e+00
  0.00000000e+00  0.00000000e+00 -7.33349493e-06 -1.01812388e-06
  0.00000000e+00  0.00000000e+00  0.00000000e+00  5.15753096e-06]","[[-0.00105039  0.03256381]
 [-0.0009831  -0.01253617]]",[],0.0,0.0
1787561048.7421448,1.619693078126553,1.2352412686355523,2.1204299462156575,"[ 6.59407497e-05 -1.23077256e-06  0.00000000e+00  0.00000000e+00
  0.00000000e+00 -7.33349493e-06 -1.23077256e-06  5.28809079e-05
  0.00000000e+00  0.00000000e+00  0.00000000e+00 -1.01812388e-06
  0.00000000e+00  0.00000000e+00  0.00000000e+00  0.00000000e+00
  0.00000000e+00  0.00000000e+00  0.00000000e+00  0.00000000e+00
  0.00000000e+00  0.00000000e+00  0.00000000e+00  0.00000000e+00
  0.00000000e+00  0.00000000e+00  0.00000000e+00  0.00000000e+00
  0.00000000e+00  0.00000000e+00 -7.33349493e-06 -1.01812388e-06
  0.00000000e+00  0.00000000e+00  0.00000000e+00  5.15753096e-06]","[[-0.00105039  0.03256381]
 [-0.0009831  -0.01253617]]",[],0.0,0.0
1787561048.7992978,1.619693078126553,1.2352412686355523,2.1204299462156575,"[ 6.59407497e-05 -1.23077256e-06  0.00000000e+00  0.00000000e+00
  0.00000000e+00 -7.33349493e-06 -1.23077256e-06  5.28809079e-05
  0.00000000e+00  0.00000000e+00  0.00000000e+00 -1.01812388e-06
  0.00000000e+00  0.00000000e+00  0.00000000e+00  0.00000000e+00
  0.00000000e+00  0.00000000e+00  0.00000000e+00  0.00000000e+00
  0.00000000e+00  0.00000000e+00  0.00000000e+00  0.00000000e+00
  0.00000000e+00  0.00000000e+00  0.00000000e+00  0.00000000e+00
  0.00000000e+00  0.00000000e+00 -7.33349493e-06 -1.01812388e-06
  0.00000000e+00  0.00000000e+00  0.00000000e+00  5.15753096e-06]","[[-0.00105039  0.03256381]
 [-0.0009831  -0.01253617]]",[],0.0,0.0
1787561048.8450952,1.619693078126553,1.2352412686355523,2.1204299462156575,"[ 6.59407497e-05 -1.23077256e-06  0.00000000e+00  0.00000000e+00
  0.00000000e+00 -7.33349493e-06 -1.23077256e-06  5.28809079e-05
  0.00000000e+00  0.00000000e+00  0.00000000e+00 -1.01812388e-06
  0.00000000e+00  0.00000000e+00  0.00000000e+00  0.00000000e+00
  0.00000000e+00  0.00000000e+00  0.00000000e+00  0.00000000e+00
  0.00000000e+00  0.00000000e+00  0.00000000e+00  0.00000000e+00
  0.00000000e+00  0.00000000e+00  0.00000000e+00  0.00000000e+00
  0.00000000e+00  0.00000000e+00 -7.33349493e-06 -1.01812388e-06
  0.00000000e+00  0.00000000e+00  0.00000000e+00  5.15753096e-06]","[[-0.00105039  0.03256381]
 [-0.0009831  -0.01253617]]",[],0.0,0.0
1787561048.8961537,1.619693078126553,1.2352412686355523,2.1204299462156575,"[ 6.59407497e-05 -1.23077256e-06  0.00000000e+00  0.00000000e+00
  0.00000000e+00 -7.33349493e-06 -1.23077256e-06  5.28809079e-05
  0.00000000e+00  0.00000000e+00  0.00000000e+00 -1.01812388e-06
  0.00000000e+00  0.00000000e+00  0.00000000e+00  0.00000000e+00
  0.00000000e+00  0.00000000e+00  0.00000000e+00  0.00000000e+00
  0.00000000e+00  0.00000000e+00  0.00000000e+00  0.00000000e+00
  0.00000000e+00  0.00000000e+00  0.00000000e+00  0.00000000e+00
  0.00000000e+00  0.00000000e+00 -7.33349493e-06 -1.01812388e-06
  0.00000000e+00  0.00000000e+00  0.00000000e+00  5.15753096e-06]","[[-0.00105039  0.03256381]
 [-0.0009831  -0.01253617]]",[],0.0,0.0
1787561048.946301,1.619693078126553,1.2352412686355523,2.1204299462156575,"[ 6.59407497e-05 -1.23077256e-06  0.00000000e+00  0.00000000e+00
  0.00000000e+00 -7.33349493e-06 -1.23077256e-06  5.28809079e-05
  0.00000000e+00  0.00000000e+00  0.00000000e+00 -1.01812388e-06
  0.00000000e+00  0.00000000e+00  0.00000000e+00  0.00000000e+00
  0.00000000e+00  0.00000000e+00  0.00000000e+00  0.00000000e+00
  0.00000000e+00  0.00000000e+00  0.00000000e+00  0.00000000e+00
  0.00000000e+00  0.00000000e+00  0.00000000e+00  0.00000000e+00
  0.00000000e+00  0.00000000e+00 -7.33349493e-06 -1.01812388e-06
  0.00000000e+00  0.00000000e+00  0.00000000e+00  5.15753096e-06]","[[-0.00105039  0.03256381]
 [-0.0009831  -0.01253617]]",[],0.0,0.0
1787561048.9983687,1.619693078126553,1.2352412686355523,2.1204299462156575,"[ 6.59407497e-05 -1.23077256e-06  0.00000000e+00  0.00000000e+00
  0.00000000e+00 -7.33349493e-06 -1.23077256e-06  5.28809079e-05
  0.00000000e+00  0.00000000e+00  0.00000000e+00 -1.01812388e-06
  0.00000000e+00  0.00000000e+00  0.00000000e+00  0.00000000e+00
  0.00000000e+00  0.00000000e+00  0.00000000e+00  0.00000000e+00
  0.00000000e+00  0.00000000e+00  0.00000000e+00  0.00000000e+00
  0.00000000e+00  0.00000000e+00  0.00000000e+00  0.00000000e+00
  0.00000000e+00  0.00000000e+00 -7.33349493e-06 -1.01812388e-06
  0.00000000e+00  0.00000000e+00  0.00000000e+00  5.15753096e-06]","[[-0.00105039  0.03256381]
 [-0.0009831  -0.01253617]]",[],0.0,0.0
1787561049.0431604,1.619693078126553,1.2352412686355523,2.1204299462156575,"[ 6.59407497e-05 -1.23077256e-06  0.00000000e+00  0.00000000e+00
  0.00000000e+00 -7.33349493e-06 -1.23077256e-06  5.28809079e-05
  0.00000000e+00  0.00000000e+00  0.00000000e+00 -1.01812388e-06
  0.00000000e+00  0.00000000e+00  0.00000000e+00  0.00000000e+00
  0.00000000e+00  0.00000000e+00  0.00000000e+00  0.00000000e+00
  0.00000000e+00  0.00000000e+00  0.00000000e+00  0.00000000e+00
  0.00000000e+00  0.00000000e+00  0.00000000e+00  0.00000000e+00
  0.00000000e+00  0.00000000e+00 -7.33349493e-06 -1.01812388e-06
  0.00000000e+00  0.00000000e+00  0.00000000e+00  5.15753096e-06]","[[-0.00105039  0.03256381]
 [-0.0009831  -0.01253617]]",[],0.0,0.0
1787561049.0935273,1.619693078126553,1.2352412686355523,2.1204299462156575,"[ 6.59407497e-05 -1.23077256e-06  0.00000000e+00  0.00000000e+00
  0.00000000e+00 -7.33349493e-06 -1.23077256e-06  5.28809079e-05
  0.00000000e+00  0.00000000e+00  0.00000000e+00 -1.01812388e-06
  0.00000000e+00  0.00000000e+00  0.00000000e+00  0.00000000e+00
  0.00000000e+00  0.00000000e+00  0.00000000e+00  0.00000000e+00
  0.00000000e+00  0.00000000e+00  0.00000000e+00  0.00000000e+00
  0.00000000e+00  0.00000000e+00  0.00000000e+00  0.00000000e+00
  0.00000000e+00  0.00000000e+00 -7.33349493e-06 -1.01812388e-06
  0.00000000e+00  0.00000000e+00  0.00000000e+00  5.15753096e-06]","[[-0.00105039  0.03256381]
 [-0.0009831  -0.01253617]]",[],0.0,0.0
1787561049.1504197,1.619693078126553,1.2352412686355523,2.1204299462156575,"[ 6.59407497e-05 -1.23077256e-06  0.00000000e+00  0.00000000e+00
  0.00000000e+00 -7.33349493e-06 -1.23077256e-06  5.28809079e-05
  0.00000000e+00  0.00000000e+00  0.00000000e+00 -1.01812388e-06
  0.00000000e+00  0.00000000e+00  0.00000000e+00  0.00000000e+00
  0.00000000e+00  0.00000000e+00  0.00000000e+00  0.00000000e+00
  0.00000000e+00  0.00000000e+00  0.00000000e+00  0.00000000e+00
  0.00000000e+00  0.00000000e+00  0.00000000e+00  0.00000000e+00
  0.00000000e+00  0.00000000e+00 -7.33349493e-06 -1.01812388e-06
  0.00000000e+00  0.00000000e+00  0.00000000e+00  5.15753096e-06]","[[-0.00105039  0.03256381]
 [-0.0009831  -0.01253617]]",[],0.0,0.0
1787561049.2031682,1.619693078126553,1.2352412686355523,2.1204299462156575,"[ 6.59407497e-05 -1.23077256e-06  0.00000000e+00  0.00000000e+00
  0.00000000e+00 -7.33349493e-06 -1.23077256e-06  5.28809079e-05
  0.00000000e+00  0.00000000e+00  0.00000000e+00 -1.01812388e-06
  0.00000000e+00  0.00000000e+00  0.00000000e+00  0.00000000e+00
  0.00000000e+00  0.00000000e+00  0.00000000e+00  0.00000000e+00
  0.00000000e+00  0.00000000e+00  0.00000000e+00  0.00000000e+00
  0.00000000e+00  0.00000000e+00  0.00000000e+00  0.00000000e+00
  0.00000000e+00  0.00000000e+00 -7.33349493e-06 -1.01812388e-06
  0.00000000e+00  0.00000000e+00  0.00000000e+00  5.15753096e-06]","[[-0.00105039  0.03256381]
 [-0.0009831  -0.01253617]]",[],0.0,0.0
1787561049.2506196,1.619693078126553,1.2352412686355523,2.1204299462156575,"[ 6.59407497e-05 -1.23077256e-06  0.00000000e+00  0.00000000e+00
  0.00000000e+00 -7.33349493e-06 -1.23077256e-06  5.28809079e-05
  0.00000000e+00  0.00000000e+00  0.00000000e+00 -1.01812388e-06
  0.00000000e+00  0.00000000e+00  0.00000000e+00  0.00000000e+00
  0.00000000e+00  0.00000000e+00  0.00000000e+00  0.00000000e+00
  0.00000000e+00  0.00000000e+00  0.00000000e+00  0.00000000e+00
  0.00000000e+00  0.00000000e+00  0.00000000e+00  0.00000000e+00
  0.00000000e+00  0.00000000e+00 -7.33349493e-06 -1.01812388e-06
  0.00000000e+00  0.00000000e+00  0.00000000e+00  5.15753096e-06]","[[-0.00105039  0.03256381]
 [-0.0009831  -0.01253617]]",[],0.0,0.0
1787561049.299254,1.6390742396923912,1.2044169055352663,2.1748017472056773,"[ 3.30684195e-05  1.24932515e-08  0.00000000e+00  0.00000000e+00
  0.00000000e+00 -3.71615416e-06  1.24932515e-08  2.47943490e-05
  0.00000000e+00  0.00000000e+00  0.00000000e+00 -1.43456212e-06
  0.00000000e+00  0.00000000e+00  0.00000000e+00  0.00000000e+00
  0.00000000e+00  0.00000000e+00  0.00000000e+00  0.00000000e+00
  0.00000000e+00  0.00000000e+00  0.00000000e+00  0.00000000e+00
  0.00000000e+00  0.00000000e+00  0.00000000e+00  0.00000000e+00
  0.00000000e+00  0.00000000e+00 -3.71615416e-06 -1.43456212e-06
  0.00000000e+00  0.00000000e+00  0.00000000e+00  4.44171671e-06]","[[-0.0005549   0.02470729]
 [-0.00045985 -0.01021654]]",[],0.0,0.0
1787561049.3420823,1.6390742396923912,1.2044169055352663,2.1748017472056773,"[ 3.30684195e-05  1.24932515e-08  0.00000000e+00  0.00000000e+00
  0.00000000e+00 -3.71615416e-06  1.24932515e-08  2.47943490e-05
  0.00000000e+00  0.00000000e+00  0.00000000e+00 -1.43456212e-06
  0.00000000e+00  0.00000000e+00  0.00000000e+00  0.00000000e+00
  0.00000000e+00  0.00000000e+00  0.00000000e+00  0.00000000e+00
  0.00000000e+00  0.00000000e+00  0.00000000e+00  0.00000000e+00
  0.00000000e+00  0.00000000e+00  0.00000000e+00  0.00000000e+00
  0.00000000e+00  0.00000000e+00 -3.71615416e-06 -1.43456212e-06
  0.00000000e+00  0.00000000e+00  0.00000000e+00  4.44171671e-06]","[[-0.0005549   0.02470729]
 [-0.00045985 -0.01021654]]",[],0.0,0.0
1787561049.3918245,1.6390742396923912,1.2044169055352663,2.1748017472056773,"[ 3.30684195e-05  1.24932515e-08  0.00000000e+00  0.00000000e+00
  0.00000000e+00 -3.71615416e-06  1.24932515e-08  2.47943490e-05
  0.00000000e+00  0.00000000e+00  0.00000000e+00 -1.43456212e-06
  0.00000000e+00  0.00000000e+00  0.00000000e+00  0.00000000e+00
  0.00000000e+00  0.00000000e+00  0.00000000e+00  0.00000000e+00
  0.00000000e+00  0.00000000e+00  0.00000000e+00  0.00000000e+00
  0.00000000e+00  0.00000000e+00  0.00000000e+00  0.00000000e+00
  0.00000000e+00  0.00000000e+00 -3.71615416e-06 -1.43456212e-06
  0.00000000e+00  0.00000000e+00  0.00000000e+00  4.44171671e-06]","[[-0.0005549   0.02470729]
 [-0.00045985 -0.01021654]]",[],0.0,0.0
1787561049.4421175,1.6390742396923912,1.2044169055352663,2.1748017472056773,"[ 3.30684195e-05  1.24932515e-08  0.00000000e+00  0.00000000e+00
  0.00000000e+00 -3.71615416e-06  1.24932515e-08  2.47943490e-05
  0.00000000e+00  0.00000000e+00  0.00000000e+00 -1.43456212e-06
  0.00000000e+00  0.00000000e+00  0.00000000e+00  0.00000000e+00
  0.00000000e+00  0.00000000e+00  0.00000000e+00  0.00000000e+00
  0.00000000e+00  0.00000000e+00  0.00000000e+00  0.00000000e+00
  0.00000000e+00  0.00000000e+00  0.00000000e+00  0.00000000e+00
  0.00000000e+00  0.00000000e+00 -3.71615416e-06 -1.43456212e-06
  0.00000000e+00  0.00000000e+00  0.00000000e+00  4.44171671e-06]","[[-0.0005549   0.02470729]
 [-0.00045985 -0.01021654]]",[],0.0,0.0
1787561049.495745,1.6390742396923912,1.2044169055352663,2.1748017472056773,"[ 3.30684195e-05  1.24932515e-08  0.00000000e+00  0.00000000e+00
  0.00000000e+00 -3.71615416e-06  1.24932515e-08  2.47943490e-05
  0.00000000e+00  0.00000000e+00  0.00000000e+00 -1.43456212e-06
  0.00000000e+00  0.00000000e+00  0.00000000e+00  0.00000000e+00
  0.00000000e+00  0.00000000e+00  0.00000000e+00  0.00000000e+00
  0.00000000e+00  0.00000000e+00  0.00000000e+00  0.00000000e+00
  0.00000000e+00  0.00000000e+00  0.00000000e+00  0.00000000e+00
  0.00000000e+00  0.00000000e+00 -3.71615416e-06 -1.43456212e-06
  0.00000000e+00  0.00000000e+00  0.00000000e+00  4.44171671e-06]","[[-0.0005549   0.02470729]
 [-0.00045985 -0.01021654]]",[],0.0,0.0
1787561049.5433881,1.6390742396923912,1.2044169055352663,2.1748017472056773,"[ 3.30684195e-05  1.24932515e-08  0.00000000e+00  0.00000000e+00
  0.00000000e+00 -3.71615416e-06  1.24932515e-08  2.47943490e-05
  0.00000000e+00  0.00000000e+00  0.00000000e+00 -1.43456212e-06
  0.00000000e+00  0.00000000e+00  0.00000000e+00  0.00000000e+00
  0.00000000e+00  0.00000000e+00  0.00000000e+00  0.00000000e+00
  0.00000000e+00  0.00000000e+00  0.00000000e+00  0.00000000e+00
  0.00000000e+00  0.00000000e+00  0.00000000e+00  0.00000000e+00
  0.00000000e+00  0.00000000e+00 -3.71615416e-06 -1.43456212e-06
  0.00000000e+00  0.00000000e+00  0.00000000e+00  4.44171671e-06]","[[-0.0005549   0.02470729]
 [-0.00045985 -0.01021654]]",[],0.0,0.0
1787561049.5925758,1.6390742396923912,1.2044169055352663,2.1748017472056773,"[ 3.30684195e-05  1.24932515e-08  0.00000000e+00  0.00000000e+00
  0.00000000e+00 -3.71615416e-06  1.24932515e-08  2.47943490e-05
  0.00000000e+00  0.00000000e+00  0.00000000e+00 -1.43456212e-06
  0.00000000e+00  0.00000000e+00  0.00000000e+00  0.00000000e+00
  0.00000000e+00  0.00000000e+00  0.00000000e+00  0.00000000e+00
  0.00000000e+00  0.00000000e+00  0.00000000e+00  0.00000000e+00
  0.00000000e+00  0.00000000e+00  0.00000000e+00  0.00000000e+00
  0.00000000e+00  0.00000000e+00 -3.71615416e-06 -1.43456212e-06
  0.00000000e+00  0.00000000e+00  0.00000000e+00  4.44171671e-06]","[[-0.0005549   0.02470729]
 [-0.00045985 -0.01021654]]",[],0.0,0.0
1787561049.647331,1.6390742396923912,1.2044169055352663,2.1748017472056773,"[ 3.30684195e-05  1.24932515e-08  0.00000000e+00  0.00000000e+00
  0.00000000e+00 -3.71615416e-06  1.24932515e-08  2.47943490e-05
  0.00000000e+00  0.00000000e+00  0.00000000e+00 -1.43456212e-06
  0.00000000e+00  0.00000000e+00  0.00000000e+00  0.00000000e+00
  0.00000000e+00  0.00000000e+00  0.00000000e+00  0.00000000e+00
  0.00000000e+00  0.00000000e+00  0.00000000e+00  0.00000000e+00
  0.00000000e+00  0.00000000e+00  0.00000000e+00  0.00000000e+00
  0.00000000e+00  0.00000000e+00 -3.71615416e-06 -1.43456212e-06
  0.00000000e+00  0.00000000e+00  0.00000000e+00  4.44171671e-06]","[[-0.0005549   0.02470729]
 [-0.00045985 -0.01021654]]",[],0.0,0.0
1787561049.6933715,1.6390742396923912,1.2044169055352663,2.1748017472056773,"[ 3.30684195e-05  1.24932515e-08  0.00000000e+00  0.00000000e+00
  0.00000000e+00 -3.71615416e-06  1.24932515e-08  2.47943490e-05
  0.00000000e+00  0.00000000e+00  0.00000000e+00 -1.43456212e-06
  0.00000000e+00  0.00000000e+00  0.00000000e+00  0.00000000e+00
  0.00000000e+00  0.00000000e+00  0.00000000e+00  0.00000000e+00
  0.00000000e+00  0.00000000e+00  0.00000000e+00  0.00000000e+00
  0.00000000e+00  0.00000000e+00  0.00000000e+00  0.00000000e+00
  0.00000000e+00  0.00000000e+00 -3.71615416e-06 -1.43456212e-06
  0.00000000e+00  0.00000000e+00  0.00000000e+00  4.44171671e-06]","[[-0.0005549   0.02470729]
 [-0.00045985 -0.01021654]]",[],0.0,0.0
1787561049.7422915,1.6390742396923912,1.2044169055352663,2.1748017472056773,"[ 3.30684195e-05  1.24932515e-08  0.00000000e+00  0.00000000e+00
  0.00000000e+00 -3.71615416e-06  1.24932515e-08  2.47943490e-05
  0.00000000e+00  0.00000000e+00  0.00000000e+00 -1.43456212e-06
  0.00000000e+00  0.00000000e+00  0.00000000e+00  0.00000000e+00
  0.00000000e+00  0.00000000e+00  0.00000000e+00  0.00000000e+00
  0.00000000e+00  0.00000000e+00  0.00000000e+00  0.00000000e+00
  0.00000000e+00  0.00000000e+00  0.00000000e+00  0.00000000e+00
  0.00000000e+00  0.00000000e+00 -3.71615416e-06 -1.43456212e-06
  0.00000000e+00  0.00000000e+00  0.00000000e+00  4.44171671e-06]","[[-0.0005549   0.02470729]
 [-0.00045985 -0.01021654]]",[],0.0,0.0
1787561049.7922616,1.6390742396923912,1.2044169055352663,2.1748017472056773,"[ 3.30684195e-05  1.24932515e-08  0.00000000e+00  0.00000000e+00
  0.00000000e+00 -3.71615416e-06  1.24932515e-08  2.47943490e-05
  0.00000000e+00  0.00000000e+00  0.00000000e+00 -1.43456212e-06
  0.00000000e+00  0.00000000e+00  0.00000000e+00  0.00000000e+00
  0.00000000e+00  0.00000000e+00  0.00000000e+00  0.00000000e+00
  0.00000000e+00  0.00000000e+00  0.00000000e+00  0.00000000e+00
  0.00000000e+00  0.00000000e+00  0.00000000e+00  0.00000000e+00
  0.00000000e+00  0.00000000e+00 -3.71615416e-06 -1.43456212e-06
  0.00000000e+00  0.00000000e+00  0.00000000e+00  4.44171671e-06]","[[-0.0005549   0.02470729]
 [-0.00045985 -0.01021654]]",[],0.0,0.0
1787561049.842824,1.6390742396923912,1.2044169055352663,2.1748017472056773,"[ 3.30684195e-05  1.24932515e-08  0.00000000e+00  0.00000000e+00
  0.00000000e+00 -3.71615416e-06  1.24932515e-08  2.47943490e-05
  0.00000000e+00  0.00000000e+00  0.00000000e+00 -1.43456212e-06
  0.00000000e+00  0.00000000e+00  0.00000000e+00  0.00000000e+00
  0.00000000e+00  0.00000000e+00  0.00000000e+00  0.00000000e+00
  0.00000000e+00  0.00000000e+00  0.00000000e+00  0.00000000e+00
  0.00000000e+00  0.00000000e+00  0.00000000e+00  0.00000000e+00
  0.00000000e+00  0.00000000e+00 -3.71615416e-06 -1.43456212e-06
  0.00000000e+00  0.00000000e+00  0.00000000e+00  4.44171671e-06]","[[-0.0005549   0.02470729]
 [-0.00045985 -0.01021654]]",[],0.0,0.0
1787561049.893444,1.6390742396923912,1.2044169055352663,2.1748017472056773,"[ 3.30684195e-05  1.24932515e-08  0.00000000e+00  0.00000000e+00
  0.00000000e+00 -3.71615416e-06  1.24932515e-08  2.47943490e-05
  0.00000000e+00  0.00000000e+00  0.00000000e+00 -1.43456212e-06
  0.00000000e+00  0.00000000e+00  0.00000000e+00  0.00000000e+00
  0.00000000e+00  0.00000000e+00  0.00000000e+00  0.00000000e+00
  0.00000000e+00  0.00000000e+00  0.00000000e+00  0.00000000e+00
  0.00000000e+00  0.00000000e+00  0.00000000e+00  0.00000000e+00
  0.00000000e+00  0.00000000e+00 -3.71615416e-06 -1.43456212e-06
  0.00000000e+00  0.00000000e+00  0.00000000e+00  4.44171671e-06]","[[-0.0005549   0.02470729]
 [-0.00045985 -0.01021654]]",[],0.0,0.0
1787561049.9426932,1.6390742396923912,1.2044169055352663,2.1748017472056773,"[ 3.30684195e-05  1.24932515e-08  0.00000000e+00  0.00000000e+00
  0.00000000e+00 -3.71615416e-06  1.24932515e-08  2.47943490e-05
  0.00000000e+00  0.00000000e+00  0.00000000e+00 -1.43456212e-06
  0.00000000e+00  0.00000000e+00  0.00000000e+00  0.00000000e+00
  0.00000000e+00  0.00000000e+00  0.00000000e+00  0.00000000e+00
  0.00000000e+00  0.00000000e+00  0.00000000e+00  0.00000000e+00
  0.00000000e+00  0.00000000e+00  0.00000000e+00  0.00000000e+00
  0.00000000e+00  0.00000000e+00 -3.71615416e-06 -1.43456212e-06
  0.00000000e+00  0.00000000e+00  0.00000000e+00  4.44171671e-06]","[[-0.0005549   0.02470729]
 [-0.00045985 -0.01021654]]",[],0.0,0.0
1787561049.9943295,1.6390742396923912,1.2044169055352663,2.1748017472056773,"[ 3.30684195e-05  1.24932515e-08  0.00000000e+00  0.00000000e+00
  0.00000000e+00 -3.71615416e-06  1.24932515e-08  2.47943490e-05
  0.00000000e+00  0.00000000e+00  0.00000000e+00 -1.43456212e-06
  0.00000000e+00  0.00000000e+00  0.00000000e+00  0.00000000e+00
  0.00000000e+00  0.00000000e+00  0.00000000e+00  0.00000000e+00
  0.00000000e+00  0.00000000e+00  0.00000000e+00  0.00000000e+00
  0.00000000e+00  0.00000000e+00  0.00000000e+00  0.00000000e+00
  0.00000000e+00  0.00000000e+00 -3.71615416e-06 -1.43456212e-06
  0.00000000e+00  0.00000000e+00  0.00000000e+00  4.44171671e-06]","[[-0.0005549   0.02470729]
 [-0.00045985 -0.01021654]]",[],0.0,0.0
1787561050.0424128,1.6390742396923912,1.2044169055352663,2.1748017472056773,"[ 3.30684195e-05  1.24932515e-08  0.00000000e+00  0.00000000e+00
  0.00000000e+00 -3.71615416e-06  1.24932515e-08  2.47943490e-05
  0.00000000e+00  0.00000000e+00  0.00000000e+00 -1.43456212e-06
  0.00000000e+00  0.00000000e+00  0.00000000e+00  0.00000000e+00
  0.00000000e+00  0.00000000e+00  0.00000000e+00  0.00000000e+00
  0.00000000e+00  0.00000000e+00  0.00000000e+00  0.00000000e+00
  0.00000000e+00  0.00000000e+00  0.00000000e+00  0.00000000e+00
  0.00000000e+00  0.00000000e+00 -3.71615416e-06 -1.43456212e-06
  0.00000000e+00  0.00000000e+00  0.00000000e+00  4.44171671e-06]","[[-0.0005549   0.02470729]
 [-0.00045985 -0.01021654]]",[],0.0,0.0
1787561050.0925345,1.6390742396923912,1.2044169055352663,2.1748017472056773,"[ 3.30684195e-05  1.24932515e-08  0.00000000e+00  0.00000000e+00
  0.00000000e+00 -3.71615416e-06  1.24932515e-08  2.47943490e-05
  0.00000000e+00  0.00000000e+00  0.00000000e+00 -1.43456212e-06
  0.00000000e+00  0.00000000e+00  0.00000000e+00  0.00000000e+00
  0.00000000e+00  0.00000000e+00  0.00000000e+00  0.00000000e+00
  0.00000000e+00  0.00000000e+00  0.00000000e+00  0.00000000e+00
  0.00000000e+00  0.00000000e+00  0.00000000e+00  0.00000000e+00
  0.00000000e+00  0.00000000e+00 -3.71615416e-06 -1.43456212e-06
  0.00000000e+00  0.00000000e+00  0.00000000e+00  4.44171671e-06]","[[-0.0005549   0.02470729]
 [-0.00045985 -0.01021654]]",[],0.0,0.0
1787561050.1425982,1.6390742396923912,1.2044169055352663,2.1748017472056773,"[ 3.30684195e-05  1.24932515e-08  0.00000000e+00  0.00000000e+00
  0.00000000e+00 -3.71615416e-06  1.24932515e-08  2.47943490e-05
  0.00000000e+00  0.00000000e+00  0.00000000e+00 -1.43456212e-06
  0.00000000e+00  0.00000000e+00  0.00000000e+00  0.00000000e+00
  0.00000000e+00  0.00000000e+00  0.00000000e+00  0.00000000e+00
  0.00000000e+00  0.00000000e+00  0.00000000e+00  0.00000000e+00
  0.00000000e+00  0.00000000e+00  0.00000000e+00  0.00000000e+00
  0.00000000e+00  0.00000000e+00 -3.71615416e-06 -1.43456212e-06
  0.00000000e+00  0.00000000e+00  0.00000000e+00  4.44171671e-06]","[[-0.0005549   0.02470729]
 [-0.00045985 -0.01021654]]",[],0.0,0.0
1787561050.1919258,1.6390742396923912,1.2044169055352663,2.1748017472056773,"[ 3.30684195e-05  1.24932515e-08  0.00000000e+00  0.00000000e+00
  0.00000000e+00 -3.71615416e-06  1.24932515e-08  2.47943490e-05
  0.00000000e+00  0.00000000e+00  0.00000000e+00 -1.43456212e-06
  0.00000000e+00  0.00000000e+00  0.00000000e+00  0.00000000e+00
  0.00000000e+00  0.00000000e+00  0.00000000e+00  0.00000000e+00
  0.00000000e+00  0.00000000e+00  0.00000000e+00  0.00000000e+00
  0.00000000e+00  0.00000000e+00  0.00000000e+00  0.00000000e+00
  0.00000000e+00  0.00000000e+00 -3.71615416e-06 -1.43456212e-06
  0.00000000e+00  0.00000000e+00  0.00000000e+00  4.44171671e-06]","[[-0.0005549   0.02470729]
 [-0.00045985 -0.01021654]]",[],0.0,0.0
1787561050.2425969,1.6390742396923912,1.2044169055352663,2.1748017472056773,"[ 3.30684195e-05  1.24932515e-08  0.00000000e+00  0.00000000e+00
  0.00000000e+00 -3.71615416e-06  1.24932515e-08  2.47943490e-05
  0.00000000e+00  0.00000000e+00  0.00000000e+00 -1.43456212e-06
  0.00000000e+00  0.00000000e+00  0.00000000e+00  0.00000000e+00
  0.00000000e+00  0.00000000e+00  0.00000000e+00  0.00000000e+00
  0.00000000e+00  0.00000000e+00  0.00000000e+00  0.00000000e+00
  0.00000000e+00  0.00000000e+00  0.00000000e+00  0.00000000e+00
  0.00000000e+00  0.00000000e+00 -3.71615416e-06 -1.43456212e-06
  0.00000000e+00  0.00000000e+00  0.00000000e+00  4.44171671e-06]","[[-0.0005549   0.02470729]
 [-0.00045985 -0.01021654]]",[],0.0,0.0
1787561050.2924592,1.6390742396923912,1.2044169055352663,2.1748017472056773,"[ 3.30684195e-05  1.24932515e-08  0.00000000e+00  0.00000000e+00
  0.00000000e+00 -3.71615416e-06  1.24932515e-08  2.47943490e-05
  0.00000000e+00  0.00000000e+00  0.00000000e+00 -1.43456212e-06
  0.00000000e+00  0.00000000e+00  0.00000000e+00  0.00000000e+00
  0.00000000e+00  0.00000000e+00  0.00000000e+00  0.00000000e+00
  0.00000000e+00  0.00000000e+00  0.00000000e+00  0.00000000e+00
  0.00000000e+00  0.00000000e+00  0.00000000e+00  0.00000000e+00
  0.00000000e+00  0.00000000e+00 -3.71615416e-06 -1.43456212e-06
  0.00000000e+00  0.00000000e+00  0.00000000e+00  4.44171671e-06]","[[-0.0005549   0.02470729]
 [-0.00045985 -0.01021654]]",[],0.0,0.0
1787561050.3446279,1.6533379001390454,1.181706285646634,2.257140940730247,"[ 2.09650465e-05 -6.32102618e-08  0.00000000e+00  0.00000000e+00
  0.00000000e+00 -2.34063525e-06 -6.32102618e-08  1.61125814e-05
  0.00000000e+00  0.00000000e+00  0.00000000e+00 -9.04358930e-07
  0.00000000e+00  0.00000000e+00  0.00000000e+00  0.00000000e+00
  0.00000000e+00  0.00000000e+00  0.00000000e+00  0.00000000e+00
  0.00000000e+00  0.00000000e+00  0.00000000e+00  0.00000000e+00
  0.00000000e+00  0.00000000e+00  0.00000000e+00  0.00000000e+00
  0.00000000e+00  0.00000000e+00 -2.34063525e-06 -9.04358930e-07
  0.00000000e+00  0.00000000e+00  0.00000000e+00  4.05722196e-06]","[[-0.00032808  0.01663938]
 [-0.00031238 -0.00644841]]",[],0.0,0.0
1787561050.3925464,1.6533379001390454,1.181706285646634,2.257140940730247,"[ 2.09650465e-05 -6.32102618e-08  0.00000000e+00  0.00000000e+00
  0.00000000e+00 -2.34063525e-06 -6.32102618e-08  1.61125814e-05
  0.00000000e+00  0.00000000e+00  0.00000000e+00 -9.04358930e-07
  0.00000000e+00  0.00000000e+00  0.00000000e+00  0.00000000e+00
  0.00000000e+00  0.00000000e+00  0.00000000e+00  0.00000000e+00
  0.00000000e+00  0.00000000e+00  0.00000000e+00  0.00000000e+00
  0.00000000e+00  0.00000000e+00  0.00000000e+00  0.00000000e+00
  0.00000000e+00  0.00000000e+00 -2.34063525e-06 -9.04358930e-07
  0.00000000e+00  0.00000000e+00  0.00000000e+00  4.05722196e-06]","[[-0.00032808  0.01663938]
 [-0.00031238 -0.00644841]]",[],0.0,0.0
1787561050.4423833,1.6533379001390454,1.181706285646634,2.257140940730247,"[ 2.09650465e-05 -6.32102618e-08  0.00000000e+00  0.00000000e+00
  0.00000000e+00 -2.34063525e-06 -6.32102618e-08  1.61125814e-05
  0.00000000e+00  0.00000000e+00  0.00000000e+00 -9.04358930e-07
  0.00000000e+00  0.00000000e+00  0.00000000e+00  0.00000000e+00
  0.00000000e+00  0.00000000e+00  0.00000000e+00  0.00000000e+00
  0.00000000e+00  0.00000000e+00  0.00000000e+00  0.00000000e+00
  0.00000000e+00  0.00000000e+00  0.00000000e+00  0.00000000e+00
  0.00000000e+00  0.00000000e+00 -2.34063525e-06 -9.04358930e-07
  0.00000000e+00  0.00000000e+00  0.00000000e+00  4.05722196e-06]","[[-0.00032808  0.01663938]
 [-0.00031238 -0.00644841]]",[],0.0,0.0
1787561050.492497,1.6533379001390454,1.181706285646634,2.257140940730247,"[ 2.09650465e-05 -6.32102618e-08  0.00000000e+00  0.00000000e+00
  0.00000000e+00 -2.34063525e-06 -6.32102618e-08  1.61125814e-05
  0.00000000e+00  0.00000000e+00  0.00000000e+00 -9.04358930e-07
  0.00000000e+00  0.00000000e+00  0.00000000e+00  0.00000000e+00
  0.00000000e+00  0.00000000e+00  0.00000000e+00  0.00000000e+00
  0.00000000e+00  0.00000000e+00  0.00000000e+00  0.00000000e+00
  0.00000000e+00  0.00000000e+00  0.00000000e+00  0.00000000e+00
  0.00000000e+00  0.00000000e+00 -2.34063525e-06 -9.04358930e-07
  0.00000000e+00  0.00000000e+00  0.00000000e+00  4.05722196e-06]","[[-0.00032808  0.01663938]
 [-0.00031238 -0.00644841]]",[],0.0,0.0
1787561050.5420742,1.6533379001390454,1.181706285646634,2.257140940730247,"[ 2.09650465e-05 -6.32102618e-08  0.00000000e+00  0.00000000e+00
  0.00000000e+00 -2.34063525e-06 -6.32102618e-08  1.61125814e-05
  0.00000000e+00  0.00000000e+00  0.00000000e+00 -9.04358930e-07
  0.00000000e+00  0.00000000e+00  0.00000000e+00  0.00000000e+00
  0.00000000e+00  0.00000000e+00  0.00000000e+00  0.00000000e+00
  0.00000000e+00  0.00000000e+00  0.00000000e+00  0.00000000e+00
  0.00000000e+00  0.00000000e+00  0.00000000e+00  0.00000000e+00
  0.00000000e+00  0.00000000e+00 -2.34063525e-06 -9.04358930e-07
  0.00000000e+00  0.00000000e+00  0.00000000e+00  4.05722196e-06]","[[-0.00032808  0.01663938]
 [-0.00031238 -0.00644841]]",[],0.0,0.0
1787561050.5925038,1.6533379001390454,1.181706285646634,2.257140940730247,"[ 2.09650465e-05 -6.32102618e-08  0.00000000e+00  0.00000000e+00
  0.00000000e+00 -2.34063525e-06 -6.32102618e-08  1.61125814e-05
  0.00000000e+00  0.00000000e+00  0.00000000e+00 -9.04358930e-07
  0.00000000e+00  0.00000000e+00  0.00000000e+00  0.00000000e+00
  0.00000000e+00  0.00000000e+00  0.00000000e+00  0.00000000e+00
  0.00000000e+00  0.00000000e+00  0.00000000e+00  0.00000000e+00
  0.00000000e+00  0.00000000e+00  0.00000000e+00  0.00000000e+00
  0.00000000e+00  0.00000000e+00 -2.34063525e-06 -9.04358930e-07
  0.00000000e+00  0.00000000e+00  0.00000000e+00  4.05722196e-06]","[[-0.00032808  0.01663938]
 [-0.00031238 -0.00644841]]",[],0.0,0.0
1787561050.6423745,1.6533379001390454,1.181706285646634,2.257140940730247,"[ 2.09650465e-05 -6.32102618e-08  0.00000000e+00  0.00000000e+00
  0.00000000e+00 -2.34063525e-06 -6.32102618e-08  1.61125814e-05
  0.00000000e+00  0.00000000e+00  0.00000000e+00 -9.04358930e-07
  0.00000000e+00  0.00000000e+00  0.00000000e+00  0.00000000e+00
  0.00000000e+00  0.00000000e+00  0.00000000e+00  0.00000000e+00
  0.00000000e+00  0.00000000e+00  0.00000000e+00  0.00000000e+00
  0.00000000e+00  0.00000000e+00  0.00000000e+00  0.00000000e+00
  0.00000000e+00  0.00000000e+00 -2.34063525e-06 -9.04358930e-07
  0.00000000e+00  0.00000000e+00  0.00000000e+00  4.05722196e-06]","[[-0.00032808  0.01663938]
 [-0.00031238 -0.00644841]]",[],0.0,0.0
1787561050.7073805,1.6533379001390454,1.181706285646634,2.257140940730247,"[ 2.09650465e-05 -6.32102618e-08  0.00000000e+00  0.00000000e+00
  0.00000000e+00 -2.34063525e-06 -6.32102618e-08  1.61125814e-05
  0.00000000e+00  0.00000000e+00  0.00000000e+00 -9.04358930e-07
  0.00000000e+00  0.00000000e+00  0.00000000e+00  0.00000000e+00
  0.00000000e+00  0.00000000e+00  0.00000000e+00  0.00000000e+00
  0.00000000e+00  0.00000000e+00  0.00000000e+00  0.00000000e+00
  0.00000000e+00  0.00000000e+00  0.00000000e+00  0.00000000e+00
  0.00000000e+00  0.00000000e+00 -2.34063525e-06 -9.04358930e-07
  0.00000000e+00  0.00000000e+00  0.00000000e+00  4.05722196e-06]","[[-0.00032808  0.01663938]
 [-0.00031238 -0.00644841]]",[],0.0,0.0
1787561050.7421074,1.6533379001390454,1.181706285646634,2.257140940730247,"[ 2.09650465e-05 -6.32102618e-08  0.00000000e+00  0.00000000e+00
  0.00000000e+00 -2.34063525e-06 -6.32102618e-08  1.61125814e-05
  0.00000000e+00  0.00000000e+00  0.00000000e+00 -9.04358930e-07
  0.00000000e+00  0.00000000e+00  0.00000000e+00  0.00000000e+00
  0.00000000e+00  0.00000000e+00  0.00000000e+00  0.00000000e+00
  0.00000000e+00  0.00000000e+00  0.00000000e+00  0.00000000e+00
  0.00000000e+00  0.00000000e+00  0.00000000e+00  0.00000000e+00
  0.00000000e+00  0.00000000e+00 -2.34063525e-06 -9.04358930e-07
  0.00000000e+00  0.00000000e+00  0.00000000e+00  4.05722196e-06]","[[-0.00032808  0.01663938]
 [-0.00031238 -0.00644841]]",[],0.0,0.0
1787561050.7936018,1.6533379001390454,1.181706285646634,2.257140940730247,"[ 2.09650465e-05 -6.32102618e-08  0.00000000e+00  0.00000000e+00
  0.00000000e+00 -2.34063525e-06 -6.32102618e-08  1.61125814e-05
  0.00000000e+00  0.00000000e+00  0.00000000e+00 -9.04358930e-07
  0.00000000e+00  0.00000000e+00  0.00000000e+00  0.00000000e+00
  0.00000000e+00  0.00000000e+00  0.00000000e+00  0.00000000e+00
  0.00000000e+00  0.00000000e+00  0.00000000e+00  0.00000000e+00
  0.00000000e+00  0.00000000e+00  0.00000000e+00  0.00000000e+00
  0.00000000e+00  0.00000000e+00 -2.34063525e-06 -9.04358930e-07
  0.00000000e+00  0.00000000e+00  0.00000000e+00  4.05722196e-06]","[[-0.00032808  0.01663938]
 [-0.00031238 -0.00644841]]",[],0.0,0.0
1787561050.845419,1.6533379001390454,1.181706285646634,2.257140940730247,"[ 2.09650465e-05 -6.32102618e-08  0.00000000e+00  0.00000000e+00
  0.00000000e+00 -2.34063525e-06 -6.32102618e-08  1.61125814e-05
  0.00000000e+00  0.00000000e+00  0.00000000e+00 -9.04358930e-07
  0.00000000e+00  0.00000000e+00  0.00000000e+00  0.00000000e+00
  0.00000000e+00  0.00000000e+00  0.00000000e+00  0.00000000e+00
  0.00000000e+00  0.00000000e+00  0.00000000e+00  0.00000000e+00
  0.00000000e+00  0.00000000e+00  0.00000000e+00  0.00000000e+00
  0.00000000e+00  0.00000000e+00 -2.34063525e-06 -9.04358930e-07
  0.00000000e+00  0.00000000e+00  0.00000000e+00  4.05722196e-06]","[[-0.00032808  0.01663938]
 [-0.00031238 -0.00644841]]",[],0.0,0.0
1787561050.892478,1.6533379001390454,1.181706285646634,2.257140940730247,"[ 2.09650465e-05 -6.32102618e-08  0.00000000e+00  0.00000000e+00
  0.00000000e+00 -2.34063525e-06 -6.32102618e-08  1.61125814e-05
  0.00000000e+00  0.00000000e+00  0.00000000e+00 -9.04358930e-07
  0.00000000e+00  0.00000000e+00  0.00000000e+00  0.00000000e+00
  0.00000000e+00  0.00000000e+00  0.00000000e+00  0.00000000e+00
  0.00000000e+00  0.00000000e+00  0.00000000e+00  0.00000000e+00
  0.00000000e+00  0.00000000e+00  0.00000000e+00  0.00000000e+00
  0.00000000e+00  0.00000000e+00 -2.34063525e-06 -9.04358930e-07
  0.00000000e+00  0.00000000e+00  0.00000000e+00  4.05722196e-06]","[[-0.00032808  0.01663938]
 [-0.00031238 -0.00644841]]",[],0.0,0.0
1787561050.9430563,1.6533379001390454,1.181706285646634,2.257140940730247,"[ 2.09650465e-05 -6.32102618e-08  0.00000000e+00  0.00000000e+00
  0.00000000e+00 -2.34063525e-06 -6.32102618e-08  1.61125814e-05
  0.00000000e+00  0.00000000e+00  0.00000000e+00 -9.04358930e-07
  0.00000000e+00  0.00000000e+00  0.00000000e+00  0.00000000e+00
  0.00000000e+00  0.00000000e+00  0.00000000e+00  0.00000000e+00
  0.00000000e+00  0.00000000e+00  0.00000000e+00  0.00000000e+00
  0.00000000e+00  0.00000000e+00  0.00000000e+00  0.00000000e+00
  0.00000000e+00  0.00000000e+00 -2.34063525e-06 -9.04358930e-07
  0.00000000e+00  0.00000000e+00  0.00000000e+00  4.05722196e-06]","[[-0.00032808  0.01663938]
 [-0.00031238 -0.00644841]]",[],0.0,0.0
1787561050.9998388,1.6533379001390454,1.181706285646634,2.257140940730247,"[ 2.09650465e-05 -6.32102618e-08  0.00000000e+00  0.00000000e+00
  0.00000000e+00 -2.34063525e-06 -6.32102618e-08  1.61125814e-05
  0.00000000e+00  0.00000000e+00  0.00000000e+00 -9.04358930e-07
  0.00000000e+00  0.00000000e+00  0.00000000e+00  0.00000000e+00
  0.00000000e+00  0.00000000e+00  0.00000000e+00  0.00000000e+00
  0.00000000e+00  0.00000000e+00  0.00000000e+00  0.00000000e+00
  0.00000000e+00  0.00000000e+00  0.00000000e+00  0.00000000e+00
  0.00000000e+00  0.00000000e+00 -2.34063525e-06 -9.04358930e-07
  0.00000000e+00  0.00000000e+00  0.00000000e+00  4.05722196e-06]","[[-0.00032808  0.01663938]
 [-0.00031238 -0.00644841]]",[],0.0,0.0
1787561051.0436294,1.6533379001390454,1.181706285646634,2.257140940730247,"[ 2.09650465e-05 -6.32102618e-08  0.00000000e+00  0.00000000e+00
  0.00000000e+00 -2.34063525e-06 -6.32102618e-08  1.61125814e-05
  0.00000000e+00  0.00000000e+00  0.00000000e+00 -9.04358930e-07
  0.00000000e+00  0.00000000e+00  0.00000000e+00  0.00000000e+00
  0.00000000e+00  0.00000000e+00  0.00000000e+00  0.00000000e+00
  0.00000000e+00  0.00000000e+00  0.00000000e+00  0.00000000e+00
  0.00000000e+00  0.00000000e+00  0.00000000e+00  0.00000000e+00
  0.00000000e+00  0.00000000e+00 -2.34063525e-06 -9.04358930e-07
  0.00000000e+00  0.00000000e+00  0.00000000e+00  4.05722196e-06]","[[-0.00032808  0.01663938]
 [-0.00031238 -0.00644841]]",[],0.0,0.0
1787561051.0925817,1.6533379001390454,1.181706285646634,2.257140940730247,"[ 2.09650465e-05 -6.32102618e-08  0.00000000e+00  0.00000000e+00
  0.00000000e+00 -2.34063525e-06 -6.32102618e-08  1.61125814e-05
  0.00000000e+00  0.00000000e+00  0.00000000e+00 -9.04358930e-07
  0.00000000e+00  0.00000000e+00  0.00000000e+00  0.00000000e+00
  0.00000000e+00  0.00000000e+00  0.00000000e+00  0.00000000e+00
  0.00000000e+00  0.00000000e+00  0.00000000e+00  0.00000000e+00
  0.00000000e+00  0.00000000e+00  0.00000000e+00  0.00000000e+00
  0.00000000e+00  0.00000000e+00 -2.34063525e-06 -9.04358930e-07
  0.00000000e+00  0.00000000e+00  0.00000000e+00  4.05722196e-06]","[[-0.00032808  0.01663938]
 [-0.00031238 -0.00644841]]",[],0.0,0.0
1787561051.142292,1.6533379001390454,1.181706285646634,2.257140940730247,"[ 2.09650465e-05 -6.32102618e-08  0.00000000e+00  0.00000000e+00
  0.00000000e+00 -2.34063525e-06 -6.32102618e-08  1.61125814e-05
  0.00000000e+00  0.00000000e+00  0.00000000e+00 -9.04358930e-07
  0.00000000e+00  0.00000000e+00  0.00000000e+00  0.00000000e+00
  0.00000000e+00  0.00000000e+00  0.00000000e+00  0.00000000e+00
  0.00000000e+00  0.00000000e+00  0.00000000e+00  0.00000000e+00
  0.00000000e+00  0.00000000e+00  0.00000000e+00  0.00000000e+00
  0.00000000e+00  0.00000000e+00 -2.34063525e-06 -9.04358930e-07
  0.00000000e+00  0.00000000e+00  0.00000000e+00  4.05722196e-06]","[[-0.00032808  0.01663938]
 [-0.00031238 -0.00644841]]",[],0.0,0.0
1787561051.1925273,1.6533379001390454,1.181706285646634,2.257140940730247,"[ 2.09650465e-05 -6.32102618e-08  0.00000000e+00  0.00000000e+00
  0.00000000e+00 -2.34063525e-06 -6.32102618e-08  1.61125814e-05
  0.00000000e+00  0.00000000e+00  0.00000000e+00 -9.04358930e-07
  0.00000000e+00  0.00000000e+00  0.00000000e+00  0.00000000e+00
  0.00000000e+00  0.00000000e+00  0.00000000e+00  0.00000000e+00
  0.00000000e+00  0.00000000e+00  0.00000000e+00  0.00000000e+00
  0.00000000e+00  0.00000000e+00  0.00000000e+00  0.00000000e+00
  0.00000000e+00  0.00000000e+00 -2.34063525e-06 -9.04358930e-07
  0.00000000e+00  0.00000000e+00  0.00000000e+00  4.05722196e-06]","[[-0.00032808  0.01663938]
 [-0.00031238 -0.00644841]]",[],0.0,0.0
1787561051.2424314,1.6533379001390454,1.181706285646634,2.257140940730247,"[ 2.09650465e-05 -6.32102618e-08  0.00000000e+00  0.00000000e+00
  0.00000000e+00 -2.34063525e-06 -6.32102618e-08  1.61125814e-05
  0.00000000e+00  0.00000000e+00  0.00000000e+00 -9.04358930e-07
  0.00000000e+00  0.00000000e+00  0.00000000e+00  0.00000000e+00
  0.00000000e+00  0.00000000e+00  0.00000000e+00  0.00000000e+00
  0.00000000e+00  0.00000000e+00  0.00000000e+00  0.00000000e+00
  0.00000000e+00  0.00000000e+00  0.00000000e+00  0.00000000e+00
  0.00000000e+00  0.00000000e+00 -2.34063525e-06 -9.04358930e-07
  0.00000000e+00  0.00000000e+00  0.00000000e+00  4.05722196e-06]","[[-0.00032808  0.01663938]
 [-0.00031238 -0.00644841]]",[],0.0,0.0
1787561051.2945151,1.6533379001390454,1.181706285646634,2.257140940730247,"[ 2.09650465e-05 -6.32102618e-08  0.00000000e+00  0.00000000e+00
  0.00000000e+00 -2.34063525e-06 -6.32102618e-08  1.61125814e-05
  0.00000000e+00  0.00000000e+00  0.00000000e+00 -9.04358930e-07
  0.00000000e+00  0.00000000e+00  0.00000000e+00  0.00000000e+00
  0.00000000e+00  0.00000000e+00  0.00000000e+00  0.00000000e+00
  0.00000000e+00  0.00000000e+00  0.00000000e+00  0.00000000e+00
  0.00000000e+00  0.00000000e+00  0.00000000e+00  0.00000000e+00
  0.00000000e+00  0.00000000e+00 -2.34063525e-06 -9.04358930e-07
  0.00000000e+00  0.00000000e+00  0.00000000e+00  4.05722196e-06]","[[-0.00032808  0.01663938]
 [-0.00031238 -0.00644841]]",[],0.0,0.0
1787561051.3427072,1.6533379001390454,1.181706285646634,2.257140940730247,"[ 2.09650465e-05 -6.32102618e-08  0.00000000e+00  0.00000000e+00
  0.00000000e+00 -2.34063525e-06 -6.32102618e-08  1.61125814e-05
  0.00000000e+00  0.00000000e+00  0.00000000e+00 -9.04358930e-07
  0.00000000e+00  0.00000000e+00  0.00000000e+00  0.00000000e+00
  0.00000000e+00  0.00000000e+00  0.00000000e+00  0.00000000e+00
  0.00000000e+00  0.00000000e+00  0.00000000e+00  0.00000000e+00
  0.00000000e+00  0.00000000e+00  0.00000000e+00  0.00000000e+00
  0.00000000e+00  0.00000000e+00 -2.34063525e-06 -9.04358930e-07
  0.00000000e+00  0.00000000e+00  0.00000000e+00  4.05722196e-06]","[[-0.00032808  0.01663938]
 [-0.00031238 -0.00644841]]",[],0.0,0.0
1787561051.3926373,1.6533379001390454,1.181706285646634,2.257140940730247,"[ 2.09650465e-05 -6.32102618e-08  0.00000000e+00  0.00000000e+00
  0.00000000e+00 -2.34063525e-06 -6.32102618e-08  1.61125814e-05
  0.00000000e+00  0.00000000e+00  0.00000000e+00 -9.04358930e-07
  0.00000000e+00  0.00000000e+00  0.00000000e+00  0.00000000e+00
  0.00000000e+00  0.00000000e+00  0.00000000e+00  0.00000000e+00
  0.00000000e+00  0.00000000e+00  0.00000000e+00  0.00000000e+00
  0.00000000e+00  0.00000000e+00  0.00000000e+00  0.00000000e+00
  0.00000000e+00  0.00000000e+00 -2.34063525e-06 -9.04358930e-07
  0.00000000e+00  0.00000000e+00  0.00000000e+00  4.05722196e-06]","[[-0.00032808  0.01663938]
 [-0.00031238 -0.00644841]]",[],0.0,0.0
1787561051.4422152,1.6822908296625165,1.1690455452629542,2.3239125530318487,"[ 1.57392916e-05 -2.00012710e-07  0.00000000e+00  0.00000000e+00
  0.00000000e+00 -1.63703781e-06 -2.00012710e-07  1.19693439e-05
  0.00000000e+00  0.00000000e+00  0.00000000e+00 -6.50998944e-07
  0.00000000e+00  0.00000000e+00  0.00000000e+00  0.00000000e+00
  0.00000000e+00  0.00000000e+00  0.00000000e+00  0.00000000e+00
  0.00000000e+00  0.00000000e+00  0.00000000e+00  0.00000000e+00
  0.00000000e+00  0.00000000e+00  0.00000000e+00  0.00000000e+00
  0.00000000e+00  0.00000000e+00 -1.63703781e-06 -6.50998944e-07
  0.00000000e+00  0.00000000e+00  0.00000000e+00  3.93579242e-06]","[[ 1.78022294e-05  7.02513503e-03]
 [-2.99237837e-04  1.12880083e-03]]",[],0.0,0.0
1787561051.494212,1.6822908296625165,1.1690455452629542,2.3239125530318487,"[ 1.57392916e-05 -2.00012710e-07  0.00000000e+00  0.00000000e+00
  0.00000000e+00 -1.63703781e-06 -2.00012710e-07  1.19693439e-05
  0.00000000e+00  0.00000000e+00  0.00000000e+00 -6.50998944e-07
  0.00000000e+00  0.00000000e+00  0.00000000e+00  0.00000000e+00
  0.00000000e+00  0.00000000e+00  0.00000000e+00  0.00000000e+00
  0.00000000e+00  0.00000000e+00  0.00000000e+00  0.00000000e+00
  0.00000000e+00  0.00000000e+00  0.00000000e+00  0.00000000e+00
  0.00000000e+00  0.00000000e+00 -1.63703781e-06 -6.50998944e-07
  0.00000000e+00  0.00000000e+00  0.00000000e+00  3.93579242e-06]","[[ 1.78022294e-05  7.02513503e-03]
 [-2.99237837e-04  1.12880083e-03]]",[],0.0,0.0
1787561051.5473464,1.6822908296625165,1.1690455452629542,2.3239125530318487,"[ 1.57392916e-05 -2.00012710e-07  0.00000000e+00  0.00000000e+00
  0.00000000e+00 -1.63703781e-06 -2.00012710e-07  1.19693439e-05
  0.00000000e+00  0.00000000e+00  0.00000000e+00 -6.50998944e-07
  0.00000000e+00  0.00000000e+00  0.00000000e+00  0.00000000e+00
  0.00000000e+00  0.00000000e+00  0.00000000e+00  0.00000000e+00
  0.00000000e+00  0.00000000e+00  0.00000000e+00  0.00000000e+00
  0.00000000e+00  0.00000000e+00  0.00000000e+00  0.00000000e+00
  0.00000000e+00  0.00000000e+00 -1.63703781e-06 -6.50998944e-07
  0.00000000e+00  0.00000000e+00  0.00000000e+00  3.93579242e-06]","[[ 1.78022294e-05  7.02513503e-03]
 [-2.99237837e-04  1.12880083e-03]]",[],0.0,0.0
1787561051.5960927,1.6822908296625165,1.1690455452629542,2.3239125530318487,"[ 1.57392916e-05 -2.00012710e-07  0.00000000e+00  0.00000000e+00
  0.00000000e+00 -1.63703781e-06 -2.00012710e-07  1.19693439e-05
  0.00000000e+00  0.00000000e+00  0.00000000e+00 -6.50998944e-07
  0.00000000e+00  0.00000000e+00  0.00000000e+00  0.00000000e+00
  0.00000000e+00  0.00000000e+00  0.00000000e+00  0.00000000e+00
  0.00000000e+00  0.00000000e+00  0.00000000e+00  0.00000000e+00
  0.00000000e+00  0.00000000e+00  0.00000000e+00  0.00000000e+00
  0.00000000e+00  0.00000000e+00 -1.63703781e-06 -6.50998944e-07
  0.00000000e+00  0.00000000e+00  0.00000000e+00  3.93579242e-06]","[[ 1.78022294e-05  7.02513503e-03]
 [-2.99237837e-04  1.12880083e-03]]",[],0.0,0.0
1787561051.6423616,1.6822908296625165,1.1690455452629542,2.3239125530318487,"[ 1.57392916e-05 -2.00012710e-07  0.00000000e+00  0.00000000e+00
  0.00000000e+00 -1.63703781e-06 -2.00012710e-07  1.19693439e-05
  0.00000000e+00  0.00000000e+00  0.00000000e+00 -6.50998944e-07
  0.00000000e+00  0.00000000e+00  0.00000000e+00  0.00000000e+00
  0.00000000e+00  0.00000000e+00  0.00000000e+00  0.00000000e+00
  0.00000000e+00  0.00000000e+00  0.00000000e+00  0.00000000e+00
  0.00000000e+00  0.00000000e+00  0.00000000e+00  0.00000000e+00
  0.00000000e+00  0.00000000e+00 -1.63703781e-06 -6.50998944e-07
  0.00000000e+00  0.00000000e+00  0.00000000e+00  3.93579242e-06]","[[ 1.78022294e-05  7.02513503e-03]
 [-2.99237837e-04  1.12880083e-03]]",[],0.0,0.0
1787561051.6925435,1.6822908296625165,1.1690455452629542,2.3239125530318487,"[ 1.57392916e-05 -2.00012710e-07  0.00000000e+00  0.00000000e+00
  0.00000000e+00 -1.63703781e-06 -2.00012710e-07  1.19693439e-05
  0.00000000e+00  0.00000000e+00  0.00000000e+00 -6.50998944e-07
  0.00000000e+00  0.00000000e+00  0.00000000e+00  0.00000000e+00
  0.00000000e+00  0.00000000e+00  0.00000000e+00  0.00000000e+00
  0.00000000e+00  0.00000000e+00  0.00000000e+00  0.00000000e+00
  0.00000000e+00  0.00000000e+00  0.00000000e+00  0.00000000e+00
  0.00000000e+00  0.00000000e+00 -1.63703781e-06 -6.50998944e-07
  0.00000000e+00  0.00000000e+00  0.00000000e+00  3.93579242e-06]","[[ 1.78022294e-05  7.02513503e-03]
 [-2.99237837e-04  1.12880083e-03]]",[],0.0,0.0
1787561051.74216,1.6822908296625165,1.1690455452629542,2.3239125530318487,"[ 1.57392916e-05 -2.00012710e-07  0.00000000e+00  0.00000000e+00
  0.00000000e+00 -1.63703781e-06 -2.00012710e-07  1.19693439e-05
  0.00000000e+00  0.00000000e+00  0.00000000e+00 -6.50998944e-07
  0.00000000e+00  0.00000000e+00  0.00000000e+00  0.00000000e+00
  0.00000000e+00  0.00000000e+00  0.00000000e+00  0.00000000e+00
  0.00000000e+00  0.00000000e+00  0.00000000e+00  0.00000000e+00
  0.00000000e+00  0.00000000e+00  0.00000000e+00  0.00000000e+00
  0.00000000e+00  0.00000000e+00 -1.63703781e-06 -6.50998944e-07
  0.00000000e+00  0.00000000e+00  0.00000000e+00  3.93579242e-06]","[[ 1.78022294e-05  7.02513503e-03]
 [-2.99237837e-04  1.12880083e-03]]",[],0.0,0.0
1787561051.8017242,1.6822908296625165,1.1690455452629542,2.3239125530318487,"[ 1.57392916e-05 -2.00012710e-07  0.00000000e+00  0.00000000e+00
  0.00000000e+00 -1.63703781e-06 -2.00012710e-07  1.19693439e-05
  0.00000000e+00  0.00000000e+00  0.00000000e+00 -6.50998944e-07
  0.00000000e+00  0.00000000e+00  0.00000000e+00  0.00000000e+00
  0.00000000e+00  0.00000000e+00  0.00000000e+00  0.00000000e+00
  0.00000000e+00  0.00000000e+00  0.00000000e+00  0.00000000e+00
  0.00000000e+00  0.00000000e+00  0.00000000e+00  0.00000000e+00
  0.00000000e+00  0.00000000e+00 -1.63703781e-06 -6.50998944e-07
  0.00000000e+00  0.00000000e+00  0.00000000e+00  3.93579242e-06]","[[ 1.78022294e-05  7.02513503e-03]
 [-2.99237837e-04  1.12880083e-03]]",[],0.0,0.0
1787561051.8484354,1.6822908296625165,1.1690455452629542,2.3239125530318487,"[ 1.57392916e-05 -2.00012710e-07  0.00000000e+00  0.00000000e+00
  0.00000000e+00 -1.63703781e-06 -2.00012710e-07  1.19693439e-05
  0.00000000e+00  0.00000000e+00  0.00000000e+00 -6.50998944e-07
  0.00000000e+00  0.00000000e+00  0.00000000e+00  0.00000000e+00
  0.00000000e+00  0.00000000e+00  0.00000000e+00  0.00000000e+00
  0.00000000e+00  0.00000000e+00  0.00000000e+00  0.00000000e+00
  0.00000000e+00  0.00000000e+00  0.00000000e+00  0.00000000e+00
  0.00000000e+00  0.00000000e+00 -1.63703781e-06 -6.50998944e-07
  0.00000000e+00  0.00000000e+00  0.00000000e+00  3.93579242e-06]","[[ 1.78022294e-05  7.02513503e-03]
 [-2.99237837e-04  1.12880083e-03]]",[],0.0,0.0
1787561051.9015918,1.6822908296625165,1.1690455452629542,2.3239125530318487,"[ 1.57392916e-05 -2.00012710e-07  0.00000000e+00  0.00000000e+00
  0.00000000e+00 -1.63703781e-06 -2.00012710e-07  1.19693439e-05
  0.00000000e+00  0.00000000e+00  0.00000000e+00 -6.50998944e-07
  0.00000000e+00  0.00000000e+00  0.00000000e+00  0.00000000e+00
  0.00000000e+00  0.00000000e+00  0.00000000e+00  0.00000000e+00
  0.00000000e+00  0.00000000e+00  0.00000000e+00  0.00000000e+00
  0.00000000e+00  0.00000000e+00  0.00000000e+00  0.00000000e+00
  0.00000000e+00  0.00000000e+00 -1.63703781e-06 -6.50998944e-07
  0.00000000e+00  0.00000000e+00  0.00000000e+00  3.93579242e-06]","[[ 1.78022294e-05  7.02513503e-03]
 [-2.99237837e-04  1.12880083e-03]]",[],0.0,0.0
1787561051.9483466,1.6822908296625165,1.1690455452629542,2.3239125530318487,"[ 1.57392916e-05 -2.00012710e-07  0.00000000e+00  0.00000000e+00
  0.00000000e+00 -1.63703781e-06 -2.00012710e-07  1.19693439e-05
  0.00000000e+00  0.00000000e+00  0.00000000e+00 -6.50998944e-07
  0.00000000e+00  0.00000000e+00  0.00000000e+00  0.00000000e+00
  0.00000000e+00  0.00000000e+00  0.00000000e+00  0.00000000e+00
  0.00000000e+00  0.00000000e+00  0.00000000e+00  0.00000000e+00
  0.00000000e+00  0.00000000e+00  0.00000000e+00  0.00000000e+00
  0.00000000e+00  0.00000000e+00 -1.63703781e-06 -6.50998944e-07
  0.00000000e+00  0.00000000e+00  0.00000000e+00  3.93579242e-06]","[[ 1.78022294e-05  7.02513503e-03]
 [-2.99237837e-04  1.12880083e-03]]",[],0.0,0.0
1787561051.99443,1.6822908296625165,1.1690455452629542,2.3239125530318487,"[ 1.57392916e-05 -2.00012710e-07  0.00000000e+00  0.00000000e+00
  0.00000000e+00 -1.63703781e-06 -2.00012710e-07  1.19693439e-05
  0.00000000e+00  0.00000000e+00  0.00000000e+00 -6.50998944e-07
  0.00000000e+00  0.00000000e+00  0.00000000e+00  0.00000000e+00
  0.00000000e+00  0.00000000e+00  0.00000000e+00  0.00000000e+00
  0.00000000e+00  0.00000000e+00  0.00000000e+00  0.00000000e+00
  0.00000000e+00  0.00000000e+00  0.00000000e+00  0.00000000e+00
  0.00000000e+00  0.00000000e+00 -1.63703781e-06 -6.50998944e-07
  0.00000000e+00  0.00000000e+00  0.00000000e+00  3.93579242e-06]","[[ 1.78022294e-05  7.02513503e-03]
 [-2.99237837e-04  1.12880083e-03]]",[],0.0,0.0
1787561052.043698,1.6822908296625165,1.1690455452629542,2.3239125530318487,"[ 1.57392916e-05 -2.00012710e-07  0.00000000e+00  0.00000000e+00
  0.00000000e+00 -1.63703781e-06 -2.00012710e-07  1.19693439e-05
  0.00000000e+00  0.00000000e+00  0.00000000e+00 -6.50998944e-07
  0.00000000e+00  0.00000000e+00  0.00000000e+00  0.00000000e+00
  0.00000000e+00  0.00000000e+00  0.00000000e+00  0.00000000e+00
  0.00000000e+00  0.00000000e+00  0.00000000e+00  0.00000000e+00
  0.00000000e+00  0.00000000e+00  0.00000000e+00  0.00000000e+00
  0.00000000e+00  0.00000000e+00 -1.63703781e-06 -6.50998944e-07
  0.00000000e+00  0.00000000e+00  0.00000000e+00  3.93579242e-06]","[[ 1.78022294e-05  7.02513503e-03]
 [-2.99237837e-04  1.12880083e-03]]",[],0.0,0.0
1787561052.0946364,1.6822908296625165,1.1690455452629542,2.3239125530318487,"[ 1.57392916e-05 -2.00012710e-07  0.00000000e+00  0.00000000e+00
  0.00000000e+00 -1.63703781e-06 -2.00012710e-07  1.19693439e-05
  0.00000000e+00  0.00000000e+00  0.00000000e+00 -6.50998944e-07
  0.00000000e+00  0.00000000e+00  0.00000000e+00  0.00000000e+00
  0.00000000e+00  0.00000000e+00  0.00000000e+00  0.00000000e+00
  0.00000000e+00  0.00000000e+00  0.00000000e+00  0.00000000e+00
  0.00000000e+00  0.00000000e+00  0.00000000e+00  0.00000000e+00
  0.00000000e+00  0.00000000e+00 -1.63703781e-06 -6.50998944e-07
  0.00000000e+00  0.00000000e+00  0.00000000e+00  3.93579242e-06]","[[ 1.78022294e-05  7.02513503e-03]
 [-2.99237837e-04  1.12880083e-03]]",[],0.0,0.0
1787561052.1452277,1.6822908296625165,1.1690455452629542,2.3239125530318487,"[ 1.57392916e-05 -2.00012710e-07  0.00000000e+00  0.00000000e+00
  0.00000000e+00 -1.63703781e-06 -2.00012710e-07  1.19693439e-05
  0.00000000e+00  0.00000000e+00  0.00000000e+00 -6.50998944e-07
  0.00000000e+00  0.00000000e+00  0.00000000e+00  0.00000000e+00
  0.00000000e+00  0.00000000e+00  0.00000000e+00  0.00000000e+00
  0.00000000e+00  0.00000000e+00  0.00000000e+00  0.00000000e+00
  0.00000000e+00  0.00000000e+00  0.00000000e+00  0.00000000e+00
  0.00000000e+00  0.00000000e+00 -1.63703781e-06 -6.50998944e-07
  0.00000000e+00  0.00000000e+00  0.00000000e+00  3.93579242e-06]","[[ 1.78022294e-05  7.02513503e-03]
 [-2.99237837e-04  1.12880083e-03]]",[],0.0,0.0
1787561052.205322,1.6822908296625165,1.1690455452629542,2.3239125530318487,"[ 1.57392916e-05 -2.00012710e-07  0.00000000e+00  0.00000000e+00
  0.00000000e+00 -1.63703781e-06 -2.00012710e-07  1.19693439e-05
  0.00000000e+00  0.00000000e+00  0.00000000e+00 -6.50998944e-07
  0.00000000e+00  0.00000000e+00  0.00000000e+00  0.00000000e+00
  0.00000000e+00  0.00000000e+00  0.00000000e+00  0.00000000e+00
  0.00000000e+00  0.00000000e+00  0.00000000e+00  0.00000000e+00
  0.00000000e+00  0.00000000e+00  0.00000000e+00  0.00000000e+00
  0.00000000e+00  0.00000000e+00 -1.63703781e-06 -6.50998944e-07
  0.00000000e+00  0.00000000e+00  0.00000000e+00  3.93579242e-06]","[[ 1.78022294e-05  7.02513503e-03]
 [-2.99237837e-04  1.12880083e-03]]",[],0.0,0.0
1787561052.242645,1.6822908296625165,1.1690455452629542,2.3239125530318487,"[ 1.57392916e-05 -2.00012710e-07  0.00000000e+00  0.00000000e+00
  0.00000000e+00 -1.63703781e-06 -2.00012710e-07  1.19693439e-05
  0.00000000e+00  0.00000000e+00  0.00000000e+00 -6.50998944e-07
  0.00000000e+00  0.00000000e+00  0.00000000e+00  0.00000000e+00
  0.00000000e+00  0.00000000e+00  0.00000000e+00  0.00000000e+00
  0.00000000e+00  0.00000000e+00  0.00000000e+00  0.00000000e+00
  0.00000000e+00  0.00000000e+00  0.00000000e+00  0.00000000e+00
  0.00000000e+00  0.00000000e+00 -1.63703781e-06 -6.50998944e-07
  0.00000000e+00  0.00000000e+00  0.00000000e+00  3.93579242e-06]","[[ 1.78022294e-05  7.02513503e-03]
 [-2.99237837e-04  1.12880083e-03]]",[],0.0,0.0
1787561052.292493,1.6822908296625165,1.1690455452629542,2.3239125530318487,"[ 1.57392916e-05 -2.00012710e-07  0.00000000e+00  0.00000000e+00
  0.00000000e+00 -1.63703781e-06 -2.00012710e-07  1.19693439e-05
  0.00000000e+00  0.00000000e+00  0.00000000e+00 -6.50998944e-07
  0.00000000e+00  0.00000000e+00  0.00000000e+00  0.00000000e+00
  0.00000000e+00  0.00000000e+00  0.00000000e+00  0.00000000e+00
  0.00000000e+00  0.00000000e+00  0.00000000e+00  0.00000000e+00
  0.00000000e+00  0.00000000e+00  0.00000000e+00  0.00000000e+00
  0.00000000e+00  0.00000000e+00 -1.63703781e-06 -6.50998944e-07
  0.00000000e+00  0.00000000e+00  0.00000000e+00  3.93579242e-06]","[[ 1.78022294e-05  7.02513503e-03]
 [-2.99237837e-04  1.12880083e-03]]",[],0.0,0.0
1787561052.3516195,1.6822908296625165,1.1690455452629542,2.3239125530318487,"[ 1.57392916e-05 -2.00012710e-07  0.00000000e+00  0.00000000e+00
  0.00000000e+00 -1.63703781e-06 -2.00012710e-07  1.19693439e-05
  0.00000000e+00  0.00000000e+00  0.00000000e+00 -6.50998944e-07
  0.00000000e+00  0.00000000e+00  0.00000000e+00  0.00000000e+00
  0.00000000e+00  0.00000000e+00  0.00000000e+00  0.00000000e+00
  0.00000000e+00  0.00000000e+00  0.00000000e+00  0.00000000e+00
  0.00000000e+00  0.00000000e+00  0.00000000e+00  0.00000000e+00
  0.00000000e+00  0.00000000e+00 -1.63703781e-06 -6.50998944e-07
  0.00000000e+00  0.00000000e+00  0.00000000e+00  3.93579242e-06]","[[ 1.78022294e-05  7.02513503e-03]
 [-2.99237837e-04  1.12880083e-03]]",[],0.0,0.0
1787561052.402618,1.6976534639387002,1.1579014431712393,2.379628541367768,"[ 1.28271472e-05 -1.30336104e-07  0.00000000e+00  0.00000000e+00
  0.00000000e+00 -1.02008325e-06 -1.30336104e-07  9.69840739e-06
  0.00000000e+00  0.00000000e+00  0.00000000e+00 -4.95136880e-07
  0.00000000e+00  0.00000000e+00  0.00000000e+00  0.00000000e+00
  0.00000000e+00  0.00000000e+00  0.00000000e+00  0.00000000e+00
  0.00000000e+00  0.00000000e+00  0.00000000e+00  0.00000000e+00
  0.00000000e+00  0.00000000e+00  0.00000000e+00  0.00000000e+00
  0.00000000e+00  0.00000000e+00 -1.02008325e-06 -4.95136880e-07
  0.00000000e+00  0.00000000e+00  0.00000000e+00  4.08934622e-06]","[[ 0.00027397  0.00526032]
 [-0.00013089  0.00519443]]",[],0.0,0.0
1787561052.4534783,1.6976534639387002,1.1579014431712393,2.379628541367768,"[ 1.28271472e-05 -1.30336104e-07  0.00000000e+00  0.00000000e+00
  0.00000000e+00 -1.02008325e-06 -1.30336104e-07  9.69840739e-06
  0.00000000e+00  0.00000000e+00  0.00000000e+00 -4.95136880e-07
  0.00000000e+00  0.00000000e+00  0.00000000e+00  0.00000000e+00
  0.00000000e+00  0.00000000e+00  0.00000000e+00  0.00000000e+00
  0.00000000e+00  0.00000000e+00  0.00000000e+00  0.00000000e+00
  0.00000000e+00  0.00000000e+00  0.00000000e+00  0.00000000e+00
  0.00000000e+00  0.00000000e+00 -1.02008325e-06 -4.95136880e-07
  0.00000000e+00  0.00000000e+00  0.00000000e+00  4.08934622e-06]","[[ 0.00027397  0.00526032]
 [-0.00013089  0.00519443]]",[],0.0,0.0
1787561052.4926133,1.6976534639387002,1.1579014431712393,2.379628541367768,"[ 1.28271472e-05 -1.30336104e-07  0.00000000e+00  0.00000000e+00
  0.00000000e+00 -1.02008325e-06 -1.30336104e-07  9.69840739e-06
  0.00000000e+00  0.00000000e+00  0.00000000e+00 -4.95136880e-07
  0.00000000e+00  0.00000000e+00  0.00000000e+00  0.00000000e+00
  0.00000000e+00  0.00000000e+00  0.00000000e+00  0.00000000e+00
  0.00000000e+00  0.00000000e+00  0.00000000e+00  0.00000000e+00
  0.00000000e+00  0.00000000e+00  0.00000000e+00  0.00000000e+00
  0.00000000e+00  0.00000000e+00 -1.02008325e-06 -4.95136880e-07
  0.00000000e+00  0.00000000e+00  0.00000000e+00  4.08934622e-06]","[[ 0.00027397  0.00526032]
 [-0.00013089  0.00519443]]",[],0.0,0.0
1787561052.5437255,1.6976534639387002,1.1579014431712393,2.379628541367768,"[ 1.28271472e-05 -1.30336104e-07  0.00000000e+00  0.00000000e+00
  0.00000000e+00 -1.02008325e-06 -1.30336104e-07  9.69840739e-06
  0.00000000e+00  0.00000000e+00  0.00000000e+00 -4.95136880e-07
  0.00000000e+00  0.00000000e+00  0.00000000e+00  0.00000000e+00
  0.00000000e+00  0.00000000e+00  0.00000000e+00  0.00000000e+00
  0.00000000e+00  0.00000000e+00  0.00000000e+00  0.00000000e+00
  0.00000000e+00  0.00000000e+00  0.00000000e+00  0.00000000e+00
  0.00000000e+00  0.00000000e+00 -1.02008325e-06 -4.95136880e-07
  0.00000000e+00  0.00000000e+00  0.00000000e+00  4.08934622e-06]","[[ 0.00027397  0.00526032]
 [-0.00013089  0.00519443]]",[],0.0,0.0
1787561052.5923362,1.6976534639387002,1.1579014431712393,2.379628541367768,"[ 1.28271472e-05 -1.30336104e-07  0.00000000e+00  0.00000000e+00
  0.00000000e+00 -1.02008325e-06 -1.30336104e-07  9.69840739e-06
  0.00000000e+00  0.00000000e+00  0.00000000e+00 -4.95136880e-07
  0.00000000e+00  0.00000000e+00  0.00000000e+00  0.00000000e+00
  0.00000000e+00  0.00000000e+00  0.00000000e+00  0.00000000e+00
  0.00000000e+00  0.00000000e+00  0.00000000e+00  0.00000000e+00
  0.00000000e+00  0.00000000e+00  0.00000000e+00  0.00000000e+00
  0.00000000e+00  0.00000000e+00 -1.02008325e-06 -4.95136880e-07
  0.00000000e+00  0.00000000e+00  0.00000000e+00  4.08934622e-06]","[[ 0.00027397  0.00526032]
 [-0.00013089  0.00519443]]",[],0.0,0.0
1787561052.643839,1.6976534639387002,1.1579014431712393,2.379628541367768,"[ 1.28271472e-05 -1.30336104e-07  0.00000000e+00  0.00000000e+00
  0.00000000e+00 -1.02008325e-06 -1.30336104e-07  9.69840739e-06
  0.00000000e+00  0.00000000e+00  0.00000000e+00 -4.95136880e-07
  0.00000000e+00  0.00000000e+00  0.00000000e+00  0.00000000e+00
  0.00000000e+00  0.00000000e+00  0.00000000e+00  0.00000000e+00
  0.00000000e+00  0.00000000e+00  0.00000000e+00  0.00000000e+00
  0.00000000e+00  0.00000000e+00  0.00000000e+00  0.00000000e+00
  0.00000000e+00  0.00000000e+00 -1.02008325e-06 -4.95136880e-07
  0.00000000e+00  0.00000000e+00  0.00000000e+00  4.08934622e-06]","[[ 0.00027397  0.00526032]
 [-0.00013089  0.00519443]]",[],0.0,0.0
1787561052.6983838,1.6976534639387002,1.1579014431712393,2.379628541367768,"[ 1.28271472e-05 -1.30336104e-07  0.00000000e+00  0.00000000e+00
  0.00000000e+00 -1.02008325e-06 -1.30336104e-07  9.69840739e-06
  0.00000000e+00  0.00000000e+00  0.00000000e+00 -4.95136880e-07
  0.00000000e+00  0.00000000e+00  0.00000000e+00  0.00000000e+00
  0.00000000e+00  0.00000000e+00  0.00000000e+00  0.00000000e+00
  0.00000000e+00  0.00000000e+00  0.00000000e+00  0.00000000e+00
  0.00000000e+00  0.00000000e+00  0.00000000e+00  0.00000000e+00
  0.00000000e+00  0.00000000e+00 -1.02008325e-06 -4.95136880e-07
  0.00000000e+00  0.00000000e+00  0.00000000e+00  4.08934622e-06]","[[ 0.00027397  0.00526032]
 [-0.00013089  0.00519443]]",[],0.0,0.0
1787561052.743704,1.6976534639387002,1.1579014431712393,2.379628541367768,"[ 1.28271472e-05 -1.30336104e-07  0.00000000e+00  0.00000000e+00
  0.00000000e+00 -1.02008325e-06 -1.30336104e-07  9.69840739e-06
  0.00000000e+00  0.00000000e+00  0.00000000e+00 -4.95136880e-07
  0.00000000e+00  0.00000000e+00  0.00000000e+00  0.00000000e+00
  0.00000000e+00  0.00000000e+00  0.00000000e+00  0.00000000e+00
  0.00000000e+00  0.00000000e+00  0.00000000e+00  0.00000000e+00
  0.00000000e+00  0.00000000e+00  0.00000000e+00  0.00000000e+00
  0.00000000e+00  0.00000000e+00 -1.02008325e-06 -4.95136880e-07
  0.00000000e+00  0.00000000e+00  0.00000000e+00  4.08934622e-06]","[[ 0.00027397  0.00526032]
 [-0.00013089  0.00519443]]",[],0.0,0.0
1787561052.7948275,1.6976534639387002,1.1579014431712393,2.379628541367768,"[ 1.28271472e-05 -1.30336104e-07  0.00000000e+00  0.00000000e+00
  0.00000000e+00 -1.02008325e-06 -1.30336104e-07  9.69840739e-06
  0.00000000e+00  0.00000000e+00  0.00000000e+00 -4.95136880e-07
  0.00000000e+00  0.00000000e+00  0.00000000e+00  0.00000000e+00
  0.00000000e+00  0.00000000e+00  0.00000000e+00  0.00000000e+00
  0.00000000e+00  0.00000000e+00  0.00000000e+00  0.00000000e+00
  0.00000000e+00  0.00000000e+00  0.00000000e+00  0.00000000e+00
  0.00000000e+00  0.00000000e+00 -1.02008325e-06 -4.95136880e-07
  0.00000000e+00  0.00000000e+00  0.00000000e+00  4.08934622e-06]","[[ 0.00027397  0.00526032]
 [-0.00013089  0.00519443]]",[],0.0,0.0
1787561052.8455596,1.6976534639387002,1.1579014431712393,2.379628541367768,"[ 1.28271472e-05 -1.30336104e-07  0.00000000e+00  0.00000000e+00
  0.00000000e+00 -1.02008325e-06 -1.30336104e-07  9.69840739e-06
  0.00000000e+00  0.00000000e+00  0.00000000e+00 -4.95136880e-07
  0.00000000e+00  0.00000000e+00  0.00000000e+00  0.00000000e+00
  0.00000000e+00  0.00000000e+00  0.00000000e+00  0.00000000e+00
  0.00000000e+00  0.00000000e+00  0.00000000e+00  0.00000000e+00
  0.00000000e+00  0.00000000e+00  0.00000000e+00  0.00000000e+00
  0.00000000e+00  0.00000000e+00 -1.02008325e-06 -4.95136880e-07
  0.00000000e+00  0.00000000e+00  0.00000000e+00  4.08934622e-06]","[[ 0.00027397  0.00526032]
 [-0.00013089  0.00519443]]",[],0.0,0.0
1787561052.894755,1.6976534639387002,1.1579014431712393,2.379628541367768,"[ 1.28271472e-05 -1.30336104e-07  0.00000000e+00  0.00000000e+00
  0.00000000e+00 -1.02008325e-06 -1.30336104e-07  9.69840739e-06
  0.00000000e+00  0.00000000e+00  0.00000000e+00 -4.95136880e-07
  0.00000000e+00  0.00000000e+00  0.00000000e+00  0.00000000e+00
  0.00000000e+00  0.00000000e+00  0.00000000e+00  0.00000000e+00
  0.00000000e+00  0.00000000e+00  0.00000000e+00  0.00000000e+00
  0.00000000e+00  0.00000000e+00  0.00000000e+00  0.00000000e+00
  0.00000000e+00  0.00000000e+00 -1.02008325e-06 -4.95136880e-07
  0.00000000e+00  0.00000000e+00  0.00000000e+00  4.08934622e-06]","[[ 0.00027397  0.00526032]
 [-0.00013089  0.00519443]]",[],0.0,0.0
1787561052.9443853,1.6976534639387002,1.1579014431712393,2.379628541367768,"[ 1.28271472e-05 -1.30336104e-07  0.00000000e+00  0.00000000e+00
  0.00000000e+00 -1.02008325e-06 -1.30336104e-07  9.69840739e-06
  0.00000000e+00  0.00000000e+00  0.00000000e+00 -4.95136880e-07
  0.00000000e+00  0.00000000e+00  0.00000000e+00  0.00000000e+00
  0.00000000e+00  0.00000000e+00  0.00000000e+00  0.00000000e+00
  0.00000000e+00  0.00000000e+00  0.00000000e+00  0.00000000e+00
  0.00000000e+00  0.00000000e+00  0.00000000e+00  0.00000000e+00
  0.00000000e+00  0.00000000e+00 -1.02008325e-06 -4.95136880e-07
  0.00000000e+00  0.00000000e+00  0.00000000e+00  4.08934622e-06]","[[ 0.00027397  0.00526032]
 [-0.00013089  0.00519443]]",[],0.0,0.0
1787561052.9921536,1.6976534639387002,1.1579014431712393,2.379628541367768,"[ 1.28271472e-05 -1.30336104e-07  0.00000000e+00  0.00000000e+00
  0.00000000e+00 -1.02008325e-06 -1.30336104e-07  9.69840739e-06
  0.00000000e+00  0.00000000e+00  0.00000000e+00 -4.95136880e-07
  0.00000000e+00  0.00000000e+00  0.00000000e+00  0.00000000e+00
  0.00000000e+00  0.00000000e+00  0.00000000e+00  0.00000000e+00
  0.00000000e+00  0.00000000e+00  0.00000000e+00  0.00000000e+00
  0.00000000e+00  0.00000000e+00  0.00000000e+00  0.00000000e+00
  0.00000000e+00  0.00000000e+00 -1.02008325e-06 -4.95136880e-07
  0.00000000e+00  0.00000000e+00  0.00000000e+00  4.08934622e-06]","[[ 0.00027397  0.00526032]
 [-0.00013089  0.00519443]]",[],0.0,0.0
1787561053.0424283,1.6976534639387002,1.1579014431712393,2.379628541367768,"[ 1.28271472e-05 -1.30336104e-07  0.00000000e+00  0.00000000e+00
  0.00000000e+00 -1.02008325e-06 -1.30336104e-07  9.69840739e-06
  0.00000000e+00  0.00000000e+00  0.00000000e+00 -4.95136880e-07
  0.00000000e+00  0.00000000e+00  0.00000000e+00  0.00000000e+00
  0.00000000e+00  0.00000000e+00  0.00000000e+00  0.00000000e+00
  0.00000000e+00  0.00000000e+00  0.00000000e+00  0.00000000e+00
  0.00000000e+00  0.00000000e+00  0.00000000e+00  0.00000000e+00
  0.00000000e+00  0.00000000e+00 -1.02008325e-06 -4.95136880e-07
  0.00000000e+00  0.00000000e+00  0.00000000e+00  4.08934622e-06]","[[ 0.00027397  0.00526032]
 [-0.00013089  0.00519443]]",[],0.0,0.0
1787561053.0976028,1.6976534639387002,1.1579014431712393,2.379628541367768,"[ 1.28271472e-05 -1.30336104e-07  0.00000000e+00  0.00000000e+00
  0.00000000e+00 -1.02008325e-06 -1.30336104e-07  9.69840739e-06
  0.00000000e+00  0.00000000e+00  0.00000000e+00 -4.95136880e-07
  0.00000000e+00  0.00000000e+00  0.00000000e+00  0.00000000e+00
  0.00000000e+00  0.00000000e+00  0.00000000e+00  0.00000000e+00
  0.00000000e+00  0.00000000e+00  0.00000000e+00  0.00000000e+00
  0.00000000e+00  0.00000000e+00  0.00000000e+00  0.00000000e+00
  0.00000000e+00  0.00000000e+00 -1.02008325e-06 -4.95136880e-07
  0.00000000e+00  0.00000000e+00  0.00000000e+00  4.08934622e-06]","[[ 0.00027397  0.00526032]
 [-0.00013089  0.00519443]]",[],0.0,0.0
1787561053.1477392,1.6976534639387002,1.1579014431712393,2.379628541367768,"[ 1.28271472e-05 -1.30336104e-07  0.00000000e+00  0.00000000e+00
  0.00000000e+00 -1.02008325e-06 -1.30336104e-07  9.69840739e-06
  0.00000000e+00  0.00000000e+00  0.00000000e+00 -4.95136880e-07
  0.00000000e+00  0.00000000e+00  0.00000000e+00  0.00000000e+00
  0.00000000e+00  0.00000000e+00  0.00000000e+00  0.00000000e+00
  0.00000000e+00  0.00000000e+00  0.00000000e+00  0.00000000e+00
  0.00000000e+00  0.00000000e+00  0.00000000e+00  0.00000000e+00
  0.00000000e+00  0.00000000e+00 -1.02008325e-06 -4.95136880e-07
  0.00000000e+00  0.00000000e+00  0.00000000e+00  4.08934622e-06]","[[ 0.00027397  0.00526032]
 [-0.00013089  0.00519443]]",[],0.0,0.0
1787561053.1973422,1.6976534639387002,1.1579014431712393,2.379628541367768,"[ 1.28271472e-05 -1.30336104e-07  0.00000000e+00  0.00000000e+00
  0.00000000e+00 -1.02008325e-06 -1.30336104e-07  9.69840739e-06
  0.00000000e+00  0.00000000e+00  0.00000000e+00 -4.95136880e-07
  0.00000000e+00  0.00000000e+00  0.00000000e+00  0.00000000e+00
  0.00000000e+00  0.00000000e+00  0.00000000e+00  0.00000000e+00
  0.00000000e+00  0.00000000e+00  0.00000000e+00  0.00000000e+00
  0.00000000e+00  0.00000000e+00  0.00000000e+00  0.00000000e+00
  0.00000000e+00  0.00000000e+00 -1.02008325e-06 -4.95136880e-07
  0.00000000e+00  0.00000000e+00  0.00000000e+00  4.08934622e-06]","[[ 0.00027397  0.00526032]
 [-0.00013089  0.00519443]]",[],0.0,0.0
1787561053.245808,1.6976534639387002,1.1579014431712393,2.379628541367768,"[ 1.28271472e-05 -1.30336104e-07  0.00000000e+00  0.00000000e+00
  0.00000000e+00 -1.02008325e-06 -1.30336104e-07  9.69840739e-06
  0.00000000e+00  0.00000000e+00  0.00000000e+00 -4.95136880e-07
  0.00000000e+00  0.00000000e+00  0.00000000e+00  0.00000000e+00
  0.00000000e+00  0.00000000e+00  0.00000000e+00  0.00000000e+00
  0.00000000e+00  0.00000000e+00  0.00000000e+00  0.00000000e+00
  0.00000000e+00  0.00000000e+00  0.00000000e+00  0.00000000e+00
  0.00000000e+00  0.00000000e+00 -1.02008325e-06 -4.95136880e-07
  0.00000000e+00  0.00000000e+00  0.00000000e+00  4.08934622e-06]","[[ 0.00027397  0.00526032]
 [-0.00013089  0.00519443]]",[],0.0,0.0
1787561053.294668,1.6976534639387002,1.1579014431712393,2.379628541367768,"[ 1.28271472e-05 -1.30336104e-07  0.00000000e+00  0.00000000e+00
  0.00000000e+00 -1.02008325e-06 -1.30336104e-07  9.69840739e-06
  0.00000000e+00  0.00000000e+00  0.00000000e+00 -4.95136880e-07
  0.00000000e+00  0.00000000e+00  0.00000000e+00  0.00000000e+00
  0.00000000e+00  0.00000000e+00  0.00000000e+00  0.00000000e+00
  0.00000000e+00  0.00000000e+00  0.00000000e+00  0.00000000e+00
  0.00000000e+00  0.00000000e+00  0.00000000e+00  0.00000000e+00
  0.00000000e+00  0.00000000e+00 -1.02008325e-06 -4.95136880e-07
  0.00000000e+00  0.00000000e+00  0.00000000e+00  4.08934622e-06]","[[ 0.00027397  0.00526032]
 [-0.00013089  0.00519443]]",[],0.0,0.0
1787561053.3421836,1.6976534639387002,1.1579014431712393,2.379628541367768,"[ 1.28271472e-05 -1.30336104e-07  0.00000000e+00  0.00000000e+00
  0.00000000e+00 -1.02008325e-06 -1.30336104e-07  9.69840739e-06
  0.00000000e+00  0.00000000e+00  0.00000000e+00 -4.95136880e-07
  0.00000000e+00  0.00000000e+00  0.00000000e+00  0.00000000e+00
  0.00000000e+00  0.00000000e+00  0.00000000e+00  0.00000000e+00
  0.00000000e+00  0.00000000e+00  0.00000000e+00  0.00000000e+00
  0.00000000e+00  0.00000000e+00  0.00000000e+00  0.00000000e+00
  0.00000000e+00  0.00000000e+00 -1.02008325e-06 -4.95136880e-07
  0.00000000e+00  0.00000000e+00  0.00000000e+00  4.08934622e-06]","[[ 0.00027397  0.00526032]
 [-0.00013089  0.00519443]]",[],0.0,0.0
1787561053.3932784,1.6976534639387002,1.1579014431712393,2.379628541367768,"[ 1.28271472e-05 -1.30336104e-07  0.00000000e+00  0.00000000e+00
  0.00000000e+00 -1.02008325e-06 -1.30336104e-07  9.69840739e-06
  0.00000000e+00  0.00000000e+00  0.00000000e+00 -4.95136880e-07
  0.00000000e+00  0.00000000e+00  0.00000000e+00  0.00000000e+00
  0.00000000e+00  0.00000000e+00  0.00000000e+00  0.00000000e+00
  0.00000000e+00  0.00000000e+00  0.00000000e+00  0.00000000e+00
  0.00000000e+00  0.00000000e+00  0.00000000e+00  0.00000000e+00
  0.00000000e+00  0.00000000e+00 -1.02008325e-06 -4.95136880e-07
  0.00000000e+00  0.00000000e+00  0.00000000e+00  4.08934622e-06]","[[ 0.00027397  0.00526032]
 [-0.00013089  0.00519443]]",[],0.0,0.0
1787561053.4420106,1.7090868624813607,1.1509677223023023,2.4150593835654615,"[ 1.06846058e-05 -1.77688269e-07  0.00000000e+00  0.00000000e+00
  0.00000000e+00 -9.46097825e-07 -1.77688269e-07  8.00487134e-06
  0.00000000e+00  0.00000000e+00  0.00000000e+00 -4.50952820e-07
  0.00000000e+00  0.00000000e+00  0.00000000e+00  0.00000000e+00
  0.00000000e+00  0.00000000e+00  0.00000000e+00  0.00000000e+00
  0.00000000e+00  0.00000000e+00  0.00000000e+00  0.00000000e+00
  0.00000000e+00  0.00000000e+00  0.00000000e+00  0.00000000e+00
  0.00000000e+00  0.00000000e+00 -9.46097825e-07 -4.50952820e-07
  0.00000000e+00  0.00000000e+00  0.00000000e+00  3.78473712e-06]","[[ 0.00022906  0.00449383]
 [-0.00010959  0.00431455]]",[],0.0,0.0
1787561053.4966745,1.7090868624813607,1.1509677223023023,2.4150593835654615,"[ 1.06846058e-05 -1.77688269e-07  0.00000000e+00  0.00000000e+00
  0.00000000e+00 -9.46097825e-07 -1.77688269e-07  8.00487134e-06
  0.00000000e+00  0.00000000e+00  0.00000000e+00 -4.50952820e-07
  0.00000000e+00  0.00000000e+00  0.00000000e+00  0.00000000e+00
  0.00000000e+00  0.00000000e+00  0.00000000e+00  0.00000000e+00
  0.00000000e+00  0.00000000e+00  0.00000000e+00  0.00000000e+00
  0.00000000e+00  0.00000000e+00  0.00000000e+00  0.00000000e+00
  0.00000000e+00  0.00000000e+00 -9.46097825e-07 -4.50952820e-07
  0.00000000e+00  0.00000000e+00  0.00000000e+00  3.78473712e-06]","[[ 0.00022906  0.00449383]
 [-0.00010959  0.00431455]]",[],0.0,0.0
1787561053.5507903,1.7090868624813607,1.1509677223023023,2.4150593835654615,"[ 1.06846058e-05 -1.77688269e-07  0.00000000e+00  0.00000000e+00
  0.00000000e+00 -9.46097825e-07 -1.77688269e-07  8.00487134e-06
  0.00000000e+00  0.00000000e+00  0.00000000e+00 -4.50952820e-07
  0.00000000e+00  0.00000000e+00  0.00000000e+00  0.00000000e+00
  0.00000000e+00  0.00000000e+00  0.00000000e+00  0.00000000e+00
  0.00000000e+00  0.00000000e+00  0.00000000e+00  0.00000000e+00
  0.00000000e+00  0.00000000e+00  0.00000000e+00  0.00000000e+00
  0.00000000e+00  0.00000000e+00 -9.46097825e-07 -4.50952820e-07
  0.00000000e+00  0.00000000e+00  0.00000000e+00  3.78473712e-06]","[[ 0.00022906  0.00449383]
 [-0.00010959  0.00431455]]",[],0.0,0.0
1787561053.6049755,1.7090868624813607,1.1509677223023023,2.4150593835654615,"[ 1.06846058e-05 -1.77688269e-07  0.00000000e+00  0.00000000e+00
  0.00000000e+00 -9.46097825e-07 -1.77688269e-07  8.00487134e-06
  0.00000000e+00  0.00000000e+00  0.00000000e+00 -4.50952820e-07
  0.00000000e+00  0.00000000e+00  0.00000000e+00  0.00000000e+00
  0.00000000e+00  0.00000000e+00  0.00000000e+00  0.00000000e+00
  0.00000000e+00  0.00000000e+00  0.00000000e+00  0.00000000e+00
  0.00000000e+00  0.00000000e+00  0.00000000e+00  0.00000000e+00
  0.00000000e+00  0.00000000e+00 -9.46097825e-07 -4.50952820e-07
  0.00000000e+00  0.00000000e+00  0.00000000e+00  3.78473712e-06]","[[ 0.00022906  0.00449383]
 [-0.00010959  0.00431455]]",[],0.0,0.0
1787561053.6421554,1.7090868624813607,1.1509677223023023,2.4150593835654615,"[ 1.06846058e-05 -1.77688269e-07  0.00000000e+00  0.00000000e+00
  0.00000000e+00 -9.46097825e-07 -1.77688269e-07  8.00487134e-06
  0.00000000e+00  0.00000000e+00  0.00000000e+00 -4.50952820e-07
  0.00000000e+00  0.00000000e+00  0.00000000e+00  0.00000000e+00
  0.00000000e+00  0.00000000e+00  0.00000000e+00  0.00000000e+00
  0.00000000e+00  0.00000000e+00  0.00000000e+00  0.00000000e+00
  0.00000000e+00  0.00000000e+00  0.00000000e+00  0.00000000e+00
  0.00000000e+00  0.00000000e+00 -9.46097825e-07 -4.50952820e-07
  0.00000000e+00  0.00000000e+00  0.00000000e+00  3.78473712e-06]","[[ 0.00022906  0.00449383]
 [-0.00010959  0.00431455]]",[],0.0,0.0
1787561053.7002904,1.7090868624813607,1.1509677223023023,2.4150593835654615,"[ 1.06846058e-05 -1.77688269e-07  0.00000000e+00  0.00000000e+00
  0.00000000e+00 -9.46097825e-07 -1.77688269e-07  8.00487134e-06
  0.00000000e+00  0.00000000e+00  0.00000000e+00 -4.50952820e-07
  0.00000000e+00  0.00000000e+00  0.00000000e+00  0.00000000e+00
  0.00000000e+00  0.00000000e+00  0.00000000e+00  0.00000000e+00
  0.00000000e+00  0.00000000e+00  0.00000000e+00  0.00000000e+00
  0.00000000e+00  0.00000000e+00  0.00000000e+00  0.00000000e+00
  0.00000000e+00  0.00000000e+00 -9.46097825e-07 -4.50952820e-07
  0.00000000e+00  0.00000000e+00  0.00000000e+00  3.78473712e-06]","[[ 0.00022906  0.00449383]
 [-0.00010959  0.00431455]]",[],0.0,0.0
1787561053.7465107,1.7090868624813607,1.1509677223023023,2.4150593835654615,"[ 1.06846058e-05 -1.77688269e-07  0.00000000e+00  0.00000000e+00
  0.00000000e+00 -9.46097825e-07 -1.77688269e-07  8.00487134e-06
  0.00000000e+00  0.00000000e+00  0.00000000e+00 -4.50952820e-07
  0.00000000e+00  0.00000000e+00  0.00000000e+00  0.00000000e+00
  0.00000000e+00  0.00000000e+00  0.00000000e+00  0.00000000e+00
  0.00000000e+00  0.00000000e+00  0.00000000e+00  0.00000000e+00
  0.00000000e+00  0.00000000e+00  0.00000000e+00  0.00000000e+00
  0.00000000e+00  0.00000000e+00 -9.46097825e-07 -4.50952820e-07
  0.00000000e+00  0.00000000e+00  0.00000000e+00  3.78473712e-06]","[[ 0.00022906  0.00449383]
 [-0.00010959  0.00431455]]",[],0.0,0.0
1787561053.7938287,1.7090868624813607,1.1509677223023023,2.4150593835654615,"[ 1.06846058e-05 -1.77688269e-07  0.00000000e+00  0.00000000e+00
  0.00000000e+00 -9.46097825e-07 -1.77688269e-07  8.00487134e-06
  0.00000000e+00  0.00000000e+00  0.00000000e+00 -4.50952820e-07
  0.00000000e+00  0.00000000e+00  0.00000000e+00  0.00000000e+00
  0.00000000e+00  0.00000000e+00  0.00000000e+00  0.00000000e+00
  0.00000000e+00  0.00000000e+00  0.00000000e+00  0.00000000e+00
  0.00000000e+00  0.00000000e+00  0.00000000e+00  0.00000000e+00
  0.00000000e+00  0.00000000e+00 -9.46097825e-07 -4.50952820e-07
  0.00000000e+00  0.00000000e+00  0.00000000e+00  3.78473712e-06]","[[ 0.00022906  0.00449383]
 [-0.00010959  0.00431455]]",[],0.0,0.0
1787561053.8476381,1.7090868624813607,1.1509677223023023,2.4150593835654615,"[ 1.06846058e-05 -1.77688269e-07  0.00000000e+00  0.00000000e+00
  0.00000000e+00 -9.46097825e-07 -1.77688269e-07  8.00487134e-06
  0.00000000e+00  0.00000000e+00  0.00000000e+00 -4.50952820e-07
  0.00000000e+00  0.00000000e+00  0.00000000e+00  0.00000000e+00
  0.00000000e+00  0.00000000e+00  0.00000000e+00  0.00000000e+00
  0.00000000e+00  0.00000000e+00  0.00000000e+00  0.00000000e+00
  0.00000000e+00  0.00000000e+00  0.00000000e+00  0.00000000e+00
  0.00000000e+00  0.00000000e+00 -9.46097825e-07 -4.50952820e-07
  0.00000000e+00  0.00000000e+00  0.00000000e+00  3.78473712e-06]","[[ 0.00022906  0.00449383]
 [-0.00010959  0.00431455]]",[],0.0,0.0
1787561053.892611,1.7090868624813607,1.1509677223023023,2.4150593835654615,"[ 1.06846058e-05 -1.77688269e-07  0.00000000e+00  0.00000000e+00
  0.00000000e+00 -9.46097825e-07 -1.77688269e-07  8.00487134e-06
  0.00000000e+00  0.00000000e+00  0.00000000e+00 -4.50952820e-07
  0.00000000e+00  0.00000000e+00  0.00000000e+00  0.00000000e+00
  0.00000000e+00  0.00000000e+00  0.00000000e+00  0.00000000e+00
  0.00000000e+00  0.00000000e+00  0.00000000e+00  0.00000000e+00
  0.00000000e+00  0.00000000e+00  0.00000000e+00  0.00000000e+00
  0.00000000e+00  0.00000000e+00 -9.46097825e-07 -4.50952820e-07
  0.00000000e+00  0.00000000e+00  0.00000000e+00  3.78473712e-06]","[[ 0.00022906  0.00449383]
 [-0.00010959  0.00431455]]",[],0.0,0.0
1787561053.9442894,1.7090868624813607,1.1509677223023023,2.4150593835654615,"[ 1.06846058e-05 -1.77688269e-07  0.00000000e+00  0.00000000e+00
  0.00000000e+00 -9.46097825e-07 -1.77688269e-07  8.00487134e-06
  0.00000000e+00  0.00000000e+00  0.00000000e+00 -4.50952820e-07
  0.00000000e+00  0.00000000e+00  0.00000000e+00  0.00000000e+00
  0.00000000e+00  0.00000000e+00  0.00000000e+00  0.00000000e+00
  0.00000000e+00  0.00000000e+00  0.00000000e+00  0.00000000e+00
  0.00000000e+00  0.00000000e+00  0.00000000e+00  0.00000000e+00
  0.00000000e+00  0.00000000e+00 -9.46097825e-07 -4.50952820e-07
  0.00000000e+00  0.00000000e+00  0.00000000e+00  3.78473712e-06]","[[ 0.00022906  0.00449383]
 [-0.00010959  0.00431455]]",[],0.0,0.0
1787561054.0111523,1.7090868624813607,1.1509677223023023,2.4150593835654615,"[ 1.06846058e-05 -1.77688269e-07  0.00000000e+00  0.00000000e+00
  0.00000000e+00 -9.46097825e-07 -1.77688269e-07  8.00487134e-06
  0.00000000e+00  0.00000000e+00  0.00000000e+00 -4.50952820e-07
  0.00000000e+00  0.00000000e+00  0.00000000e+00  0.00000000e+00
  0.00000000e+00  0.00000000e+00  0.00000000e+00  0.00000000e+00
  0.00000000e+00  0.00000000e+00  0.00000000e+00  0.00000000e+00
  0.00000000e+00  0.00000000e+00  0.00000000e+00  0.00000000e+00
  0.00000000e+00  0.00000000e+00 -9.46097825e-07 -4.50952820e-07
  0.00000000e+00  0.00000000e+00  0.00000000e+00  3.78473712e-06]","[[ 0.00022906  0.00449383]
 [-0.00010959  0.00431455]]",[],0.0,0.0
1787561054.0526152,1.7090868624813607,1.1509677223023023,2.4150593835654615,"[ 1.06846058e-05 -1.77688269e-07  0.00000000e+00  0.00000000e+00
  0.00000000e+00 -9.46097825e-07 -1.77688269e-07  8.00487134e-06
  0.00000000e+00  0.00000000e+00  0.00000000e+00 -4.50952820e-07
  0.00000000e+00  0.00000000e+00  0.00000000e+00  0.00000000e+00
  0.00000000e+00  0.00000000e+00  0.00000000e+00  0.00000000e+00
  0.00000000e+00  0.00000000e+00  0.00000000e+00  0.00000000e+00
  0.00000000e+00  0.00000000e+00  0.00000000e+00  0.00000000e+00
  0.00000000e+00  0.00000000e+00 -9.46097825e-07 -4.50952820e-07
  0.00000000e+00  0.00000000e+00  0.00000000e+00  3.78473712e-06]","[[ 0.00022906  0.00449383]
 [-0.00010959  0.00431455]]",[],0.0,0.0
1787561054.0925853,1.7090868624813607,1.1509677223023023,2.4150593835654615,"[ 1.06846058e-05 -1.77688269e-07  0.00000000e+00  0.00000000e+00
  0.00000000e+00 -9.46097825e-07 -1.77688269e-07  8.00487134e-06
  0.00000000e+00  0.00000000e+00  0.00000000e+00 -4.50952820e-07
  0.00000000e+00  0.00000000e+00  0.00000000e+00  0.00000000e+00
  0.00000000e+00  0.00000000e+00  0.00000000e+00  0.00000000e+00
  0.00000000e+00  0.00000000e+00  0.00000000e+00  0.00000000e+00
  0.00000000e+00  0.00000000e+00  0.00000000e+00  0.00000000e+00
  0.00000000e+00  0.00000000e+00 -9.46097825e-07 -4.50952820e-07
  0.00000000e+00  0.00000000e+00  0.00000000e+00  3.78473712e-06]","[[ 0.00022906  0.00449383]
 [-0.00010959  0.00431455]]",[],0.0,0.0
1787561054.143137,1.7090868624813607,1.1509677223023023,2.4150593835654615,"[ 1.06846058e-05 -1.77688269e-07  0.00000000e+00  0.00000000e+00
  0.00000000e+00 -9.46097825e-07 -1.77688269e-07  8.00487134e-06
  0.00000000e+00  0.00000000e+00  0.00000000e+00 -4.50952820e-07
  0.00000000e+00  0.00000000e+00  0.00000000e+00  0.00000000e+00
  0.00000000e+00  0.00000000e+00  0.00000000e+00  0.00000000e+00
  0.00000000e+00  0.00000000e+00  0.00000000e+00  0.00000000e+00
  0.00000000e+00  0.00000000e+00  0.00000000e+00  0.00000000e+00
  0.00000000e+00  0.00000000e+00 -9.46097825e-07 -4.50952820e-07
  0.00000000e+00  0.00000000e+00  0.00000000e+00  3.78473712e-06]","[[ 0.00022906  0.00449383]
 [-0.00010959  0.00431455]]",[],0.0,0.0
1787561054.1974146,1.7090868624813607,1.1509677223023023,2.4150593835654615,"[ 1.06846058e-05 -1.77688269e-07  0.00000000e+00  0.00000000e+00
  0.00000000e+00 -9.46097825e-07 -1.77688269e-07  8.00487134e-06
  0.00000000e+00  0.00000000e+00  0.00000000e+00 -4.50952820e-07
  0.00000000e+00  0.00000000e+00  0.00000000e+00  0.00000000e+00
  0.00000000e+00  0.00000000e+00  0.00000000e+00  0.00000000e+00
  0.00000000e+00  0.00000000e+00  0.00000000e+00  0.00000000e+00
  0.00000000e+00  0.00000000e+00  0.00000000e+00  0.00000000e+00
  0.00000000e+00  0.00000000e+00 -9.46097825e-07 -4.50952820e-07
  0.00000000e+00  0.00000000e+00  0.00000000e+00  3.78473712e-06]","[[ 0.00022906  0.00449383]
 [-0.00010959  0.00431455]]",[],0.0,0.0
1787561054.2420404,1.7090868624813607,1.1509677223023023,2.4150593835654615,"[ 1.06846058e-05 -1.77688269e-07  0.00000000e+00  0.00000000e+00
  0.00000000e+00 -9.46097825e-07 -1.77688269e-07  8.00487134e-06
  0.00000000e+00  0.00000000e+00  0.00000000e+00 -4.50952820e-07
  0.00000000e+00  0.00000000e+00  0.00000000e+00  0.00000000e+00
  0.00000000e+00  0.00000000e+00  0.00000000e+00  0.00000000e+00
  0.00000000e+00  0.00000000e+00  0.00000000e+00  0.00000000e+00
  0.00000000e+00  0.00000000e+00  0.00000000e+00  0.00000000e+00
  0.00000000e+00  0.00000000e+00 -9.46097825e-07 -4.50952820e-07
  0.00000000e+00  0.00000000e+00  0.00000000e+00  3.78473712e-06]","[[ 0.00022906  0.00449383]
 [-0.00010959  0.00431455]]",[],0.0,0.0
1787561054.2917476,1.7090868624813607,1.1509677223023023,2.4150593835654615,"[ 1.06846058e-05 -1.77688269e-07  0.00000000e+00  0.00000000e+00
  0.00000000e+00 -9.46097825e-07 -1.77688269e-07  8.00487134e-06
  0.00000000e+00  0.00000000e+00  0.00000000e+00 -4.50952820e-07
  0.00000000e+00  0.00000000e+00  0.00000000e+00  0.00000000e+00
  0.00000000e+00  0.00000000e+00  0.00000000e+00  0.00000000e+00
  0.00000000e+00  0.00000000e+00  0.00000000e+00  0.00000000e+00
  0.00000000e+00  0.00000000e+00  0.00000000e+00  0.00000000e+00
  0.00000000e+00  0.00000000e+00 -9.46097825e-07 -4.50952820e-07
  0.00000000e+00  0.00000000e+00  0.00000000e+00  3.78473712e-06]","[[ 0.00022906  0.00449383]
 [-0.00010959  0.00431455]]",[],0.0,0.0
1787561054.3427038,1.7090868624813607,1.1509677223023023,2.4150593835654615,"[ 1.06846058e-05 -1.77688269e-07  0.00000000e+00  0.00000000e+00
  0.00000000e+00 -9.46097825e-07 -1.77688269e-07  8.00487134e-06
  0.00000000e+00  0.00000000e+00  0.00000000e+00 -4.50952820e-07
  0.00000000e+00  0.00000000e+00  0.00000000e+00  0.00000000e+00
  0.00000000e+00  0.00000000e+00  0.00000000e+00  0.00000000e+00
  0.00000000e+00  0.00000000e+00  0.00000000e+00  0.00000000e+00
  0.00000000e+00  0.00000000e+00  0.00000000e+00  0.00000000e+00
  0.00000000e+00  0.00000000e+00 -9.46097825e-07 -4.50952820e-07
  0.00000000e+00  0.00000000e+00  0.00000000e+00  3.78473712e-06]","[[ 0.00022906  0.00449383]
 [-0.00010959  0.00431455]]",[],0.0,0.0
1787561054.391783,1.7090868624813607,1.1509677223023023,2.4150593835654615,"[ 1.06846058e-05 -1.77688269e-07  0.00000000e+00  0.00000000e+00
  0.00000000e+00 -9.46097825e-07 -1.77688269e-07  8.00487134e-06
  0.00000000e+00  0.00000000e+00  0.00000000e+00 -4.50952820e-07
  0.00000000e+00  0.00000000e+00  0.00000000e+00  0.00000000e+00
  0.00000000e+00  0.00000000e+00  0.00000000e+00  0.00000000e+00
  0.00000000e+00  0.00000000e+00  0.00000000e+00  0.00000000e+00
  0.00000000e+00  0.00000000e+00  0.00000000e+00  0.00000000e+00
  0.00000000e+00  0.00000000e+00 -9.46097825e-07 -4.50952820e-07
  0.00000000e+00  0.00000000e+00  0.00000000e+00  3.78473712e-06]","[[ 0.00022906  0.00449383]
 [-0.00010959  0.00431455]]",[],0.0,0.0
1787561054.4502475,1.7090868624813607,1.1509677223023023,2.4150593835654615,"[ 1.06846058e-05 -1.77688269e-07  0.00000000e+00  0.00000000e+00
  0.00000000e+00 -9.46097825e-07 -1.77688269e-07  8.00487134e-06
  0.00000000e+00  0.00000000e+00  0.00000000e+00 -4.50952820e-07
  0.00000000e+00  0.00000000e+00  0.00000000e+00  0.00000000e+00
  0.00000000e+00  0.00000000e+00  0.00000000e+00  0.00000000e+00
  0.00000000e+00  0.00000000e+00  0.00000000e+00  0.00000000e+00
  0.00000000e+00  0.00000000e+00  0.00000000e+00  0.00000000e+00
  0.00000000e+00  0.00000000e+00 -9.46097825e-07 -4.50952820e-07
  0.00000000e+00  0.00000000e+00  0.00000000e+00  3.78473712e-06]","[[ 0.00022906  0.00449383]
 [-0.00010959  0.00431455]]",[],0.0,0.0
1787561054.493707,1.7185087255521816,1.1425654345406389,2.430885866316843,"[ 9.25983759e-06 -2.29561864e-07  0.00000000e+00  0.00000000e+00
  0.00000000e+00 -6.74692510e-07 -2.29561864e-07  6.89757870e-06
  0.00000000e+00  0.00000000e+00  0.00000000e+00 -3.91249488e-07
  0.00000000e+00  0.00000000e+00  0.00000000e+00  0.00000000e+00
  0.00000000e+00  0.00000000e+00  0.00000000e+00  0.00000000e+00
  0.00000000e+00  0.00000000e+00  0.00000000e+00  0.00000000e+00
  0.00000000e+00  0.00000000e+00  0.00000000e+00  0.00000000e+00
  0.00000000e+00  0.00000000e+00 -6.74692510e-07 -3.91249488e-07
  0.00000000e+00  0.00000000e+00  0.00000000e+00  3.91172813e-06]","[[ 1.99522704e-04  3.60923919e-03]
 [-9.60490160e-05  3.68763447e-03]]",[],0.0,0.0
1787561054.5467722,1.7185087255521816,1.1425654345406389,2.430885866316843,"[ 9.25983759e-06 -2.29561864e-07  0.00000000e+00  0.00000000e+00
  0.00000000e+00 -6.74692510e-07 -2.29561864e-07  6.89757870e-06
  0.00000000e+00  0.00000000e+00  0.00000000e+00 -3.91249488e-07
  0.00000000e+00  0.00000000e+00  0.00000000e+00  0.00000000e+00
  0.00000000e+00  0.00000000e+00  0.00000000e+00  0.00000000e+00
  0.00000000e+00  0.00000000e+00  0.00000000e+00  0.00000000e+00
  0.00000000e+00  0.00000000e+00  0.00000000e+00  0.00000000e+00
  0.00000000e+00  0.00000000e+00 -6.74692510e-07 -3.91249488e-07
  0.00000000e+00  0.00000000e+00  0.00000000e+00  3.91172813e-06]","[[ 1.99522704e-04  3.60923919e-03]
 [-9.60490160e-05  3.68763447e-03]]",[],0.0,0.0
1787561054.5963004,1.7185087255521816,1.1425654345406389,2.430885866316843,"[ 9.25983759e-06 -2.29561864e-07  0.00000000e+00  0.00000000e+00
  0.00000000e+00 -6.74692510e-07 -2.29561864e-07  6.89757870e-06
  0.00000000e+00  0.00000000e+00  0.00000000e+00 -3.91249488e-07
  0.00000000e+00  0.00000000e+00  0.00000000e+00  0.00000000e+00
  0.00000000e+00  0.00000000e+00  0.00000000e+00  0.00000000e+00
  0.00000000e+00  0.00000000e+00  0.00000000e+00  0.00000000e+00
  0.00000000e+00  0.00000000e+00  0.00000000e+00  0.00000000e+00
  0.00000000e+00  0.00000000e+00 -6.74692510e-07 -3.91249488e-07
  0.00000000e+00  0.00000000e+00  0.00000000e+00  3.91172813e-06]","[[ 1.99522704e-04  3.60923919e-03]
 [-9.60490160e-05  3.68763447e-03]]",[],0.0,0.0
1787561054.6502936,1.7185087255521816,1.1425654345406389,2.430885866316843,"[ 9.25983759e-06 -2.29561864e-07  0.00000000e+00  0.00000000e+00
  0.00000000e+00 -6.74692510e-07 -2.29561864e-07  6.89757870e-06
  0.00000000e+00  0.00000000e+00  0.00000000e+00 -3.91249488e-07
  0.00000000e+00  0.00000000e+00  0.00000000e+00  0.00000000e+00
  0.00000000e+00  0.00000000e+00  0.00000000e+00  0.00000000e+00
  0.00000000e+00  0.00000000e+00  0.00000000e+00  0.00000000e+00
  0.00000000e+00  0.00000000e+00  0.00000000e+00  0.00000000e+00
  0.00000000e+00  0.00000000e+00 -6.74692510e-07 -3.91249488e-07
  0.00000000e+00  0.00000000e+00  0.00000000e+00  3.91172813e-06]","[[ 1.99522704e-04  3.60923919e-03]
 [-9.60490160e-05  3.68763447e-03]]",[],0.0,0.0
1787561054.7013714,1.7185087255521816,1.1425654345406389,2.430885866316843,"[ 9.25983759e-06 -2.29561864e-07  0.00000000e+00  0.00000000e+00
  0.00000000e+00 -6.74692510e-07 -2.29561864e-07  6.89757870e-06
  0.00000000e+00  0.00000000e+00  0.00000000e+00 -3.91249488e-07
  0.00000000e+00  0.00000000e+00  0.00000000e+00  0.00000000e+00
  0.00000000e+00  0.00000000e+00  0.00000000e+00  0.00000000e+00
  0.00000000e+00  0.00000000e+00  0.00000000e+00  0.00000000e+00
  0.00000000e+00  0.00000000e+00  0.00000000e+00  0.00000000e+00
  0.00000000e+00  0.00000000e+00 -6.74692510e-07 -3.91249488e-07
  0.00000000e+00  0.00000000e+00  0.00000000e+00  3.91172813e-06]","[[ 1.99522704e-04  3.60923919e-03]
 [-9.60490160e-05  3.68763447e-03]]",[],0.0,0.0
1787561054.742687,1.7185087255521816,1.1425654345406389,2.430885866316843,"[ 9.25983759e-06 -2.29561864e-07  0.00000000e+00  0.00000000e+00
  0.00000000e+00 -6.74692510e-07 -2.29561864e-07  6.89757870e-06
  0.00000000e+00  0.00000000e+00  0.00000000e+00 -3.91249488e-07
  0.00000000e+00  0.00000000e+00  0.00000000e+00  0.00000000e+00
  0.00000000e+00  0.00000000e+00  0.00000000e+00  0.00000000e+00
  0.00000000e+00  0.00000000e+00  0.00000000e+00  0.00000000e+00
  0.00000000e+00  0.00000000e+00  0.00000000e+00  0.00000000e+00
  0.00000000e+00  0.00000000e+00 -6.74692510e-07 -3.91249488e-07
  0.00000000e+00  0.00000000e+00  0.00000000e+00  3.91172813e-06]","[[ 1.99522704e-04  3.60923919e-03]
 [-9.60490160e-05  3.68763447e-03]]",[],0.0,0.0
1787561054.7925794,1.7185087255521816,1.1425654345406389,2.430885866316843,"[ 9.25983759e-06 -2.29561864e-07  0.00000000e+00  0.00000000e+00
  0.00000000e+00 -6.74692510e-07 -2.29561864e-07  6.89757870e-06
  0.00000000e+00  0.00000000e+00  0.00000000e+00 -3.91249488e-07
  0.00000000e+00  0.00000000e+00  0.00000000e+00  0.00000000e+00
  0.00000000e+00  0.00000000e+00  0.00000000e+00  0.00000000e+00
  0.00000000e+00  0.00000000e+00  0.00000000e+00  0.00000000e+00
  0.00000000e+00  0.00000000e+00  0.00000000e+00  0.00000000e+00
  0.00000000e+00  0.00000000e+00 -6.74692510e-07 -3.91249488e-07
  0.00000000e+00  0.00000000e+00  0.00000000e+00  3.91172813e-06]","[[ 1.99522704e-04  3.60923919e-03]
 [-9.60490160e-05  3.68763447e-03]]",[],0.0,0.0
1787561054.8483887,1.7185087255521816,1.1425654345406389,2.430885866316843,"[ 9.25983759e-06 -2.29561864e-07  0.00000000e+00  0.00000000e+00
  0.00000000e+00 -6.74692510e-07 -2.29561864e-07  6.89757870e-06
  0.00000000e+00  0.00000000e+00  0.00000000e+00 -3.91249488e-07
  0.00000000e+00  0.00000000e+00  0.00000000e+00  0.00000000e+00
  0.00000000e+00  0.00000000e+00  0.00000000e+00  0.00000000e+00
  0.00000000e+00  0.00000000e+00  0.00000000e+00  0.00000000e+00
  0.00000000e+00  0.00000000e+00  0.00000000e+00  0.00000000e+00
  0.00000000e+00  0.00000000e+00 -6.74692510e-07 -3.91249488e-07
  0.00000000e+00  0.00000000e+00  0.00000000e+00  3.91172813e-06]","[[ 1.99522704e-04  3.60923919e-03]
 [-9.60490160e-05  3.68763447e-03]]",[],0.0,0.0
1787561054.892922,1.7185087255521816,1.1425654345406389,2.430885866316843,"[ 9.25983759e-06 -2.29561864e-07  0.00000000e+00  0.00000000e+00
  0.00000000e+00 -6.74692510e-07 -2.29561864e-07  6.89757870e-06
  0.00000000e+00  0.00000000e+00  0.00000000e+00 -3.91249488e-07
  0.00000000e+00  0.00000000e+00  0.00000000e+00  0.00000000e+00
  0.00000000e+00  0.00000000e+00  0.00000000e+00  0.00000000e+00
  0.00000000e+00  0.00000000e+00  0.00000000e+00  0.00000000e+00
  0.00000000e+00  0.00000000e+00  0.00000000e+00  0.00000000e+00
  0.00000000e+00  0.00000000e+00 -6.74692510e-07 -3.91249488e-07
  0.00000000e+00  0.00000000e+00  0.00000000e+00  3.91172813e-06]","[[ 1.99522704e-04  3.60923919e-03]
 [-9.60490160e-05  3.68763447e-03]]",[],0.0,0.0
1787561054.9424632,1.7185087255521816,1.1425654345406389,2.430885866316843,"[ 9.25983759e-06 -2.29561864e-07  0.00000000e+00  0.00000000e+00
  0.00000000e+00 -6.74692510e-07 -2.29561864e-07  6.89757870e-06
  0.00000000e+00  0.00000000e+00  0.00000000e+00 -3.91249488e-07
  0.00000000e+00  0.00000000e+00  0.00000000e+00  0.00000000e+00
  0.00000000e+00  0.00000000e+00  0.00000000e+00  0.00000000e+00
  0.00000000e+00  0.00000000e+00  0.00000000e+00  0.00000000e+00
  0.00000000e+00  0.00000000e+00  0.00000000e+00  0.00000000e+00
  0.00000000e+00  0.00000000e+00 -6.74692510e-07 -3.91249488e-07
  0.00000000e+00  0.00000000e+00  0.00000000e+00  3.91172813e-06]","[[ 1.99522704e-04  3.60923919e-03]
 [-9.60490160e-05  3.68763447e-03]]",[],0.0,0.0
1787561054.994784,1.7185087255521816,1.1425654345406389,2.430885866316843,"[ 9.25983759e-06 -2.29561864e-07  0.00000000e+00  0.00000000e+00
  0.00000000e+00 -6.74692510e-07 -2.29561864e-07  6.89757870e-06
  0.00000000e+00  0.00000000e+00  0.00000000e+00 -3.91249488e-07
  0.00000000e+00  0.00000000e+00  0.00000000e+00  0.00000000e+00
  0.00000000e+00  0.00000000e+00  0.00000000e+00  0.00000000e+00
  0.00000000e+00  0.00000000e+00  0.00000000e+00  0.00000000e+00
  0.00000000e+00  0.00000000e+00  0.00000000e+00  0.00000000e+00
  0.00000000e+00  0.00000000e+00 -6.74692510e-07 -3.91249488e-07
  0.00000000e+00  0.00000000e+00  0.00000000e+00  3.91172813e-06]","[[ 1.99522704e-04  3.60923919e-03]
 [-9.60490160e-05  3.68763447e-03]]",[],0.0,0.0
1787561055.0426967,1.7185087255521816,1.1425654345406389,2.430885866316843,"[ 9.25983759e-06 -2.29561864e-07  0.00000000e+00  0.00000000e+00
  0.00000000e+00 -6.74692510e-07 -2.29561864e-07  6.89757870e-06
  0.00000000e+00  0.00000000e+00  0.00000000e+00 -3.91249488e-07
  0.00000000e+00  0.00000000e+00  0.00000000e+00  0.00000000e+00
  0.00000000e+00  0.00000000e+00  0.00000000e+00  0.00000000e+00
  0.00000000e+00  0.00000000e+00  0.00000000e+00  0.00000000e+00
  0.00000000e+00  0.00000000e+00  0.00000000e+00  0.00000000e+00
  0.00000000e+00  0.00000000e+00 -6.74692510e-07 -3.91249488e-07
  0.00000000e+00  0.00000000e+00  0.00000000e+00  3.91172813e-06]","[[ 1.99522704e-04  3.60923919e-03]
 [-9.60490160e-05  3.68763447e-03]]",[],0.0,0.0
1787561055.0985842,1.7185087255521816,1.1425654345406389,2.430885866316843,"[ 9.25983759e-06 -2.29561864e-07  0.00000000e+00  0.00000000e+00
  0.00000000e+00 -6.74692510e-07 -2.29561864e-07  6.89757870e-06
  0.00000000e+00  0.00000000e+00  0.00000000e+00 -3.91249488e-07
  0.00000000e+00  0.00000000e+00  0.00000000e+00  0.00000000e+00
  0.00000000e+00  0.00000000e+00  0.00000000e+00  0.00000000e+00
  0.00000000e+00  0.00000000e+00  0.00000000e+00  0.00000000e+00
  0.00000000e+00  0.00000000e+00  0.00000000e+00  0.00000000e+00
  0.00000000e+00  0.00000000e+00 -6.74692510e-07 -3.91249488e-07
  0.00000000e+00  0.00000000e+00  0.00000000e+00  3.91172813e-06]","[[ 1.99522704e-04  3.60923919e-03]
 [-9.60490160e-05  3.68763447e-03]]",[],0.0,0.0
1787561055.1455297,1.7185087255521816,1.1425654345406389,2.430885866316843,"[ 9.25983759e-06 -2.29561864e-07  0.00000000e+00  0.00000000e+00
  0.00000000e+00 -6.74692510e-07 -2.29561864e-07  6.89757870e-06
  0.00000000e+00  0.00000000e+00  0.00000000e+00 -3.91249488e-07
  0.00000000e+00  0.00000000e+00  0.00000000e+00  0.00000000e+00
  0.00000000e+00  0.00000000e+00  0.00000000e+00  0.00000000e+00
  0.00000000e+00  0.00000000e+00  0.00000000e+00  0.00000000e+00
  0.00000000e+00  0.00000000e+00  0.00000000e+00  0.00000000e+00
  0.00000000e+00  0.00000000e+00 -6.74692510e-07 -3.91249488e-07
  0.00000000e+00  0.00000000e+00  0.00000000e+00  3.91172813e-06]","[[ 1.99522704e-04  3.60923919e-03]
 [-9.60490160e-05  3.68763447e-03]]",[],0.0,0.0
1787561055.192604,1.7185087255521816,1.1425654345406389,2.430885866316843,"[ 9.25983759e-06 -2.29561864e-07  0.00000000e+00  0.00000000e+00
  0.00000000e+00 -6.74692510e-07 -2.29561864e-07  6.89757870e-06
  0.00000000e+00  0.00000000e+00  0.00000000e+00 -3.91249488e-07
  0.00000000e+00  0.00000000e+00  0.00000000e+00  0.00000000e+00
  0.00000000e+00  0.00000000e+00  0.00000000e+00  0.00000000e+00
  0.00000000e+00  0.00000000e+00  0.00000000e+00  0.00000000e+00
  0.00000000e+00  0.00000000e+00  0.00000000e+00  0.00000000e+00
  0.00000000e+00  0.00000000e+00 -6.74692510e-07 -3.91249488e-07
  0.00000000e+00  0.00000000e+00  0.00000000e+00  3.91172813e-06]","[[ 1.99522704e-04  3.60923919e-03]
 [-9.60490160e-05  3.68763447e-03]]",[],0.0,0.0
1787561055.2452188,1.7185087255521816,1.1425654345406389,2.430885866316843,"[ 9.25983759e-06 -2.29561864e-07  0.00000000e+00  0.00000000e+00
  0.00000000e+00 -6.74692510e-07 -2.29561864e-07  6.89757870e-06
  0.00000000e+00  0.00000000e+00  0.00000000e+00 -3.91249488e-07
  0.00000000e+00  0.00000000e+00  0.00000000e+00  0.00000000e+00
  0.00000000e+00  0.00000000e+00  0.00000000e+00  0.00000000e+00
  0.00000000e+00  0.00000000e+00  0.00000000e+00  0.00000000e+00
  0.00000000e+00  0.00000000e+00  0.00000000e+00  0.00000000e+00
  0.00000000e+00  0.00000000e+00 -6.74692510e-07 -3.91249488e-07
  0.00000000e+00  0.00000000e+00  0.00000000e+00  3.91172813e-06]","[[ 1.99522704e-04  3.60923919e-03]
 [-9.60490160e-05  3.68763447e-03]]",[],0.0,0.0
1787561055.292573,1.7185087255521816,1.1425654345406389,2.430885866316843,"[ 9.25983759e-06 -2.29561864e-07  0.00000000e+00  0.00000000e+00
  0.00000000e+00 -6.74692510e-07 -2.29561864e-07  6.89757870e-06
  0.00000000e+00  0.00000000e+00  0.00000000e+00 -3.91249488e-07
  0.00000000e+00  0.00000000e+00  0.00000000e+00  0.00000000e+00
  0.00000000e+00  0.00000000e+00  0.00000000e+00  0.00000000e+00
  0.00000000e+00  0.00000000e+00  0.00000000e+00  0.00000000e+00
  0.00000000e+00  0.00000000e+00  0.00000000e+00  0.00000000e+00
  0.00000000e+00  0.00000000e+00 -6.74692510e-07 -3.91249488e-07
  0.00000000e+00  0.00000000e+00  0.00000000e+00  3.91172813e-06]","[[ 1.99522704e-04  3.60923919e-03]
 [-9.60490160e-05  3.68763447e-03]]",[],0.0,0.0
1787561055.353378,1.7185087255521816,1.1425654345406389,2.430885866316843,"[ 9.25983759e-06 -2.29561864e-07  0.00000000e+00  0.00000000e+00
  0.00000000e+00 -6.74692510e-07 -2.29561864e-07  6.89757870e-06
  0.00000000e+00  0.00000000e+00  0.00000000e+00 -3.91249488e-07
  0.00000000e+00  0.00000000e+00  0.00000000e+00  0.00000000e+00
  0.00000000e+00  0.00000000e+00  0.00000000e+00  0.00000000e+00
  0.00000000e+00  0.00000000e+00  0.00000000e+00  0.00000000e+00
  0.00000000e+00  0.00000000e+00  0.00000000e+00  0.00000000e+00
  0.00000000e+00  0.00000000e+00 -6.74692510e-07 -3.91249488e-07
  0.00000000e+00  0.00000000e+00  0.00000000e+00  3.91172813e-06]","[[ 1.99522704e-04  3.60923919e-03]
 [-9.60490160e-05  3.68763447e-03]]",[],0.0,0.0
1787561055.407392,1.7185087255521816,1.1425654345406389,2.430885866316843,"[ 9.25983759e-06 -2.29561864e-07  0.00000000e+00  0.00000000e+00
  0.00000000e+00 -6.74692510e-07 -2.29561864e-07  6.89757870e-06
  0.00000000e+00  0.00000000e+00  0.00000000e+00 -3.91249488e-07
  0.00000000e+00  0.00000000e+00  0.00000000e+00  0.00000000e+00
  0.00000000e+00  0.00000000e+00  0.00000000e+00  0.00000000e+00
  0.00000000e+00  0.00000000e+00  0.00000000e+00  0.00000000e+00
  0.00000000e+00  0.00000000e+00  0.00000000e+00  0.00000000e+00
  0.00000000e+00  0.00000000e+00 -6.74692510e-07 -3.91249488e-07
  0.00000000e+00  0.00000000e+00  0.00000000e+00  3.91172813e-06]","[[ 1.99522704e-04  3.60923919e-03]
 [-9.60490160e-05  3.68763447e-03]]",[],0.0,0.0
1787561055.4420664,1.7185087255521816,1.1425654345406389,2.430885866316843,"[ 9.25983759e-06 -2.29561864e-07  0.00000000e+00  0.00000000e+00
  0.00000000e+00 -6.74692510e-07 -2.29561864e-07  6.89757870e-06
  0.00000000e+00  0.00000000e+00  0.00000000e+00 -3.91249488e-07
  0.00000000e+00  0.00000000e+00  0.00000000e+00  0.00000000e+00
  0.00000000e+00  0.00000000e+00  0.00000000e+00  0.00000000e+00
  0.00000000e+00  0.00000000e+00  0.00000000e+00  0.00000000e+00
  0.00000000e+00  0.00000000e+00  0.00000000e+00  0.00000000e+00
  0.00000000e+00  0.00000000e+00 -6.74692510e-07 -3.91249488e-07
  0.00000000e+00  0.00000000e+00  0.00000000e+00  3.91172813e-06]","[[ 1.99522704e-04  3.60923919e-03]
 [-9.60490160e-05  3.68763447e-03]]",[],0.0,0.0
1787561055.493245,1.7185087255521816,1.1425654345406389,2.430885866316843,"[ 9.25983759e-06 -2.29561864e-07  0.00000000e+00  0.00000000e+00
  0.00000000e+00 -6.74692510e-07 -2.29561864e-07  6.89757870e-06
  0.00000000e+00  0.00000000e+00  0.00000000e+00 -3.91249488e-07
  0.00000000e+00  0.00000000e+00  0.00000000e+00  0.00000000e+00
  0.00000000e+00  0.00000000e+00  0.00000000e+00  0.00000000e+00
  0.00000000e+00  0.00000000e+00  0.00000000e+00  0.00000000e+00
  0.00000000e+00  0.00000000e+00  0.00000000e+00  0.00000000e+00
  0.00000000e+00  0.00000000e+00 -6.74692510e-07 -3.91249488e-07
  0.00000000e+00  0.00000000e+00  0.00000000e+00  3.91172813e-06]","[[ 1.99522704e-04  3.60923919e-03]
 [-9.60490160e-05  3.68763447e-03]]",[],0.0,0.0
1787561055.5423038,1.7185087255521816,1.1425654345406389,2.430885866316843,"[ 9.25983759e-06 -2.29561864e-07  0.00000000e+00  0.00000000e+00
  0.00000000e+00 -6.74692510e-07 -2.29561864e-07  6.89757870e-06
  0.00000000e+00  0.00000000e+00  0.00000000e+00 -3.91249488e-07
  0.00000000e+00  0.00000000e+00  0.00000000e+00  0.00000000e+00
  0.00000000e+00  0.00000000e+00  0.00000000e+00  0.00000000e+00
  0.00000000e+00  0.00000000e+00  0.00000000e+00  0.00000000e+00
  0.00000000e+00  0.00000000e+00  0.00000000e+00  0.00000000e+00
  0.00000000e+00  0.00000000e+00 -6.74692510e-07 -3.91249488e-07
  0.00000000e+00  0.00000000e+00  0.00000000e+00  3.91172813e-06]","[[ 1.99522704e-04  3.60923919e-03]
 [-9.60490160e-05  3.68763447e-03]]",[],0.0,0.0
1787561055.5946934,1.724239453385457,1.1351885546451315,2.443282069232416,"[ 8.14798859e-06 -2.35933049e-07  0.00000000e+00  0.00000000e+00
  0.00000000e+00 -5.59700811e-07 -2.35933049e-07  6.10602753e-06
  0.00000000e+00  0.00000000e+00  0.00000000e+00 -3.39274995e-07
  0.00000000e+00  0.00000000e+00  0.00000000e+00  0.00000000e+00
  0.00000000e+00  0.00000000e+00  0.00000000e+00  0.00000000e+00
  0.00000000e+00  0.00000000e+00  0.00000000e+00  0.00000000e+00
  0.00000000e+00  0.00000000e+00  0.00000000e+00  0.00000000e+00
  0.00000000e+00  0.00000000e+00 -5.59700811e-07 -3.39274995e-07
  0.00000000e+00  0.00000000e+00  0.00000000e+00  3.77863481e-06]","[[ 1.75943604e-04  3.09828889e-03]
 [-8.58076338e-05  3.23167087e-03]]",[],0.0,0.0
1787561055.6468751,1.724239453385457,1.1351885546451315,2.443282069232416,"[ 8.14798859e-06 -2.35933049e-07  0.00000000e+00  0.00000000e+00
  0.00000000e+00 -5.59700811e-07 -2.35933049e-07  6.10602753e-06
  0.00000000e+00  0.00000000e+00  0.00000000e+00 -3.39274995e-07
  0.00000000e+00  0.00000000e+00  0.00000000e+00  0.00000000e+00
  0.00000000e+00  0.00000000e+00  0.00000000e+00  0.00000000e+00
  0.00000000e+00  0.00000000e+00  0.00000000e+00  0.00000000e+00
  0.00000000e+00  0.00000000e+00  0.00000000e+00  0.00000000e+00
  0.00000000e+00  0.00000000e+00 -5.59700811e-07 -3.39274995e-07
  0.00000000e+00  0.00000000e+00  0.00000000e+00  3.77863481e-06]","[[ 1.75943604e-04  3.09828889e-03]
 [-8.58076338e-05  3.23167087e-03]]",[],0.0,0.0
1787561055.6937404,1.724239453385457,1.1351885546451315,2.443282069232416,"[ 8.14798859e-06 -2.35933049e-07  0.00000000e+00  0.00000000e+00
  0.00000000e+00 -5.59700811e-07 -2.35933049e-07  6.10602753e-06
  0.00000000e+00  0.00000000e+00  0.00000000e+00 -3.39274995e-07
  0.00000000e+00  0.00000000e+00  0.00000000e+00  0.00000000e+00
  0.00000000e+00  0.00000000e+00  0.00000000e+00  0.00000000e+00
  0.00000000e+00  0.00000000e+00  0.00000000e+00  0.00000000e+00
  0.00000000e+00  0.00000000e+00  0.00000000e+00  0.00000000e+00
  0.00000000e+00  0.00000000e+00 -5.59700811e-07 -3.39274995e-07
  0.00000000e+00  0.00000000e+00  0.00000000e+00  3.77863481e-06]","[[ 1.75943604e-04  3.09828889e-03]
 [-8.58076338e-05  3.23167087e-03]]",[],0.0,0.0
1787561055.7427175,1.724239453385457,1.1351885546451315,2.443282069232416,"[ 8.14798859e-06 -2.35933049e-07  0.00000000e+00  0.00000000e+00
  0.00000000e+00 -5.59700811e-07 -2.35933049e-07  6.10602753e-06
  0.00000000e+00  0.00000000e+00  0.00000000e+00 -3.39274995e-07
  0.00000000e+00  0.00000000e+00  0.00000000e+00  0.00000000e+00
  0.00000000e+00  0.00000000e+00  0.00000000e+00  0.00000000e+00
  0.00000000e+00  0.00000000e+00  0.00000000e+00  0.00000000e+00
  0.00000000e+00  0.00000000e+00  0.00000000e+00  0.00000000e+00
  0.00000000e+00  0.00000000e+00 -5.59700811e-07 -3.39274995e-07
  0.00000000e+00  0.00000000e+00  0.00000000e+00  3.77863481e-06]","[[ 1.75943604e-04  3.09828889e-03]
 [-8.58076338e-05  3.23167087e-03]]",[],0.0,0.0
1787561055.7933803,1.724239453385457,1.1351885546451315,2.443282069232416,"[ 8.14798859e-06 -2.35933049e-07  0.00000000e+00  0.00000000e+00
  0.00000000e+00 -5.59700811e-07 -2.35933049e-07  6.10602753e-06
  0.00000000e+00  0.00000000e+00  0.00000000e+00 -3.39274995e-07
  0.00000000e+00  0.00000000e+00  0.00000000e+00  0.00000000e+00
  0.00000000e+00  0.00000000e+00  0.00000000e+00  0.00000000e+00
  0.00000000e+00  0.00000000e+00  0.00000000e+00  0.00000000e+00
  0.00000000e+00  0.00000000e+00  0.00000000e+00  0.00000000e+00
  0.00000000e+00  0.00000000e+00 -5.59700811e-07 -3.39274995e-07
  0.00000000e+00  0.00000000e+00  0.00000000e+00  3.77863481e-06]","[[ 1.75943604e-04  3.09828889e-03]
 [-8.58076338e-05  3.23167087e-03]]",[],0.0,0.0
1787561055.842242,1.724239453385457,1.1351885546451315,2.443282069232416,"[ 8.14798859e-06 -2.35933049e-07  0.00000000e+00  0.00000000e+00
  0.00000000e+00 -5.59700811e-07 -2.35933049e-07  6.10602753e-06
  0.00000000e+00  0.00000000e+00  0.00000000e+00 -3.39274995e-07
  0.00000000e+00  0.00000000e+00  0.00000000e+00  0.00000000e+00
  0.00000000e+00  0.00000000e+00  0.00000000e+00  0.00000000e+00
  0.00000000e+00  0.00000000e+00  0.00000000e+00  0.00000000e+00
  0.00000000e+00  0.00000000e+00  0.00000000e+00  0.00000000e+00
  0.00000000e+00  0.00000000e+00 -5.59700811e-07 -3.39274995e-07
  0.00000000e+00  0.00000000e+00  0.00000000e+00  3.77863481e-06]","[[ 1.75943604e-04  3.09828889e-03]
 [-8.58076338e-05  3.23167087e-03]]",[],0.0,0.0
1787561055.8935518,1.724239453385457,1.1351885546451315,2.443282069232416,"[ 8.14798859e-06 -2.35933049e-07  0.00000000e+00  0.00000000e+00
  0.00000000e+00 -5.59700811e-07 -2.35933049e-07  6.10602753e-06
  0.00000000e+00  0.00000000e+00  0.00000000e+00 -3.39274995e-07
  0.00000000e+00  0.00000000e+00  0.00000000e+00  0.00000000e+00
  0.00000000e+00  0.00000000e+00  0.00000000e+00  0.00000000e+00
  0.00000000e+00  0.00000000e+00  0.00000000e+00  0.00000000e+00
  0.00000000e+00  0.00000000e+00  0.00000000e+00  0.00000000e+00
  0.00000000e+00  0.00000000e+00 -5.59700811e-07 -3.39274995e-07
  0.00000000e+00  0.00000000e+00  0.00000000e+00  3.77863481e-06]","[[ 1.75943604e-04  3.09828889e-03]
 [-8.58076338e-05  3.23167087e-03]]",[],0.0,0.0
1787561055.944675,1.724239453385457,1.1351885546451315,2.443282069232416,"[ 8.14798859e-06 -2.35933049e-07  0.00000000e+00  0.00000000e+00
  0.00000000e+00 -5.59700811e-07 -2.35933049e-07  6.10602753e-06
  0.00000000e+00  0.00000000e+00  0.00000000e+00 -3.39274995e-07
  0.00000000e+00  0.00000000e+00  0.00000000e+00  0.00000000e+00
  0.00000000e+00  0.00000000e+00  0.00000000e+00  0.00000000e+00
  0.00000000e+00  0.00000000e+00  0.00000000e+00  0.00000000e+00
  0.00000000e+00  0.00000000e+00  0.00000000e+00  0.00000000e+00
  0.00000000e+00  0.00000000e+00 -5.59700811e-07 -3.39274995e-07
  0.00000000e+00  0.00000000e+00  0.00000000e+00  3.77863481e-06]","[[ 1.75943604e-04  3.09828889e-03]
 [-8.58076338e-05  3.23167087e-03]]",[],0.0,0.0
1787561055.9921854,1.724239453385457,1.1351885546451315,2.443282069232416,"[ 8.14798859e-06 -2.35933049e-07  0.00000000e+00  0.00000000e+00
  0.00000000e+00 -5.59700811e-07 -2.35933049e-07  6.10602753e-06
  0.00000000e+00  0.00000000e+00  0.00000000e+00 -3.39274995e-07
  0.00000000e+00  0.00000000e+00  0.00000000e+00  0.00000000e+00
  0.00000000e+00  0.00000000e+00  0.00000000e+00  0.00000000e+00
  0.00000000e+00  0.00000000e+00  0.00000000e+00  0.00000000e+00
  0.00000000e+00  0.00000000e+00  0.00000000e+00  0.00000000e+00
  0.00000000e+00  0.00000000e+00 -5.59700811e-07 -3.39274995e-07
  0.00000000e+00  0.00000000e+00  0.00000000e+00  3.77863481e-06]","[[ 1.75943604e-04  3.09828889e-03]
 [-8.58076338e-05  3.23167087e-03]]",[],0.0,0.0
1787561056.0436058,1.724239453385457,1.1351885546451315,2.443282069232416,"[ 8.14798859e-06 -2.35933049e-07  0.00000000e+00  0.00000000e+00
  0.00000000e+00 -5.59700811e-07 -2.35933049e-07  6.10602753e-06
  0.00000000e+00  0.00000000e+00  0.00000000e+00 -3.39274995e-07
  0.00000000e+00  0.00000000e+00  0.00000000e+00  0.00000000e+00
  0.00000000e+00  0.00000000e+00  0.00000000e+00  0.00000000e+00
  0.00000000e+00  0.00000000e+00  0.00000000e+00  0.00000000e+00
  0.00000000e+00  0.00000000e+00  0.00000000e+00  0.00000000e+00
  0.00000000e+00  0.00000000e+00 -5.59700811e-07 -3.39274995e-07
  0.00000000e+00  0.00000000e+00  0.00000000e+00  3.77863481e-06]","[[ 1.75943604e-04  3.09828889e-03]
 [-8.58076338e-05  3.23167087e-03]]",[],0.0,0.0
1787561056.0921974,1.724239453385457,1.1351885546451315,2.443282069232416,"[ 8.14798859e-06 -2.35933049e-07  0.00000000e+00  0.00000000e+00
  0.00000000e+00 -5.59700811e-07 -2.35933049e-07  6.10602753e-06
  0.00000000e+00  0.00000000e+00  0.00000000e+00 -3.39274995e-07
  0.00000000e+00  0.00000000e+00  0.00000000e+00  0.00000000e+00
  0.00000000e+00  0.00000000e+00  0.00000000e+00  0.00000000e+00
  0.00000000e+00  0.00000000e+00  0.00000000e+00  0.00000000e+00
  0.00000000e+00  0.00000000e+00  0.00000000e+00  0.00000000e+00
  0.00000000e+00  0.00000000e+00 -5.59700811e-07 -3.39274995e-07
  0.00000000e+00  0.00000000e+00  0.00000000e+00  3.77863481e-06]","[[ 1.75943604e-04  3.09828889e-03]
 [-8.58076338e-05  3.23167087e-03]]",[],0.0,0.0
1787561056.147336,1.724239453385457,1.1351885546451315,2.443282069232416,"[ 8.14798859e-06 -2.35933049e-07  0.00000000e+00  0.00000000e+00
  0.00000000e+00 -5.59700811e-07 -2.35933049e-07  6.10602753e-06
  0.00000000e+00  0.00000000e+00  0.00000000e+00 -3.39274995e-07
  0.00000000e+00  0.00000000e+00  0.00000000e+00  0.00000000e+00
  0.00000000e+00  0.00000000e+00  0.00000000e+00  0.00000000e+00
  0.00000000e+00  0.00000000e+00  0.00000000e+00  0.00000000e+00
  0.00000000e+00  0.00000000e+00  0.00000000e+00  0.00000000e+00
  0.00000000e+00  0.00000000e+00 -5.59700811e-07 -3.39274995e-07
  0.00000000e+00  0.00000000e+00  0.00000000e+00  3.77863481e-06]","[[ 1.75943604e-04  3.09828889e-03]
 [-8.58076338e-05  3.23167087e-03]]",[],0.0,0.0
1787561056.1986635,1.724239453385457,1.1351885546451315,2.443282069232416,"[ 8.14798859e-06 -2.35933049e-07  0.00000000e+00  0.00000000e+00
  0.00000000e+00 -5.59700811e-07 -2.35933049e-07  6.10602753e-06
  0.00000000e+00  0.00000000e+00  0.00000000e+00 -3.39274995e-07
  0.00000000e+00  0.00000000e+00  0.00000000e+00  0.00000000e+00
  0.00000000e+00  0.00000000e+00  0.00000000e+00  0.00000000e+00
  0.00000000e+00  0.00000000e+00  0.00000000e+00  0.00000000e+00
  0.00000000e+00  0.00000000e+00  0.00000000e+00  0.00000000e+00
  0.00000000e+00  0.00000000e+00 -5.59700811e-07 -3.39274995e-07
  0.00000000e+00  0.00000000e+00  0.00000000e+00  3.77863481e-06]","[[ 1.75943604e-04  3.09828889e-03]
 [-8.58076338e-05  3.23167087e-03]]",[],0.0,0.0
1787561056.246734,1.724239453385457,1.1351885546451315,2.443282069232416,"[ 8.14798859e-06 -2.35933049e-07  0.00000000e+00  0.00000000e+00
  0.00000000e+00 -5.59700811e-07 -2.35933049e-07  6.10602753e-06
  0.00000000e+00  0.00000000e+00  0.00000000e+00 -3.39274995e-07
  0.00000000e+00  0.00000000e+00  0.00000000e+00  0.00000000e+00
  0.00000000e+00  0.00000000e+00  0.00000000e+00  0.00000000e+00
  0.00000000e+00  0.00000000e+00  0.00000000e+00  0.00000000e+00
  0.00000000e+00  0.00000000e+00  0.00000000e+00  0.00000000e+00
  0.00000000e+00  0.00000000e+00 -5.59700811e-07 -3.39274995e-07
  0.00000000e+00  0.00000000e+00  0.00000000e+00  3.77863481e-06]","[[ 1.75943604e-04  3.09828889e-03]
 [-8.58076338e-05  3.23167087e-03]]",[],0.0,0.0
1787561056.2952514,1.724239453385457,1.1351885546451315,2.443282069232416,"[ 8.14798859e-06 -2.35933049e-07  0.00000000e+00  0.00000000e+00
  0.00000000e+00 -5.59700811e-07 -2.35933049e-07  6.10602753e-06
  0.00000000e+00  0.00000000e+00  0.00000000e+00 -3.39274995e-07
  0.00000000e+00  0.00000000e+00  0.00000000e+00  0.00000000e+00
  0.00000000e+00  0.00000000e+00  0.00000000e+00  0.00000000e+00
  0.00000000e+00  0.00000000e+00  0.00000000e+00  0.00000000e+00
  0.00000000e+00  0.00000000e+00  0.00000000e+00  0.00000000e+00
  0.00000000e+00  0.00000000e+00 -5.59700811e-07 -3.39274995e-07
  0.00000000e+00  0.00000000e+00  0.00000000e+00  3.77863481e-06]","[[ 1.75943604e-04  3.09828889e-03]
 [-8.58076338e-05  3.23167087e-03]]",[],0.0,0.0
1787561056.3434954,1.724239453385457,1.1351885546451315,2.443282069232416,"[ 8.14798859e-06 -2.35933049e-07  0.00000000e+00  0.00000000e+00
  0.00000000e+00 -5.59700811e-07 -2.35933049e-07  6.10602753e-06
  0.00000000e+00  0.00000000e+00  0.00000000e+00 -3.39274995e-07
  0.00000000e+00  0.00000000e+00  0.00000000e+00  0.00000000e+00
  0.00000000e+00  0.00000000e+00  0.00000000e+00  0.00000000e+00
  0.00000000e+00  0.00000000e+00  0.00000000e+00  0.00000000e+00
  0.00000000e+00  0.00000000e+00  0.00000000e+00  0.00000000e+00
  0.00000000e+00  0.00000000e+00 -5.59700811e-07 -3.39274995e-07
  0.00000000e+00  0.00000000e+00  0.00000000e+00  3.77863481e-06]","[[ 1.75943604e-04  3.09828889e-03]
 [-8.58076338e-05  3.23167087e-03]]",[],0.0,0.0
1787561056.3971062,1.724239453385457,1.1351885546451315,2.443282069232416,"[ 8.14798859e-06 -2.35933049e-07  0.00000000e+00  0.00000000e+00
  0.00000000e+00 -5.59700811e-07 -2.35933049e-07  6.10602753e-06
  0.00000000e+00  0.00000000e+00  0.00000000e+00 -3.39274995e-07
  0.00000000e+00  0.00000000e+00  0.00000000e+00  0.00000000e+00
  0.00000000e+00  0.00000000e+00  0.00000000e+00  0.00000000e+00
  0.00000000e+00  0.00000000e+00  0.00000000e+00  0.00000000e+00
