time,x,y,yaw,cov_prop,K_gain,innovation,v_ekf,omega_ekf
1787136550.5546317,1.617519249365191,-1.5450596569310124,0.8108980254091507,"[3.54214469e-06 7.05889355e-08 0.00000000e+00 0.00000000e+00
 0.00000000e+00 2.88319558e-10 7.05889355e-08 4.14439476e-06
 0.00000000e+00 0.00000000e+00 0.00000000e+00 1.53479281e-07
 0.00000000e+00 0.00000000e+00 0.00000000e+00 0.00000000e+00
 0.00000000e+00 0.00000000e+00 0.00000000e+00 0.00000000e+00
 0.00000000e+00 0.00000000e+00 0.00000000e+00 0.00000000e+00
 0.00000000e+00 0.00000000e+00 0.00000000e+00 0.00000000e+00
 0.00000000e+00 0.00000000e+00 2.88319558e-10 1.53479281e-07
 0.00000000e+00 0.00000000e+00 0.00000000e+00 1.70707202e-06]","[[-8.85675837e-03  3.17967553e-05]
 [-4.76425261e-04 -4.73909434e-03]]",[],0.0,0.0
1787136550.597191,1.617519249365191,-1.5450596569310124,0.8108980254091507,"[3.54214469e-06 7.05889355e-08 0.00000000e+00 0.00000000e+00
 0.00000000e+00 2.88319558e-10 7.05889355e-08 4.14439476e-06
 0.00000000e+00 0.00000000e+00 0.00000000e+00 1.53479281e-07
 0.00000000e+00 0.00000000e+00 0.00000000e+00 0.00000000e+00
 0.00000000e+00 0.00000000e+00 0.00000000e+00 0.00000000e+00
 0.00000000e+00 0.00000000e+00 0.00000000e+00 0.00000000e+00
 0.00000000e+00 0.00000000e+00 0.00000000e+00 0.00000000e+00
 0.00000000e+00 0.00000000e+00 2.88319558e-10 1.53479281e-07
 0.00000000e+00 0.00000000e+00 0.00000000e+00 1.70707202e-06]","[[-8.85675837e-03  3.17967553e-05]
 [-4.76425261e-04 -4.73909434e-03]]",[],0.0,0.0
1787136550.6574697,1.617519249365191,-1.5450596569310124,0.8108980254091507,"[3.54214469e-06 7.05889355e-08 0.00000000e+00 0.00000000e+00
 0.00000000e+00 2.88319558e-10 7.05889355e-08 4.14439476e-06
 0.00000000e+00 0.00000000e+00 0.00000000e+00 1.53479281e-07
 0.00000000e+00 0.00000000e+00 0.00000000e+00 0.00000000e+00
 0.00000000e+00 0.00000000e+00 0.00000000e+00 0.00000000e+00
 0.00000000e+00 0.00000000e+00 0.00000000e+00 0.00000000e+00
 0.00000000e+00 0.00000000e+00 0.00000000e+00 0.00000000e+00
 0.00000000e+00 0.00000000e+00 2.88319558e-10 1.53479281e-07
 0.00000000e+00 0.00000000e+00 0.00000000e+00 1.70707202e-06]","[[-8.85675837e-03  3.17967553e-05]
 [-4.76425261e-04 -4.73909434e-03]]",[],0.0,0.0
1787136550.6975782,1.617519249365191,-1.5450596569310124,0.8108980254091507,"[3.54214469e-06 7.05889355e-08 0.00000000e+00 0.00000000e+00
 0.00000000e+00 2.88319558e-10 7.05889355e-08 4.14439476e-06
 0.00000000e+00 0.00000000e+00 0.00000000e+00 1.53479281e-07
 0.00000000e+00 0.00000000e+00 0.00000000e+00 0.00000000e+00
 0.00000000e+00 0.00000000e+00 0.00000000e+00 0.00000000e+00
 0.00000000e+00 0.00000000e+00 0.00000000e+00 0.00000000e+00
 0.00000000e+00 0.00000000e+00 0.00000000e+00 0.00000000e+00
 0.00000000e+00 0.00000000e+00 2.88319558e-10 1.53479281e-07
 0.00000000e+00 0.00000000e+00 0.00000000e+00 1.70707202e-06]","[[-8.85675837e-03  3.17967553e-05]
 [-4.76425261e-04 -4.73909434e-03]]",[],0.0,0.0
1787136550.7505324,1.617519249365191,-1.5450596569310124,0.8108980254091507,"[3.54214469e-06 7.05889355e-08 0.00000000e+00 0.00000000e+00
 0.00000000e+00 2.88319558e-10 7.05889355e-08 4.14439476e-06
 0.00000000e+00 0.00000000e+00 0.00000000e+00 1.53479281e-07
 0.00000000e+00 0.00000000e+00 0.00000000e+00 0.00000000e+00
 0.00000000e+00 0.00000000e+00 0.00000000e+00 0.00000000e+00
 0.00000000e+00 0.00000000e+00 0.00000000e+00 0.00000000e+00
 0.00000000e+00 0.00000000e+00 0.00000000e+00 0.00000000e+00
 0.00000000e+00 0.00000000e+00 2.88319558e-10 1.53479281e-07
 0.00000000e+00 0.00000000e+00 0.00000000e+00 1.70707202e-06]","[[-8.85675837e-03  3.17967553e-05]
 [-4.76425261e-04 -4.73909434e-03]]",[],0.0,0.0
1787136550.7992618,1.617519249365191,-1.5450596569310124,0.8108980254091507,"[3.54214469e-06 7.05889355e-08 0.00000000e+00 0.00000000e+00
 0.00000000e+00 2.88319558e-10 7.05889355e-08 4.14439476e-06
 0.00000000e+00 0.00000000e+00 0.00000000e+00 1.53479281e-07
 0.00000000e+00 0.00000000e+00 0.00000000e+00 0.00000000e+00
 0.00000000e+00 0.00000000e+00 0.00000000e+00 0.00000000e+00
 0.00000000e+00 0.00000000e+00 0.00000000e+00 0.00000000e+00
 0.00000000e+00 0.00000000e+00 0.00000000e+00 0.00000000e+00
 0.00000000e+00 0.00000000e+00 2.88319558e-10 1.53479281e-07
 0.00000000e+00 0.00000000e+00 0.00000000e+00 1.70707202e-06]","[[-8.85675837e-03  3.17967553e-05]
 [-4.76425261e-04 -4.73909434e-03]]",[],0.0,0.0
1787136550.846821,1.617519249365191,-1.5450596569310124,0.8108980254091507,"[3.54214469e-06 7.05889355e-08 0.00000000e+00 0.00000000e+00
 0.00000000e+00 2.88319558e-10 7.05889355e-08 4.14439476e-06
 0.00000000e+00 0.00000000e+00 0.00000000e+00 1.53479281e-07
 0.00000000e+00 0.00000000e+00 0.00000000e+00 0.00000000e+00
 0.00000000e+00 0.00000000e+00 0.00000000e+00 0.00000000e+00
 0.00000000e+00 0.00000000e+00 0.00000000e+00 0.00000000e+00
 0.00000000e+00 0.00000000e+00 0.00000000e+00 0.00000000e+00
 0.00000000e+00 0.00000000e+00 2.88319558e-10 1.53479281e-07
 0.00000000e+00 0.00000000e+00 0.00000000e+00 1.70707202e-06]","[[-8.85675837e-03  3.17967553e-05]
 [-4.76425261e-04 -4.73909434e-03]]",[],0.0,0.0
1787136550.896987,1.617519249365191,-1.5450596569310124,0.8108980254091507,"[3.54214469e-06 7.05889355e-08 0.00000000e+00 0.00000000e+00
 0.00000000e+00 2.88319558e-10 7.05889355e-08 4.14439476e-06
 0.00000000e+00 0.00000000e+00 0.00000000e+00 1.53479281e-07
 0.00000000e+00 0.00000000e+00 0.00000000e+00 0.00000000e+00
 0.00000000e+00 0.00000000e+00 0.00000000e+00 0.00000000e+00
 0.00000000e+00 0.00000000e+00 0.00000000e+00 0.00000000e+00
 0.00000000e+00 0.00000000e+00 0.00000000e+00 0.00000000e+00
 0.00000000e+00 0.00000000e+00 2.88319558e-10 1.53479281e-07
 0.00000000e+00 0.00000000e+00 0.00000000e+00 1.70707202e-06]","[[-8.85675837e-03  3.17967553e-05]
 [-4.76425261e-04 -4.73909434e-03]]",[],0.0,0.0
1787136550.9520814,1.617519249365191,-1.5450596569310124,0.8108980254091507,"[3.54214469e-06 7.05889355e-08 0.00000000e+00 0.00000000e+00
 0.00000000e+00 2.88319558e-10 7.05889355e-08 4.14439476e-06
 0.00000000e+00 0.00000000e+00 0.00000000e+00 1.53479281e-07
 0.00000000e+00 0.00000000e+00 0.00000000e+00 0.00000000e+00
 0.00000000e+00 0.00000000e+00 0.00000000e+00 0.00000000e+00
 0.00000000e+00 0.00000000e+00 0.00000000e+00 0.00000000e+00
 0.00000000e+00 0.00000000e+00 0.00000000e+00 0.00000000e+00
 0.00000000e+00 0.00000000e+00 2.88319558e-10 1.53479281e-07
 0.00000000e+00 0.00000000e+00 0.00000000e+00 1.70707202e-06]","[[-8.85675837e-03  3.17967553e-05]
 [-4.76425261e-04 -4.73909434e-03]]",[],0.0,0.0
1787136550.9971669,1.617519249365191,-1.5450596569310124,0.8108980254091507,"[3.54214469e-06 7.05889355e-08 0.00000000e+00 0.00000000e+00
 0.00000000e+00 2.88319558e-10 7.05889355e-08 4.14439476e-06
 0.00000000e+00 0.00000000e+00 0.00000000e+00 1.53479281e-07
 0.00000000e+00 0.00000000e+00 0.00000000e+00 0.00000000e+00
 0.00000000e+00 0.00000000e+00 0.00000000e+00 0.00000000e+00
 0.00000000e+00 0.00000000e+00 0.00000000e+00 0.00000000e+00
 0.00000000e+00 0.00000000e+00 0.00000000e+00 0.00000000e+00
 0.00000000e+00 0.00000000e+00 2.88319558e-10 1.53479281e-07
 0.00000000e+00 0.00000000e+00 0.00000000e+00 1.70707202e-06]","[[-8.85675837e-03  3.17967553e-05]
 [-4.76425261e-04 -4.73909434e-03]]",[],0.0,0.0
1787136551.0476701,1.617519249365191,-1.5450596569310124,0.8108980254091507,"[3.54214469e-06 7.05889355e-08 0.00000000e+00 0.00000000e+00
 0.00000000e+00 2.88319558e-10 7.05889355e-08 4.14439476e-06
 0.00000000e+00 0.00000000e+00 0.00000000e+00 1.53479281e-07
 0.00000000e+00 0.00000000e+00 0.00000000e+00 0.00000000e+00
 0.00000000e+00 0.00000000e+00 0.00000000e+00 0.00000000e+00
 0.00000000e+00 0.00000000e+00 0.00000000e+00 0.00000000e+00
 0.00000000e+00 0.00000000e+00 0.00000000e+00 0.00000000e+00
 0.00000000e+00 0.00000000e+00 2.88319558e-10 1.53479281e-07
 0.00000000e+00 0.00000000e+00 0.00000000e+00 1.70707202e-06]","[[-8.85675837e-03  3.17967553e-05]
 [-4.76425261e-04 -4.73909434e-03]]",[],0.0,0.0
1787136551.0971498,1.5958677081419432,-1.5265101340357496,0.8122293416909474,"[ 1.79370646e-06  3.77594718e-08  0.00000000e+00  0.00000000e+00
  0.00000000e+00 -2.03503845e-08  3.77594718e-08  1.95130322e-06
  0.00000000e+00  0.00000000e+00  0.00000000e+00  5.41121813e-08
  0.00000000e+00  0.00000000e+00  0.00000000e+00  0.00000000e+00
  0.00000000e+00  0.00000000e+00  0.00000000e+00  0.00000000e+00
  0.00000000e+00  0.00000000e+00  0.00000000e+00  0.00000000e+00
  0.00000000e+00  0.00000000e+00  0.00000000e+00  0.00000000e+00
  0.00000000e+00  0.00000000e+00 -2.03503845e-08  5.41121813e-08
  0.00000000e+00  0.00000000e+00  0.00000000e+00  1.37973714e-06]","[[-0.00332702  0.00128448]
 [-0.00341575 -0.00158802]]",[],0.0,0.0
1787136551.1571422,1.5958677081419432,-1.5265101340357496,0.8122293416909474,"[ 1.79370646e-06  3.77594718e-08  0.00000000e+00  0.00000000e+00
  0.00000000e+00 -2.03503845e-08  3.77594718e-08  1.95130322e-06
  0.00000000e+00  0.00000000e+00  0.00000000e+00  5.41121813e-08
  0.00000000e+00  0.00000000e+00  0.00000000e+00  0.00000000e+00
  0.00000000e+00  0.00000000e+00  0.00000000e+00  0.00000000e+00
  0.00000000e+00  0.00000000e+00  0.00000000e+00  0.00000000e+00
  0.00000000e+00  0.00000000e+00  0.00000000e+00  0.00000000e+00
  0.00000000e+00  0.00000000e+00 -2.03503845e-08  5.41121813e-08
  0.00000000e+00  0.00000000e+00  0.00000000e+00  1.37973714e-06]","[[-0.00332702  0.00128448]
 [-0.00341575 -0.00158802]]",[],0.0,0.0
1787136551.1983616,1.5958677081419432,-1.5265101340357496,0.8122293416909474,"[ 1.79370646e-06  3.77594718e-08  0.00000000e+00  0.00000000e+00
  0.00000000e+00 -2.03503845e-08  3.77594718e-08  1.95130322e-06
  0.00000000e+00  0.00000000e+00  0.00000000e+00  5.41121813e-08
  0.00000000e+00  0.00000000e+00  0.00000000e+00  0.00000000e+00
  0.00000000e+00  0.00000000e+00  0.00000000e+00  0.00000000e+00
  0.00000000e+00  0.00000000e+00  0.00000000e+00  0.00000000e+00
  0.00000000e+00  0.00000000e+00  0.00000000e+00  0.00000000e+00
  0.00000000e+00  0.00000000e+00 -2.03503845e-08  5.41121813e-08
  0.00000000e+00  0.00000000e+00  0.00000000e+00  1.37973714e-06]","[[-0.00332702  0.00128448]
 [-0.00341575 -0.00158802]]",[],0.0,0.0
1787136551.2485065,1.5958677081419432,-1.5265101340357496,0.8122293416909474,"[ 1.79370646e-06  3.77594718e-08  0.00000000e+00  0.00000000e+00
  0.00000000e+00 -2.03503845e-08  3.77594718e-08  1.95130322e-06
  0.00000000e+00  0.00000000e+00  0.00000000e+00  5.41121813e-08
  0.00000000e+00  0.00000000e+00  0.00000000e+00  0.00000000e+00
  0.00000000e+00  0.00000000e+00  0.00000000e+00  0.00000000e+00
  0.00000000e+00  0.00000000e+00  0.00000000e+00  0.00000000e+00
  0.00000000e+00  0.00000000e+00  0.00000000e+00  0.00000000e+00
  0.00000000e+00  0.00000000e+00 -2.03503845e-08  5.41121813e-08
  0.00000000e+00  0.00000000e+00  0.00000000e+00  1.37973714e-06]","[[-0.00332702  0.00128448]
 [-0.00341575 -0.00158802]]",[],0.0,0.0
1787136551.296658,1.5958677081419432,-1.5265101340357496,0.8122293416909474,"[ 1.79370646e-06  3.77594718e-08  0.00000000e+00  0.00000000e+00
  0.00000000e+00 -2.03503845e-08  3.77594718e-08  1.95130322e-06
  0.00000000e+00  0.00000000e+00  0.00000000e+00  5.41121813e-08
  0.00000000e+00  0.00000000e+00  0.00000000e+00  0.00000000e+00
  0.00000000e+00  0.00000000e+00  0.00000000e+00  0.00000000e+00
  0.00000000e+00  0.00000000e+00  0.00000000e+00  0.00000000e+00
  0.00000000e+00  0.00000000e+00  0.00000000e+00  0.00000000e+00
  0.00000000e+00  0.00000000e+00 -2.03503845e-08  5.41121813e-08
  0.00000000e+00  0.00000000e+00  0.00000000e+00  1.37973714e-06]","[[-0.00332702  0.00128448]
 [-0.00341575 -0.00158802]]",[],0.0,0.0
1787136551.3471014,1.5958677081419432,-1.5265101340357496,0.8122293416909474,"[ 1.79370646e-06  3.77594718e-08  0.00000000e+00  0.00000000e+00
  0.00000000e+00 -2.03503845e-08  3.77594718e-08  1.95130322e-06
  0.00000000e+00  0.00000000e+00  0.00000000e+00  5.41121813e-08
  0.00000000e+00  0.00000000e+00  0.00000000e+00  0.00000000e+00
  0.00000000e+00  0.00000000e+00  0.00000000e+00  0.00000000e+00
  0.00000000e+00  0.00000000e+00  0.00000000e+00  0.00000000e+00
  0.00000000e+00  0.00000000e+00  0.00000000e+00  0.00000000e+00
  0.00000000e+00  0.00000000e+00 -2.03503845e-08  5.41121813e-08
  0.00000000e+00  0.00000000e+00  0.00000000e+00  1.37973714e-06]","[[-0.00332702  0.00128448]
 [-0.00341575 -0.00158802]]",[],0.0,0.0
1787136551.4042573,1.5958677081419432,-1.5265101340357496,0.8122293416909474,"[ 1.79370646e-06  3.77594718e-08  0.00000000e+00  0.00000000e+00
  0.00000000e+00 -2.03503845e-08  3.77594718e-08  1.95130322e-06
  0.00000000e+00  0.00000000e+00  0.00000000e+00  5.41121813e-08
  0.00000000e+00  0.00000000e+00  0.00000000e+00  0.00000000e+00
  0.00000000e+00  0.00000000e+00  0.00000000e+00  0.00000000e+00
  0.00000000e+00  0.00000000e+00  0.00000000e+00  0.00000000e+00
  0.00000000e+00  0.00000000e+00  0.00000000e+00  0.00000000e+00
  0.00000000e+00  0.00000000e+00 -2.03503845e-08  5.41121813e-08
  0.00000000e+00  0.00000000e+00  0.00000000e+00  1.37973714e-06]","[[-0.00332702  0.00128448]
 [-0.00341575 -0.00158802]]",[],0.0,0.0
1787136551.452428,1.5958677081419432,-1.5265101340357496,0.8122293416909474,"[ 1.79370646e-06  3.77594718e-08  0.00000000e+00  0.00000000e+00
  0.00000000e+00 -2.03503845e-08  3.77594718e-08  1.95130322e-06
  0.00000000e+00  0.00000000e+00  0.00000000e+00  5.41121813e-08
  0.00000000e+00  0.00000000e+00  0.00000000e+00  0.00000000e+00
  0.00000000e+00  0.00000000e+00  0.00000000e+00  0.00000000e+00
  0.00000000e+00  0.00000000e+00  0.00000000e+00  0.00000000e+00
  0.00000000e+00  0.00000000e+00  0.00000000e+00  0.00000000e+00
  0.00000000e+00  0.00000000e+00 -2.03503845e-08  5.41121813e-08
  0.00000000e+00  0.00000000e+00  0.00000000e+00  1.37973714e-06]","[[-0.00332702  0.00128448]
 [-0.00341575 -0.00158802]]",[],0.0,0.0
1787136551.5032947,1.5958677081419432,-1.5265101340357496,0.8122293416909474,"[ 1.79370646e-06  3.77594718e-08  0.00000000e+00  0.00000000e+00
  0.00000000e+00 -2.03503845e-08  3.77594718e-08  1.95130322e-06
  0.00000000e+00  0.00000000e+00  0.00000000e+00  5.41121813e-08
  0.00000000e+00  0.00000000e+00  0.00000000e+00  0.00000000e+00
  0.00000000e+00  0.00000000e+00  0.00000000e+00  0.00000000e+00
  0.00000000e+00  0.00000000e+00  0.00000000e+00  0.00000000e+00
  0.00000000e+00  0.00000000e+00  0.00000000e+00  0.00000000e+00
  0.00000000e+00  0.00000000e+00 -2.03503845e-08  5.41121813e-08
  0.00000000e+00  0.00000000e+00  0.00000000e+00  1.37973714e-06]","[[-0.00332702  0.00128448]
 [-0.00341575 -0.00158802]]",[],0.0,0.0
1787136551.5672698,1.5958677081419432,-1.5265101340357496,0.8122293416909474,"[ 1.79370646e-06  3.77594718e-08  0.00000000e+00  0.00000000e+00
  0.00000000e+00 -2.03503845e-08  3.77594718e-08  1.95130322e-06
  0.00000000e+00  0.00000000e+00  0.00000000e+00  5.41121813e-08
  0.00000000e+00  0.00000000e+00  0.00000000e+00  0.00000000e+00
  0.00000000e+00  0.00000000e+00  0.00000000e+00  0.00000000e+00
  0.00000000e+00  0.00000000e+00  0.00000000e+00  0.00000000e+00
  0.00000000e+00  0.00000000e+00  0.00000000e+00  0.00000000e+00
  0.00000000e+00  0.00000000e+00 -2.03503845e-08  5.41121813e-08
  0.00000000e+00  0.00000000e+00  0.00000000e+00  1.37973714e-06]","[[-0.00332702  0.00128448]
 [-0.00341575 -0.00158802]]",[],0.0,0.0
1787136551.5974014,1.5958677081419432,-1.5265101340357496,0.8122293416909474,"[ 1.79370646e-06  3.77594718e-08  0.00000000e+00  0.00000000e+00
  0.00000000e+00 -2.03503845e-08  3.77594718e-08  1.95130322e-06
  0.00000000e+00  0.00000000e+00  0.00000000e+00  5.41121813e-08
  0.00000000e+00  0.00000000e+00  0.00000000e+00  0.00000000e+00
  0.00000000e+00  0.00000000e+00  0.00000000e+00  0.00000000e+00
  0.00000000e+00  0.00000000e+00  0.00000000e+00  0.00000000e+00
  0.00000000e+00  0.00000000e+00  0.00000000e+00  0.00000000e+00
  0.00000000e+00  0.00000000e+00 -2.03503845e-08  5.41121813e-08
  0.00000000e+00  0.00000000e+00  0.00000000e+00  1.37973714e-06]","[[-0.00332702  0.00128448]
 [-0.00341575 -0.00158802]]",[],0.0,0.0
1787136551.6468997,1.585938277289951,-1.511351250641404,0.8161164808225587,"[ 1.20859120e-06  4.36199493e-08  0.00000000e+00  0.00000000e+00
  0.00000000e+00 -1.00588380e-08  4.36199493e-08  1.28316433e-06
  0.00000000e+00  0.00000000e+00  0.00000000e+00  5.02882412e-08
  0.00000000e+00  0.00000000e+00  0.00000000e+00  0.00000000e+00
  0.00000000e+00  0.00000000e+00  0.00000000e+00  0.00000000e+00
  0.00000000e+00  0.00000000e+00  0.00000000e+00  0.00000000e+00
  0.00000000e+00  0.00000000e+00  0.00000000e+00  0.00000000e+00
  0.00000000e+00  0.00000000e+00 -1.00588380e-08  5.02882412e-08
  0.00000000e+00  0.00000000e+00  0.00000000e+00  1.35409361e-06]","[[-0.00229023  0.00083126]
 [-0.00226054 -0.00108663]]",[],0.0,0.0
1787136551.7087762,1.585938277289951,-1.511351250641404,0.8161164808225587,"[ 1.20859120e-06  4.36199493e-08  0.00000000e+00  0.00000000e+00
  0.00000000e+00 -1.00588380e-08  4.36199493e-08  1.28316433e-06
  0.00000000e+00  0.00000000e+00  0.00000000e+00  5.02882412e-08
  0.00000000e+00  0.00000000e+00  0.00000000e+00  0.00000000e+00
  0.00000000e+00  0.00000000e+00  0.00000000e+00  0.00000000e+00
  0.00000000e+00  0.00000000e+00  0.00000000e+00  0.00000000e+00
  0.00000000e+00  0.00000000e+00  0.00000000e+00  0.00000000e+00
  0.00000000e+00  0.00000000e+00 -1.00588380e-08  5.02882412e-08
  0.00000000e+00  0.00000000e+00  0.00000000e+00  1.35409361e-06]","[[-0.00229023  0.00083126]
 [-0.00226054 -0.00108663]]",[],0.0,0.0
1787136551.7482865,1.585938277289951,-1.511351250641404,0.8161164808225587,"[ 1.20859120e-06  4.36199493e-08  0.00000000e+00  0.00000000e+00
  0.00000000e+00 -1.00588380e-08  4.36199493e-08  1.28316433e-06
  0.00000000e+00  0.00000000e+00  0.00000000e+00  5.02882412e-08
  0.00000000e+00  0.00000000e+00  0.00000000e+00  0.00000000e+00
  0.00000000e+00  0.00000000e+00  0.00000000e+00  0.00000000e+00
  0.00000000e+00  0.00000000e+00  0.00000000e+00  0.00000000e+00
  0.00000000e+00  0.00000000e+00  0.00000000e+00  0.00000000e+00
  0.00000000e+00  0.00000000e+00 -1.00588380e-08  5.02882412e-08
  0.00000000e+00  0.00000000e+00  0.00000000e+00  1.35409361e-06]","[[-0.00229023  0.00083126]
 [-0.00226054 -0.00108663]]",[],0.0,0.0
1787136551.7988234,1.585938277289951,-1.511351250641404,0.8161164808225587,"[ 1.20859120e-06  4.36199493e-08  0.00000000e+00  0.00000000e+00
  0.00000000e+00 -1.00588380e-08  4.36199493e-08  1.28316433e-06
  0.00000000e+00  0.00000000e+00  0.00000000e+00  5.02882412e-08
  0.00000000e+00  0.00000000e+00  0.00000000e+00  0.00000000e+00
  0.00000000e+00  0.00000000e+00  0.00000000e+00  0.00000000e+00
  0.00000000e+00  0.00000000e+00  0.00000000e+00  0.00000000e+00
  0.00000000e+00  0.00000000e+00  0.00000000e+00  0.00000000e+00
  0.00000000e+00  0.00000000e+00 -1.00588380e-08  5.02882412e-08
  0.00000000e+00  0.00000000e+00  0.00000000e+00  1.35409361e-06]","[[-0.00229023  0.00083126]
 [-0.00226054 -0.00108663]]",[],0.0,0.0
1787136551.857385,1.585938277289951,-1.511351250641404,0.8161164808225587,"[ 1.20859120e-06  4.36199493e-08  0.00000000e+00  0.00000000e+00
  0.00000000e+00 -1.00588380e-08  4.36199493e-08  1.28316433e-06
  0.00000000e+00  0.00000000e+00  0.00000000e+00  5.02882412e-08
  0.00000000e+00  0.00000000e+00  0.00000000e+00  0.00000000e+00
  0.00000000e+00  0.00000000e+00  0.00000000e+00  0.00000000e+00
  0.00000000e+00  0.00000000e+00  0.00000000e+00  0.00000000e+00
  0.00000000e+00  0.00000000e+00  0.00000000e+00  0.00000000e+00
  0.00000000e+00  0.00000000e+00 -1.00588380e-08  5.02882412e-08
  0.00000000e+00  0.00000000e+00  0.00000000e+00  1.35409361e-06]","[[-0.00229023  0.00083126]
 [-0.00226054 -0.00108663]]",[],0.0,0.0
1787136551.9046485,1.585938277289951,-1.511351250641404,0.8161164808225587,"[ 1.20859120e-06  4.36199493e-08  0.00000000e+00  0.00000000e+00
  0.00000000e+00 -1.00588380e-08  4.36199493e-08  1.28316433e-06
  0.00000000e+00  0.00000000e+00  0.00000000e+00  5.02882412e-08
  0.00000000e+00  0.00000000e+00  0.00000000e+00  0.00000000e+00
  0.00000000e+00  0.00000000e+00  0.00000000e+00  0.00000000e+00
  0.00000000e+00  0.00000000e+00  0.00000000e+00  0.00000000e+00
  0.00000000e+00  0.00000000e+00  0.00000000e+00  0.00000000e+00
  0.00000000e+00  0.00000000e+00 -1.00588380e-08  5.02882412e-08
  0.00000000e+00  0.00000000e+00  0.00000000e+00  1.35409361e-06]","[[-0.00229023  0.00083126]
 [-0.00226054 -0.00108663]]",[],0.0,0.0
1787136551.9470477,1.585938277289951,-1.511351250641404,0.8161164808225587,"[ 1.20859120e-06  4.36199493e-08  0.00000000e+00  0.00000000e+00
  0.00000000e+00 -1.00588380e-08  4.36199493e-08  1.28316433e-06
  0.00000000e+00  0.00000000e+00  0.00000000e+00  5.02882412e-08
  0.00000000e+00  0.00000000e+00  0.00000000e+00  0.00000000e+00
  0.00000000e+00  0.00000000e+00  0.00000000e+00  0.00000000e+00
  0.00000000e+00  0.00000000e+00  0.00000000e+00  0.00000000e+00
  0.00000000e+00  0.00000000e+00  0.00000000e+00  0.00000000e+00
  0.00000000e+00  0.00000000e+00 -1.00588380e-08  5.02882412e-08
  0.00000000e+00  0.00000000e+00  0.00000000e+00  1.35409361e-06]","[[-0.00229023  0.00083126]
 [-0.00226054 -0.00108663]]",[],0.0,0.0
1787136552.0224743,1.585938277289951,-1.511351250641404,0.8161164808225587,"[ 1.20859120e-06  4.36199493e-08  0.00000000e+00  0.00000000e+00
  0.00000000e+00 -1.00588380e-08  4.36199493e-08  1.28316433e-06
  0.00000000e+00  0.00000000e+00  0.00000000e+00  5.02882412e-08
  0.00000000e+00  0.00000000e+00  0.00000000e+00  0.00000000e+00
  0.00000000e+00  0.00000000e+00  0.00000000e+00  0.00000000e+00
  0.00000000e+00  0.00000000e+00  0.00000000e+00  0.00000000e+00
  0.00000000e+00  0.00000000e+00  0.00000000e+00  0.00000000e+00
  0.00000000e+00  0.00000000e+00 -1.00588380e-08  5.02882412e-08
  0.00000000e+00  0.00000000e+00  0.00000000e+00  1.35409361e-06]","[[-0.00229023  0.00083126]
 [-0.00226054 -0.00108663]]",[],0.0,0.0
1787136552.0468209,1.585938277289951,-1.511351250641404,0.8161164808225587,"[ 1.20859120e-06  4.36199493e-08  0.00000000e+00  0.00000000e+00
  0.00000000e+00 -1.00588380e-08  4.36199493e-08  1.28316433e-06
  0.00000000e+00  0.00000000e+00  0.00000000e+00  5.02882412e-08
  0.00000000e+00  0.00000000e+00  0.00000000e+00  0.00000000e+00
  0.00000000e+00  0.00000000e+00  0.00000000e+00  0.00000000e+00
  0.00000000e+00  0.00000000e+00  0.00000000e+00  0.00000000e+00
  0.00000000e+00  0.00000000e+00  0.00000000e+00  0.00000000e+00
  0.00000000e+00  0.00000000e+00 -1.00588380e-08  5.02882412e-08
  0.00000000e+00  0.00000000e+00  0.00000000e+00  1.35409361e-06]","[[-0.00229023  0.00083126]
 [-0.00226054 -0.00108663]]",[],0.0,0.0
1787136552.1021879,1.585938277289951,-1.511351250641404,0.8161164808225587,"[ 1.20859120e-06  4.36199493e-08  0.00000000e+00  0.00000000e+00
  0.00000000e+00 -1.00588380e-08  4.36199493e-08  1.28316433e-06
  0.00000000e+00  0.00000000e+00  0.00000000e+00  5.02882412e-08
  0.00000000e+00  0.00000000e+00  0.00000000e+00  0.00000000e+00
  0.00000000e+00  0.00000000e+00  0.00000000e+00  0.00000000e+00
  0.00000000e+00  0.00000000e+00  0.00000000e+00  0.00000000e+00
  0.00000000e+00  0.00000000e+00  0.00000000e+00  0.00000000e+00
  0.00000000e+00  0.00000000e+00 -1.00588380e-08  5.02882412e-08
  0.00000000e+00  0.00000000e+00  0.00000000e+00  1.35409361e-06]","[[-0.00229023  0.00083126]
 [-0.00226054 -0.00108663]]",[],0.0,0.0
1787136552.1539547,1.5779452805902658,-1.504872081289547,0.8204026589632548,"[ 9.23568539e-07  5.66164810e-08  0.00000000e+00  0.00000000e+00
  0.00000000e+00 -2.61862144e-10  5.66164810e-08  9.77248571e-07
  0.00000000e+00  0.00000000e+00  0.00000000e+00  4.42900870e-08
  0.00000000e+00  0.00000000e+00  0.00000000e+00  0.00000000e+00
  0.00000000e+00  0.00000000e+00  0.00000000e+00  0.00000000e+00
  0.00000000e+00  0.00000000e+00  0.00000000e+00  0.00000000e+00
  0.00000000e+00  0.00000000e+00  0.00000000e+00  0.00000000e+00
  0.00000000e+00  0.00000000e+00 -2.61862144e-10  4.42900870e-08
  0.00000000e+00  0.00000000e+00  0.00000000e+00  1.34818216e-06]","[[-0.00166925  0.00066044]
 [-0.00189204 -0.00078465]]",[],0.0,0.0
1787136552.1970768,1.5779452805902658,-1.504872081289547,0.8204026589632548,"[ 9.23568539e-07  5.66164810e-08  0.00000000e+00  0.00000000e+00
  0.00000000e+00 -2.61862144e-10  5.66164810e-08  9.77248571e-07
  0.00000000e+00  0.00000000e+00  0.00000000e+00  4.42900870e-08
  0.00000000e+00  0.00000000e+00  0.00000000e+00  0.00000000e+00
  0.00000000e+00  0.00000000e+00  0.00000000e+00  0.00000000e+00
  0.00000000e+00  0.00000000e+00  0.00000000e+00  0.00000000e+00
  0.00000000e+00  0.00000000e+00  0.00000000e+00  0.00000000e+00
  0.00000000e+00  0.00000000e+00 -2.61862144e-10  4.42900870e-08
  0.00000000e+00  0.00000000e+00  0.00000000e+00  1.34818216e-06]","[[-0.00166925  0.00066044]
 [-0.00189204 -0.00078465]]",[],0.0,0.0
1787136552.2492633,1.5779452805902658,-1.504872081289547,0.8204026589632548,"[ 9.23568539e-07  5.66164810e-08  0.00000000e+00  0.00000000e+00
  0.00000000e+00 -2.61862144e-10  5.66164810e-08  9.77248571e-07
  0.00000000e+00  0.00000000e+00  0.00000000e+00  4.42900870e-08
  0.00000000e+00  0.00000000e+00  0.00000000e+00  0.00000000e+00
  0.00000000e+00  0.00000000e+00  0.00000000e+00  0.00000000e+00
  0.00000000e+00  0.00000000e+00  0.00000000e+00  0.00000000e+00
  0.00000000e+00  0.00000000e+00  0.00000000e+00  0.00000000e+00
  0.00000000e+00  0.00000000e+00 -2.61862144e-10  4.42900870e-08
  0.00000000e+00  0.00000000e+00  0.00000000e+00  1.34818216e-06]","[[-0.00166925  0.00066044]
 [-0.00189204 -0.00078465]]",[],0.0,0.0
1787136552.2973099,1.5779452805902658,-1.504872081289547,0.8204026589632548,"[ 9.23568539e-07  5.66164810e-08  0.00000000e+00  0.00000000e+00
  0.00000000e+00 -2.61862144e-10  5.66164810e-08  9.77248571e-07
  0.00000000e+00  0.00000000e+00  0.00000000e+00  4.42900870e-08
  0.00000000e+00  0.00000000e+00  0.00000000e+00  0.00000000e+00
  0.00000000e+00  0.00000000e+00  0.00000000e+00  0.00000000e+00
  0.00000000e+00  0.00000000e+00  0.00000000e+00  0.00000000e+00
  0.00000000e+00  0.00000000e+00  0.00000000e+00  0.00000000e+00
  0.00000000e+00  0.00000000e+00 -2.61862144e-10  4.42900870e-08
  0.00000000e+00  0.00000000e+00  0.00000000e+00  1.34818216e-06]","[[-0.00166925  0.00066044]
 [-0.00189204 -0.00078465]]",[],0.0,0.0
1787136552.346941,1.5779452805902658,-1.504872081289547,0.8204026589632548,"[ 9.23568539e-07  5.66164810e-08  0.00000000e+00  0.00000000e+00
  0.00000000e+00 -2.61862144e-10  5.66164810e-08  9.77248571e-07
  0.00000000e+00  0.00000000e+00  0.00000000e+00  4.42900870e-08
  0.00000000e+00  0.00000000e+00  0.00000000e+00  0.00000000e+00
  0.00000000e+00  0.00000000e+00  0.00000000e+00  0.00000000e+00
  0.00000000e+00  0.00000000e+00  0.00000000e+00  0.00000000e+00
  0.00000000e+00  0.00000000e+00  0.00000000e+00  0.00000000e+00
  0.00000000e+00  0.00000000e+00 -2.61862144e-10  4.42900870e-08
  0.00000000e+00  0.00000000e+00  0.00000000e+00  1.34818216e-06]","[[-0.00166925  0.00066044]
 [-0.00189204 -0.00078465]]",[],0.0,0.0
1787136552.3986802,1.5779452805902658,-1.504872081289547,0.8204026589632548,"[ 9.23568539e-07  5.66164810e-08  0.00000000e+00  0.00000000e+00
  0.00000000e+00 -2.61862144e-10  5.66164810e-08  9.77248571e-07
  0.00000000e+00  0.00000000e+00  0.00000000e+00  4.42900870e-08
  0.00000000e+00  0.00000000e+00  0.00000000e+00  0.00000000e+00
  0.00000000e+00  0.00000000e+00  0.00000000e+00  0.00000000e+00
  0.00000000e+00  0.00000000e+00  0.00000000e+00  0.00000000e+00
  0.00000000e+00  0.00000000e+00  0.00000000e+00  0.00000000e+00
  0.00000000e+00  0.00000000e+00 -2.61862144e-10  4.42900870e-08
  0.00000000e+00  0.00000000e+00  0.00000000e+00  1.34818216e-06]","[[-0.00166925  0.00066044]
 [-0.00189204 -0.00078465]]",[],0.0,0.0
1787136552.4515364,1.5779452805902658,-1.504872081289547,0.8204026589632548,"[ 9.23568539e-07  5.66164810e-08  0.00000000e+00  0.00000000e+00
  0.00000000e+00 -2.61862144e-10  5.66164810e-08  9.77248571e-07
  0.00000000e+00  0.00000000e+00  0.00000000e+00  4.42900870e-08
  0.00000000e+00  0.00000000e+00  0.00000000e+00  0.00000000e+00
  0.00000000e+00  0.00000000e+00  0.00000000e+00  0.00000000e+00
  0.00000000e+00  0.00000000e+00  0.00000000e+00  0.00000000e+00
  0.00000000e+00  0.00000000e+00  0.00000000e+00  0.00000000e+00
  0.00000000e+00  0.00000000e+00 -2.61862144e-10  4.42900870e-08
  0.00000000e+00  0.00000000e+00  0.00000000e+00  1.34818216e-06]","[[-0.00166925  0.00066044]
 [-0.00189204 -0.00078465]]",[],0.0,0.0
1787136552.4969952,1.5779452805902658,-1.504872081289547,0.8204026589632548,"[ 9.23568539e-07  5.66164810e-08  0.00000000e+00  0.00000000e+00
  0.00000000e+00 -2.61862144e-10  5.66164810e-08  9.77248571e-07
  0.00000000e+00  0.00000000e+00  0.00000000e+00  4.42900870e-08
  0.00000000e+00  0.00000000e+00  0.00000000e+00  0.00000000e+00
  0.00000000e+00  0.00000000e+00  0.00000000e+00  0.00000000e+00
  0.00000000e+00  0.00000000e+00  0.00000000e+00  0.00000000e+00
  0.00000000e+00  0.00000000e+00  0.00000000e+00  0.00000000e+00
  0.00000000e+00  0.00000000e+00 -2.61862144e-10  4.42900870e-08
  0.00000000e+00  0.00000000e+00  0.00000000e+00  1.34818216e-06]","[[-0.00166925  0.00066044]
 [-0.00189204 -0.00078465]]",[],0.0,0.0
1787136552.548092,1.5779452805902658,-1.504872081289547,0.8204026589632548,"[ 9.23568539e-07  5.66164810e-08  0.00000000e+00  0.00000000e+00
  0.00000000e+00 -2.61862144e-10  5.66164810e-08  9.77248571e-07
  0.00000000e+00  0.00000000e+00  0.00000000e+00  4.42900870e-08
  0.00000000e+00  0.00000000e+00  0.00000000e+00  0.00000000e+00
  0.00000000e+00  0.00000000e+00  0.00000000e+00  0.00000000e+00
  0.00000000e+00  0.00000000e+00  0.00000000e+00  0.00000000e+00
  0.00000000e+00  0.00000000e+00  0.00000000e+00  0.00000000e+00
  0.00000000e+00  0.00000000e+00 -2.61862144e-10  4.42900870e-08
  0.00000000e+00  0.00000000e+00  0.00000000e+00  1.34818216e-06]","[[-0.00166925  0.00066044]
 [-0.00189204 -0.00078465]]",[],0.0,0.0
1787136552.6114395,1.5779452805902658,-1.504872081289547,0.8204026589632548,"[ 9.23568539e-07  5.66164810e-08  0.00000000e+00  0.00000000e+00
  0.00000000e+00 -2.61862144e-10  5.66164810e-08  9.77248571e-07
  0.00000000e+00  0.00000000e+00  0.00000000e+00  4.42900870e-08
  0.00000000e+00  0.00000000e+00  0.00000000e+00  0.00000000e+00
  0.00000000e+00  0.00000000e+00  0.00000000e+00  0.00000000e+00
  0.00000000e+00  0.00000000e+00  0.00000000e+00  0.00000000e+00
  0.00000000e+00  0.00000000e+00  0.00000000e+00  0.00000000e+00
  0.00000000e+00  0.00000000e+00 -2.61862144e-10  4.42900870e-08
  0.00000000e+00  0.00000000e+00  0.00000000e+00  1.34818216e-06]","[[-0.00166925  0.00066044]
 [-0.00189204 -0.00078465]]",[],0.0,0.0
1787136552.6483054,1.5779452805902658,-1.504872081289547,0.8204026589632548,"[ 9.23568539e-07  5.66164810e-08  0.00000000e+00  0.00000000e+00
  0.00000000e+00 -2.61862144e-10  5.66164810e-08  9.77248571e-07
  0.00000000e+00  0.00000000e+00  0.00000000e+00  4.42900870e-08
  0.00000000e+00  0.00000000e+00  0.00000000e+00  0.00000000e+00
  0.00000000e+00  0.00000000e+00  0.00000000e+00  0.00000000e+00
  0.00000000e+00  0.00000000e+00  0.00000000e+00  0.00000000e+00
  0.00000000e+00  0.00000000e+00  0.00000000e+00  0.00000000e+00
  0.00000000e+00  0.00000000e+00 -2.61862144e-10  4.42900870e-08
  0.00000000e+00  0.00000000e+00  0.00000000e+00  1.34818216e-06]","[[-0.00166925  0.00066044]
 [-0.00189204 -0.00078465]]",[],0.0,0.0
1787136552.704797,1.5724002026282675,-1.4971659449965755,0.8203091070988237,"[ 7.65289214e-07  6.87132908e-08  0.00000000e+00  0.00000000e+00
  0.00000000e+00 -1.42534455e-09  6.87132908e-08  8.04876709e-07
  0.00000000e+00  0.00000000e+00  0.00000000e+00  3.28697264e-08
  0.00000000e+00  0.00000000e+00  0.00000000e+00  0.00000000e+00
  0.00000000e+00  0.00000000e+00  0.00000000e+00  0.00000000e+00
  0.00000000e+00  0.00000000e+00  0.00000000e+00  0.00000000e+00
  0.00000000e+00  0.00000000e+00  0.00000000e+00  0.00000000e+00
  0.00000000e+00  0.00000000e+00 -1.42534455e-09  3.28697264e-08
  0.00000000e+00  0.00000000e+00  0.00000000e+00  1.38216096e-06]","[[-0.00153012  0.00047454]
 [-0.00148197 -0.00066298]]",[],0.0,0.0
1787136552.752462,1.5724002026282675,-1.4971659449965755,0.8203091070988237,"[ 7.65289214e-07  6.87132908e-08  0.00000000e+00  0.00000000e+00
  0.00000000e+00 -1.42534455e-09  6.87132908e-08  8.04876709e-07
  0.00000000e+00  0.00000000e+00  0.00000000e+00  3.28697264e-08
  0.00000000e+00  0.00000000e+00  0.00000000e+00  0.00000000e+00
  0.00000000e+00  0.00000000e+00  0.00000000e+00  0.00000000e+00
  0.00000000e+00  0.00000000e+00  0.00000000e+00  0.00000000e+00
  0.00000000e+00  0.00000000e+00  0.00000000e+00  0.00000000e+00
  0.00000000e+00  0.00000000e+00 -1.42534455e-09  3.28697264e-08
  0.00000000e+00  0.00000000e+00  0.00000000e+00  1.38216096e-06]","[[-0.00153012  0.00047454]
 [-0.00148197 -0.00066298]]",[],0.0,0.0
1787136552.7971494,1.5724002026282675,-1.4971659449965755,0.8203091070988237,"[ 7.65289214e-07  6.87132908e-08  0.00000000e+00  0.00000000e+00
  0.00000000e+00 -1.42534455e-09  6.87132908e-08  8.04876709e-07
  0.00000000e+00  0.00000000e+00  0.00000000e+00  3.28697264e-08
  0.00000000e+00  0.00000000e+00  0.00000000e+00  0.00000000e+00
  0.00000000e+00  0.00000000e+00  0.00000000e+00  0.00000000e+00
  0.00000000e+00  0.00000000e+00  0.00000000e+00  0.00000000e+00
  0.00000000e+00  0.00000000e+00  0.00000000e+00  0.00000000e+00
  0.00000000e+00  0.00000000e+00 -1.42534455e-09  3.28697264e-08
  0.00000000e+00  0.00000000e+00  0.00000000e+00  1.38216096e-06]","[[-0.00153012  0.00047454]
 [-0.00148197 -0.00066298]]",[],0.0,0.0
1787136552.8550553,1.5724002026282675,-1.4971659449965755,0.8203091070988237,"[ 7.65289214e-07  6.87132908e-08  0.00000000e+00  0.00000000e+00
  0.00000000e+00 -1.42534455e-09  6.87132908e-08  8.04876709e-07
  0.00000000e+00  0.00000000e+00  0.00000000e+00  3.28697264e-08
  0.00000000e+00  0.00000000e+00  0.00000000e+00  0.00000000e+00
  0.00000000e+00  0.00000000e+00  0.00000000e+00  0.00000000e+00
  0.00000000e+00  0.00000000e+00  0.00000000e+00  0.00000000e+00
  0.00000000e+00  0.00000000e+00  0.00000000e+00  0.00000000e+00
  0.00000000e+00  0.00000000e+00 -1.42534455e-09  3.28697264e-08
  0.00000000e+00  0.00000000e+00  0.00000000e+00  1.38216096e-06]","[[-0.00153012  0.00047454]
 [-0.00148197 -0.00066298]]",[],0.0,0.0
1787136552.8969007,1.5724002026282675,-1.4971659449965755,0.8203091070988237,"[ 7.65289214e-07  6.87132908e-08  0.00000000e+00  0.00000000e+00
  0.00000000e+00 -1.42534455e-09  6.87132908e-08  8.04876709e-07
  0.00000000e+00  0.00000000e+00  0.00000000e+00  3.28697264e-08
  0.00000000e+00  0.00000000e+00  0.00000000e+00  0.00000000e+00
  0.00000000e+00  0.00000000e+00  0.00000000e+00  0.00000000e+00
  0.00000000e+00  0.00000000e+00  0.00000000e+00  0.00000000e+00
  0.00000000e+00  0.00000000e+00  0.00000000e+00  0.00000000e+00
  0.00000000e+00  0.00000000e+00 -1.42534455e-09  3.28697264e-08
  0.00000000e+00  0.00000000e+00  0.00000000e+00  1.38216096e-06]","[[-0.00153012  0.00047454]
 [-0.00148197 -0.00066298]]",[],0.0,0.0
1787136552.9511576,1.5724002026282675,-1.4971659449965755,0.8203091070988237,"[ 7.65289214e-07  6.87132908e-08  0.00000000e+00  0.00000000e+00
  0.00000000e+00 -1.42534455e-09  6.87132908e-08  8.04876709e-07
  0.00000000e+00  0.00000000e+00  0.00000000e+00  3.28697264e-08
  0.00000000e+00  0.00000000e+00  0.00000000e+00  0.00000000e+00
  0.00000000e+00  0.00000000e+00  0.00000000e+00  0.00000000e+00
  0.00000000e+00  0.00000000e+00  0.00000000e+00  0.00000000e+00
  0.00000000e+00  0.00000000e+00  0.00000000e+00  0.00000000e+00
  0.00000000e+00  0.00000000e+00 -1.42534455e-09  3.28697264e-08
  0.00000000e+00  0.00000000e+00  0.00000000e+00  1.38216096e-06]","[[-0.00153012  0.00047454]
 [-0.00148197 -0.00066298]]",[],0.0,0.0
1787136553.00034,1.5724002026282675,-1.4971659449965755,0.8203091070988237,"[ 7.65289214e-07  6.87132908e-08  0.00000000e+00  0.00000000e+00
  0.00000000e+00 -1.42534455e-09  6.87132908e-08  8.04876709e-07
  0.00000000e+00  0.00000000e+00  0.00000000e+00  3.28697264e-08
  0.00000000e+00  0.00000000e+00  0.00000000e+00  0.00000000e+00
  0.00000000e+00  0.00000000e+00  0.00000000e+00  0.00000000e+00
  0.00000000e+00  0.00000000e+00  0.00000000e+00  0.00000000e+00
  0.00000000e+00  0.00000000e+00  0.00000000e+00  0.00000000e+00
  0.00000000e+00  0.00000000e+00 -1.42534455e-09  3.28697264e-08
  0.00000000e+00  0.00000000e+00  0.00000000e+00  1.38216096e-06]","[[-0.00153012  0.00047454]
 [-0.00148197 -0.00066298]]",[],0.0,0.0
1787136553.0477147,1.5724002026282675,-1.4971659449965755,0.8203091070988237,"[ 7.65289214e-07  6.87132908e-08  0.00000000e+00  0.00000000e+00
  0.00000000e+00 -1.42534455e-09  6.87132908e-08  8.04876709e-07
  0.00000000e+00  0.00000000e+00  0.00000000e+00  3.28697264e-08
  0.00000000e+00  0.00000000e+00  0.00000000e+00  0.00000000e+00
  0.00000000e+00  0.00000000e+00  0.00000000e+00  0.00000000e+00
  0.00000000e+00  0.00000000e+00  0.00000000e+00  0.00000000e+00
  0.00000000e+00  0.00000000e+00  0.00000000e+00  0.00000000e+00
  0.00000000e+00  0.00000000e+00 -1.42534455e-09  3.28697264e-08
  0.00000000e+00  0.00000000e+00  0.00000000e+00  1.38216096e-06]","[[-0.00153012  0.00047454]
 [-0.00148197 -0.00066298]]",[],0.0,0.0
1787136553.1014032,1.5724002026282675,-1.4971659449965755,0.8203091070988237,"[ 7.65289214e-07  6.87132908e-08  0.00000000e+00  0.00000000e+00
  0.00000000e+00 -1.42534455e-09  6.87132908e-08  8.04876709e-07
  0.00000000e+00  0.00000000e+00  0.00000000e+00  3.28697264e-08
  0.00000000e+00  0.00000000e+00  0.00000000e+00  0.00000000e+00
  0.00000000e+00  0.00000000e+00  0.00000000e+00  0.00000000e+00
  0.00000000e+00  0.00000000e+00  0.00000000e+00  0.00000000e+00
  0.00000000e+00  0.00000000e+00  0.00000000e+00  0.00000000e+00
  0.00000000e+00  0.00000000e+00 -1.42534455e-09  3.28697264e-08
  0.00000000e+00  0.00000000e+00  0.00000000e+00  1.38216096e-06]","[[-0.00153012  0.00047454]
 [-0.00148197 -0.00066298]]",[],0.0,0.0
1787136553.1467824,1.5724002026282675,-1.4971659449965755,0.8203091070988237,"[ 7.65289214e-07  6.87132908e-08  0.00000000e+00  0.00000000e+00
  0.00000000e+00 -1.42534455e-09  6.87132908e-08  8.04876709e-07
  0.00000000e+00  0.00000000e+00  0.00000000e+00  3.28697264e-08
  0.00000000e+00  0.00000000e+00  0.00000000e+00  0.00000000e+00
  0.00000000e+00  0.00000000e+00  0.00000000e+00  0.00000000e+00
  0.00000000e+00  0.00000000e+00  0.00000000e+00  0.00000000e+00
  0.00000000e+00  0.00000000e+00  0.00000000e+00  0.00000000e+00
  0.00000000e+00  0.00000000e+00 -1.42534455e-09  3.28697264e-08
  0.00000000e+00  0.00000000e+00  0.00000000e+00  1.38216096e-06]","[[-0.00153012  0.00047454]
 [-0.00148197 -0.00066298]]",[],0.0,0.0
1787136553.1975539,1.5697161059171554,-1.49209313640839,0.8238519548485046,"[6.63073434e-07 7.80468182e-08 0.00000000e+00 0.00000000e+00
 0.00000000e+00 2.70747524e-09 7.80468182e-08 6.92243601e-07
 0.00000000e+00 0.00000000e+00 0.00000000e+00 2.67660335e-08
 0.00000000e+00 0.00000000e+00 0.00000000e+00 0.00000000e+00
 0.00000000e+00 0.00000000e+00 0.00000000e+00 0.00000000e+00
 0.00000000e+00 0.00000000e+00 0.00000000e+00 0.00000000e+00
 0.00000000e+00 0.00000000e+00 0.00000000e+00 0.00000000e+00
 0.00000000e+00 0.00000000e+00 2.70747524e-09 2.67660335e-08
 0.00000000e+00 0.00000000e+00 0.00000000e+00 1.38178479e-06]","[[-0.00127382  0.0004355 ]
 [-0.0013982  -0.00051567]]",[],0.0,0.0
1787136553.247072,1.5697161059171554,-1.49209313640839,0.8238519548485046,"[6.63073434e-07 7.80468182e-08 0.00000000e+00 0.00000000e+00
 0.00000000e+00 2.70747524e-09 7.80468182e-08 6.92243601e-07
 0.00000000e+00 0.00000000e+00 0.00000000e+00 2.67660335e-08
 0.00000000e+00 0.00000000e+00 0.00000000e+00 0.00000000e+00
 0.00000000e+00 0.00000000e+00 0.00000000e+00 0.00000000e+00
 0.00000000e+00 0.00000000e+00 0.00000000e+00 0.00000000e+00
 0.00000000e+00 0.00000000e+00 0.00000000e+00 0.00000000e+00
 0.00000000e+00 0.00000000e+00 2.70747524e-09 2.67660335e-08
 0.00000000e+00 0.00000000e+00 0.00000000e+00 1.38178479e-06]","[[-0.00127382  0.0004355 ]
 [-0.0013982  -0.00051567]]",[],0.0,0.0
1787136553.2968085,1.5697161059171554,-1.49209313640839,0.8238519548485046,"[6.63073434e-07 7.80468182e-08 0.00000000e+00 0.00000000e+00
 0.00000000e+00 2.70747524e-09 7.80468182e-08 6.92243601e-07
 0.00000000e+00 0.00000000e+00 0.00000000e+00 2.67660335e-08
 0.00000000e+00 0.00000000e+00 0.00000000e+00 0.00000000e+00
 0.00000000e+00 0.00000000e+00 0.00000000e+00 0.00000000e+00
 0.00000000e+00 0.00000000e+00 0.00000000e+00 0.00000000e+00
 0.00000000e+00 0.00000000e+00 0.00000000e+00 0.00000000e+00
 0.00000000e+00 0.00000000e+00 2.70747524e-09 2.67660335e-08
 0.00000000e+00 0.00000000e+00 0.00000000e+00 1.38178479e-06]","[[-0.00127382  0.0004355 ]
 [-0.0013982  -0.00051567]]",[],0.0,0.0
1787136553.3544576,1.5697161059171554,-1.49209313640839,0.8238519548485046,"[6.63073434e-07 7.80468182e-08 0.00000000e+00 0.00000000e+00
 0.00000000e+00 2.70747524e-09 7.80468182e-08 6.92243601e-07
 0.00000000e+00 0.00000000e+00 0.00000000e+00 2.67660335e-08
 0.00000000e+00 0.00000000e+00 0.00000000e+00 0.00000000e+00
 0.00000000e+00 0.00000000e+00 0.00000000e+00 0.00000000e+00
 0.00000000e+00 0.00000000e+00 0.00000000e+00 0.00000000e+00
 0.00000000e+00 0.00000000e+00 0.00000000e+00 0.00000000e+00
 0.00000000e+00 0.00000000e+00 2.70747524e-09 2.67660335e-08
 0.00000000e+00 0.00000000e+00 0.00000000e+00 1.38178479e-06]","[[-0.00127382  0.0004355 ]
 [-0.0013982  -0.00051567]]",[],0.0,0.0
1787136553.3972034,1.5697161059171554,-1.49209313640839,0.8238519548485046,"[6.63073434e-07 7.80468182e-08 0.00000000e+00 0.00000000e+00
 0.00000000e+00 2.70747524e-09 7.80468182e-08 6.92243601e-07
 0.00000000e+00 0.00000000e+00 0.00000000e+00 2.67660335e-08
 0.00000000e+00 0.00000000e+00 0.00000000e+00 0.00000000e+00
 0.00000000e+00 0.00000000e+00 0.00000000e+00 0.00000000e+00
 0.00000000e+00 0.00000000e+00 0.00000000e+00 0.00000000e+00
 0.00000000e+00 0.00000000e+00 0.00000000e+00 0.00000000e+00
 0.00000000e+00 0.00000000e+00 2.70747524e-09 2.67660335e-08
 0.00000000e+00 0.00000000e+00 0.00000000e+00 1.38178479e-06]","[[-0.00127382  0.0004355 ]
 [-0.0013982  -0.00051567]]",[],0.0,0.0
1787136553.449711,1.5697161059171554,-1.49209313640839,0.8238519548485046,"[6.63073434e-07 7.80468182e-08 0.00000000e+00 0.00000000e+00
 0.00000000e+00 2.70747524e-09 7.80468182e-08 6.92243601e-07
 0.00000000e+00 0.00000000e+00 0.00000000e+00 2.67660335e-08
 0.00000000e+00 0.00000000e+00 0.00000000e+00 0.00000000e+00
 0.00000000e+00 0.00000000e+00 0.00000000e+00 0.00000000e+00
 0.00000000e+00 0.00000000e+00 0.00000000e+00 0.00000000e+00
 0.00000000e+00 0.00000000e+00 0.00000000e+00 0.00000000e+00
 0.00000000e+00 0.00000000e+00 2.70747524e-09 2.67660335e-08
 0.00000000e+00 0.00000000e+00 0.00000000e+00 1.38178479e-06]","[[-0.00127382  0.0004355 ]
 [-0.0013982  -0.00051567]]",[],0.0,0.0
1787136553.4967875,1.5697161059171554,-1.49209313640839,0.8238519548485046,"[6.63073434e-07 7.80468182e-08 0.00000000e+00 0.00000000e+00
 0.00000000e+00 2.70747524e-09 7.80468182e-08 6.92243601e-07
 0.00000000e+00 0.00000000e+00 0.00000000e+00 2.67660335e-08
 0.00000000e+00 0.00000000e+00 0.00000000e+00 0.00000000e+00
 0.00000000e+00 0.00000000e+00 0.00000000e+00 0.00000000e+00
 0.00000000e+00 0.00000000e+00 0.00000000e+00 0.00000000e+00
 0.00000000e+00 0.00000000e+00 0.00000000e+00 0.00000000e+00
 0.00000000e+00 0.00000000e+00 2.70747524e-09 2.67660335e-08
 0.00000000e+00 0.00000000e+00 0.00000000e+00 1.38178479e-06]","[[-0.00127382  0.0004355 ]
 [-0.0013982  -0.00051567]]",[],0.0,0.0
1787136553.557866,1.5697161059171554,-1.49209313640839,0.8238519548485046,"[6.63073434e-07 7.80468182e-08 0.00000000e+00 0.00000000e+00
 0.00000000e+00 2.70747524e-09 7.80468182e-08 6.92243601e-07
 0.00000000e+00 0.00000000e+00 0.00000000e+00 2.67660335e-08
 0.00000000e+00 0.00000000e+00 0.00000000e+00 0.00000000e+00
 0.00000000e+00 0.00000000e+00 0.00000000e+00 0.00000000e+00
 0.00000000e+00 0.00000000e+00 0.00000000e+00 0.00000000e+00
 0.00000000e+00 0.00000000e+00 0.00000000e+00 0.00000000e+00
 0.00000000e+00 0.00000000e+00 2.70747524e-09 2.67660335e-08
 0.00000000e+00 0.00000000e+00 0.00000000e+00 1.38178479e-06]","[[-0.00127382  0.0004355 ]
 [-0.0013982  -0.00051567]]",[],0.0,0.0
1787136553.597755,1.5697161059171554,-1.49209313640839,0.8238519548485046,"[6.63073434e-07 7.80468182e-08 0.00000000e+00 0.00000000e+00
 0.00000000e+00 2.70747524e-09 7.80468182e-08 6.92243601e-07
 0.00000000e+00 0.00000000e+00 0.00000000e+00 2.67660335e-08
 0.00000000e+00 0.00000000e+00 0.00000000e+00 0.00000000e+00
 0.00000000e+00 0.00000000e+00 0.00000000e+00 0.00000000e+00
 0.00000000e+00 0.00000000e+00 0.00000000e+00 0.00000000e+00
 0.00000000e+00 0.00000000e+00 0.00000000e+00 0.00000000e+00
 0.00000000e+00 0.00000000e+00 2.70747524e-09 2.67660335e-08
 0.00000000e+00 0.00000000e+00 0.00000000e+00 1.38178479e-06]","[[-0.00127382  0.0004355 ]
 [-0.0013982  -0.00051567]]",[],0.0,0.0
1787136553.652664,1.5697161059171554,-1.49209313640839,0.8238519548485046,"[6.63073434e-07 7.80468182e-08 0.00000000e+00 0.00000000e+00
 0.00000000e+00 2.70747524e-09 7.80468182e-08 6.92243601e-07
 0.00000000e+00 0.00000000e+00 0.00000000e+00 2.67660335e-08
 0.00000000e+00 0.00000000e+00 0.00000000e+00 0.00000000e+00
 0.00000000e+00 0.00000000e+00 0.00000000e+00 0.00000000e+00
 0.00000000e+00 0.00000000e+00 0.00000000e+00 0.00000000e+00
 0.00000000e+00 0.00000000e+00 0.00000000e+00 0.00000000e+00
 0.00000000e+00 0.00000000e+00 2.70747524e-09 2.67660335e-08
 0.00000000e+00 0.00000000e+00 0.00000000e+00 1.38178479e-06]","[[-0.00127382  0.0004355 ]
 [-0.0013982  -0.00051567]]",[],0.0,0.0
1787136553.6978562,1.5697161059171554,-1.49209313640839,0.8238519548485046,"[6.63073434e-07 7.80468182e-08 0.00000000e+00 0.00000000e+00
 0.00000000e+00 2.70747524e-09 7.80468182e-08 6.92243601e-07
 0.00000000e+00 0.00000000e+00 0.00000000e+00 2.67660335e-08
 0.00000000e+00 0.00000000e+00 0.00000000e+00 0.00000000e+00
 0.00000000e+00 0.00000000e+00 0.00000000e+00 0.00000000e+00
 0.00000000e+00 0.00000000e+00 0.00000000e+00 0.00000000e+00
 0.00000000e+00 0.00000000e+00 0.00000000e+00 0.00000000e+00
 0.00000000e+00 0.00000000e+00 2.70747524e-09 2.67660335e-08
 0.00000000e+00 0.00000000e+00 0.00000000e+00 1.38178479e-06]","[[-0.00127382  0.0004355 ]
 [-0.0013982  -0.00051567]]",[],0.0,0.0
1787136553.7514389,1.5697161059171554,-1.49209313640839,0.8238519548485046,"[6.63073434e-07 7.80468182e-08 0.00000000e+00 0.00000000e+00
 0.00000000e+00 2.70747524e-09 7.80468182e-08 6.92243601e-07
 0.00000000e+00 0.00000000e+00 0.00000000e+00 2.67660335e-08
 0.00000000e+00 0.00000000e+00 0.00000000e+00 0.00000000e+00
 0.00000000e+00 0.00000000e+00 0.00000000e+00 0.00000000e+00
 0.00000000e+00 0.00000000e+00 0.00000000e+00 0.00000000e+00
 0.00000000e+00 0.00000000e+00 0.00000000e+00 0.00000000e+00
 0.00000000e+00 0.00000000e+00 2.70747524e-09 2.67660335e-08
 0.00000000e+00 0.00000000e+00 0.00000000e+00 1.38178479e-06]","[[-0.00127382  0.0004355 ]
 [-0.0013982  -0.00051567]]",[],0.0,0.0
1787136553.8086066,1.5697161059171554,-1.49209313640839,0.8238519548485046,"[6.63073434e-07 7.80468182e-08 0.00000000e+00 0.00000000e+00
 0.00000000e+00 2.70747524e-09 7.80468182e-08 6.92243601e-07
 0.00000000e+00 0.00000000e+00 0.00000000e+00 2.67660335e-08
 0.00000000e+00 0.00000000e+00 0.00000000e+00 0.00000000e+00
 0.00000000e+00 0.00000000e+00 0.00000000e+00 0.00000000e+00
 0.00000000e+00 0.00000000e+00 0.00000000e+00 0.00000000e+00
 0.00000000e+00 0.00000000e+00 0.00000000e+00 0.00000000e+00
 0.00000000e+00 0.00000000e+00 2.70747524e-09 2.67660335e-08
 0.00000000e+00 0.00000000e+00 0.00000000e+00 1.38178479e-06]","[[-0.00127382  0.0004355 ]
 [-0.0013982  -0.00051567]]",[],0.0,0.0
1787136553.8486161,1.5645603237388195,-1.4889963648616709,0.8256524090140099,"[6.04531406e-07 1.07064868e-07 0.00000000e+00 0.00000000e+00
 0.00000000e+00 3.69714686e-09 1.07064868e-07 6.34611025e-07
 0.00000000e+00 0.00000000e+00 0.00000000e+00 3.45042676e-08
 0.00000000e+00 0.00000000e+00 0.00000000e+00 0.00000000e+00
 0.00000000e+00 0.00000000e+00 0.00000000e+00 0.00000000e+00
 0.00000000e+00 0.00000000e+00 0.00000000e+00 0.00000000e+00
 0.00000000e+00 0.00000000e+00 0.00000000e+00 0.00000000e+00
 0.00000000e+00 0.00000000e+00 3.69714686e-09 3.45042676e-08
 0.00000000e+00 0.00000000e+00 0.00000000e+00 1.41785928e-06]","[[-0.00122854  0.00036714]
 [-0.00134087 -0.00047987]]",[],0.0,0.0
1787136553.8991916,1.5645603237388195,-1.4889963648616709,0.8256524090140099,"[6.04531406e-07 1.07064868e-07 0.00000000e+00 0.00000000e+00
 0.00000000e+00 3.69714686e-09 1.07064868e-07 6.34611025e-07
 0.00000000e+00 0.00000000e+00 0.00000000e+00 3.45042676e-08
 0.00000000e+00 0.00000000e+00 0.00000000e+00 0.00000000e+00
 0.00000000e+00 0.00000000e+00 0.00000000e+00 0.00000000e+00
 0.00000000e+00 0.00000000e+00 0.00000000e+00 0.00000000e+00
 0.00000000e+00 0.00000000e+00 0.00000000e+00 0.00000000e+00
 0.00000000e+00 0.00000000e+00 3.69714686e-09 3.45042676e-08
 0.00000000e+00 0.00000000e+00 0.00000000e+00 1.41785928e-06]","[[-0.00122854  0.00036714]
 [-0.00134087 -0.00047987]]",[],0.0,0.0
1787136553.9469678,1.5645603237388195,-1.4889963648616709,0.8256524090140099,"[6.04531406e-07 1.07064868e-07 0.00000000e+00 0.00000000e+00
 0.00000000e+00 3.69714686e-09 1.07064868e-07 6.34611025e-07
 0.00000000e+00 0.00000000e+00 0.00000000e+00 3.45042676e-08
 0.00000000e+00 0.00000000e+00 0.00000000e+00 0.00000000e+00
 0.00000000e+00 0.00000000e+00 0.00000000e+00 0.00000000e+00
 0.00000000e+00 0.00000000e+00 0.00000000e+00 0.00000000e+00
 0.00000000e+00 0.00000000e+00 0.00000000e+00 0.00000000e+00
 0.00000000e+00 0.00000000e+00 3.69714686e-09 3.45042676e-08
 0.00000000e+00 0.00000000e+00 0.00000000e+00 1.41785928e-06]","[[-0.00122854  0.00036714]
 [-0.00134087 -0.00047987]]",[],0.0,0.0
1787136554.0002792,1.5645603237388195,-1.4889963648616709,0.8256524090140099,"[6.04531406e-07 1.07064868e-07 0.00000000e+00 0.00000000e+00
 0.00000000e+00 3.69714686e-09 1.07064868e-07 6.34611025e-07
 0.00000000e+00 0.00000000e+00 0.00000000e+00 3.45042676e-08
 0.00000000e+00 0.00000000e+00 0.00000000e+00 0.00000000e+00
 0.00000000e+00 0.00000000e+00 0.00000000e+00 0.00000000e+00
 0.00000000e+00 0.00000000e+00 0.00000000e+00 0.00000000e+00
 0.00000000e+00 0.00000000e+00 0.00000000e+00 0.00000000e+00
 0.00000000e+00 0.00000000e+00 3.69714686e-09 3.45042676e-08
 0.00000000e+00 0.00000000e+00 0.00000000e+00 1.41785928e-06]","[[-0.00122854  0.00036714]
 [-0.00134087 -0.00047987]]",[],0.0,0.0
1787136554.0493717,1.5645603237388195,-1.4889963648616709,0.8256524090140099,"[6.04531406e-07 1.07064868e-07 0.00000000e+00 0.00000000e+00
 0.00000000e+00 3.69714686e-09 1.07064868e-07 6.34611025e-07
 0.00000000e+00 0.00000000e+00 0.00000000e+00 3.45042676e-08
 0.00000000e+00 0.00000000e+00 0.00000000e+00 0.00000000e+00
 0.00000000e+00 0.00000000e+00 0.00000000e+00 0.00000000e+00
 0.00000000e+00 0.00000000e+00 0.00000000e+00 0.00000000e+00
 0.00000000e+00 0.00000000e+00 0.00000000e+00 0.00000000e+00
 0.00000000e+00 0.00000000e+00 3.69714686e-09 3.45042676e-08
 0.00000000e+00 0.00000000e+00 0.00000000e+00 1.41785928e-06]","[[-0.00122854  0.00036714]
 [-0.00134087 -0.00047987]]",[],0.0,0.0
1787136554.1113915,1.5645603237388195,-1.4889963648616709,0.8256524090140099,"[6.04531406e-07 1.07064868e-07 0.00000000e+00 0.00000000e+00
 0.00000000e+00 3.69714686e-09 1.07064868e-07 6.34611025e-07
 0.00000000e+00 0.00000000e+00 0.00000000e+00 3.45042676e-08
 0.00000000e+00 0.00000000e+00 0.00000000e+00 0.00000000e+00
 0.00000000e+00 0.00000000e+00 0.00000000e+00 0.00000000e+00
 0.00000000e+00 0.00000000e+00 0.00000000e+00 0.00000000e+00
 0.00000000e+00 0.00000000e+00 0.00000000e+00 0.00000000e+00
 0.00000000e+00 0.00000000e+00 3.69714686e-09 3.45042676e-08
 0.00000000e+00 0.00000000e+00 0.00000000e+00 1.41785928e-06]","[[-0.00122854  0.00036714]
 [-0.00134087 -0.00047987]]",[],0.0,0.0
1787136554.1467066,1.5645603237388195,-1.4889963648616709,0.8256524090140099,"[6.04531406e-07 1.07064868e-07 0.00000000e+00 0.00000000e+00
 0.00000000e+00 3.69714686e-09 1.07064868e-07 6.34611025e-07
 0.00000000e+00 0.00000000e+00 0.00000000e+00 3.45042676e-08
 0.00000000e+00 0.00000000e+00 0.00000000e+00 0.00000000e+00
 0.00000000e+00 0.00000000e+00 0.00000000e+00 0.00000000e+00
 0.00000000e+00 0.00000000e+00 0.00000000e+00 0.00000000e+00
 0.00000000e+00 0.00000000e+00 0.00000000e+00 0.00000000e+00
 0.00000000e+00 0.00000000e+00 3.69714686e-09 3.45042676e-08
 0.00000000e+00 0.00000000e+00 0.00000000e+00 1.41785928e-06]","[[-0.00122854  0.00036714]
 [-0.00134087 -0.00047987]]",[],0.0,0.0
1787136554.1986327,1.5645603237388195,-1.4889963648616709,0.8256524090140099,"[6.04531406e-07 1.07064868e-07 0.00000000e+00 0.00000000e+00
 0.00000000e+00 3.69714686e-09 1.07064868e-07 6.34611025e-07
 0.00000000e+00 0.00000000e+00 0.00000000e+00 3.45042676e-08
 0.00000000e+00 0.00000000e+00 0.00000000e+00 0.00000000e+00
 0.00000000e+00 0.00000000e+00 0.00000000e+00 0.00000000e+00
 0.00000000e+00 0.00000000e+00 0.00000000e+00 0.00000000e+00
 0.00000000e+00 0.00000000e+00 0.00000000e+00 0.00000000e+00
 0.00000000e+00 0.00000000e+00 3.69714686e-09 3.45042676e-08
 0.00000000e+00 0.00000000e+00 0.00000000e+00 1.41785928e-06]","[[-0.00122854  0.00036714]
 [-0.00134087 -0.00047987]]",[],0.0,0.0
1787136554.2476025,1.5645603237388195,-1.4889963648616709,0.8256524090140099,"[6.04531406e-07 1.07064868e-07 0.00000000e+00 0.00000000e+00
 0.00000000e+00 3.69714686e-09 1.07064868e-07 6.34611025e-07
 0.00000000e+00 0.00000000e+00 0.00000000e+00 3.45042676e-08
 0.00000000e+00 0.00000000e+00 0.00000000e+00 0.00000000e+00
 0.00000000e+00 0.00000000e+00 0.00000000e+00 0.00000000e+00
 0.00000000e+00 0.00000000e+00 0.00000000e+00 0.00000000e+00
 0.00000000e+00 0.00000000e+00 0.00000000e+00 0.00000000e+00
 0.00000000e+00 0.00000000e+00 3.69714686e-09 3.45042676e-08
 0.00000000e+00 0.00000000e+00 0.00000000e+00 1.41785928e-06]","[[-0.00122854  0.00036714]
 [-0.00134087 -0.00047987]]",[],0.0,0.0
1787136554.2977731,1.5645603237388195,-1.4889963648616709,0.8256524090140099,"[6.04531406e-07 1.07064868e-07 0.00000000e+00 0.00000000e+00
 0.00000000e+00 3.69714686e-09 1.07064868e-07 6.34611025e-07
 0.00000000e+00 0.00000000e+00 0.00000000e+00 3.45042676e-08
 0.00000000e+00 0.00000000e+00 0.00000000e+00 0.00000000e+00
 0.00000000e+00 0.00000000e+00 0.00000000e+00 0.00000000e+00
 0.00000000e+00 0.00000000e+00 0.00000000e+00 0.00000000e+00
 0.00000000e+00 0.00000000e+00 0.00000000e+00 0.00000000e+00
 0.00000000e+00 0.00000000e+00 3.69714686e-09 3.45042676e-08
 0.00000000e+00 0.00000000e+00 0.00000000e+00 1.41785928e-06]","[[-0.00122854  0.00036714]
 [-0.00134087 -0.00047987]]",[],0.0,0.0
1787136554.364115,1.5645603237388195,-1.4889963648616709,0.8256524090140099,"[6.04531406e-07 1.07064868e-07 0.00000000e+00 0.00000000e+00
 0.00000000e+00 3.69714686e-09 1.07064868e-07 6.34611025e-07
 0.00000000e+00 0.00000000e+00 0.00000000e+00 3.45042676e-08
 0.00000000e+00 0.00000000e+00 0.00000000e+00 0.00000000e+00
 0.00000000e+00 0.00000000e+00 0.00000000e+00 0.00000000e+00
 0.00000000e+00 0.00000000e+00 0.00000000e+00 0.00000000e+00
 0.00000000e+00 0.00000000e+00 0.00000000e+00 0.00000000e+00
 0.00000000e+00 0.00000000e+00 3.69714686e-09 3.45042676e-08
 0.00000000e+00 0.00000000e+00 0.00000000e+00 1.41785928e-06]","[[-0.00122854  0.00036714]
 [-0.00134087 -0.00047987]]",[],0.0,0.0
1787136554.3975964,1.5620623061391525,-1.4845128629373316,0.8297020152314714,"[5.52875407e-07 1.19888033e-07 0.00000000e+00 0.00000000e+00
 0.00000000e+00 5.63298691e-09 1.19888033e-07 5.81290421e-07
 0.00000000e+00 0.00000000e+00 0.00000000e+00 2.95326646e-08
 0.00000000e+00 0.00000000e+00 0.00000000e+00 0.00000000e+00
 0.00000000e+00 0.00000000e+00 0.00000000e+00 0.00000000e+00
 0.00000000e+00 0.00000000e+00 0.00000000e+00 0.00000000e+00
 0.00000000e+00 0.00000000e+00 0.00000000e+00 0.00000000e+00
 0.00000000e+00 0.00000000e+00 5.63298691e-09 2.95326646e-08
 0.00000000e+00 0.00000000e+00 0.00000000e+00 1.38498590e-06]","[[-0.00116514  0.00031188]
 [-0.00126407 -0.00041717]]",[],0.0,0.0
1787136554.4495325,1.5620623061391525,-1.4845128629373316,0.8297020152314714,"[5.52875407e-07 1.19888033e-07 0.00000000e+00 0.00000000e+00
 0.00000000e+00 5.63298691e-09 1.19888033e-07 5.81290421e-07
 0.00000000e+00 0.00000000e+00 0.00000000e+00 2.95326646e-08
 0.00000000e+00 0.00000000e+00 0.00000000e+00 0.00000000e+00
 0.00000000e+00 0.00000000e+00 0.00000000e+00 0.00000000e+00
 0.00000000e+00 0.00000000e+00 0.00000000e+00 0.00000000e+00
 0.00000000e+00 0.00000000e+00 0.00000000e+00 0.00000000e+00
 0.00000000e+00 0.00000000e+00 5.63298691e-09 2.95326646e-08
 0.00000000e+00 0.00000000e+00 0.00000000e+00 1.38498590e-06]","[[-0.00116514  0.00031188]
 [-0.00126407 -0.00041717]]",[],0.0,0.0
1787136554.4967303,1.5620623061391525,-1.4845128629373316,0.8297020152314714,"[5.52875407e-07 1.19888033e-07 0.00000000e+00 0.00000000e+00
 0.00000000e+00 5.63298691e-09 1.19888033e-07 5.81290421e-07
 0.00000000e+00 0.00000000e+00 0.00000000e+00 2.95326646e-08
 0.00000000e+00 0.00000000e+00 0.00000000e+00 0.00000000e+00
 0.00000000e+00 0.00000000e+00 0.00000000e+00 0.00000000e+00
 0.00000000e+00 0.00000000e+00 0.00000000e+00 0.00000000e+00
 0.00000000e+00 0.00000000e+00 0.00000000e+00 0.00000000e+00
 0.00000000e+00 0.00000000e+00 5.63298691e-09 2.95326646e-08
 0.00000000e+00 0.00000000e+00 0.00000000e+00 1.38498590e-06]","[[-0.00116514  0.00031188]
 [-0.00126407 -0.00041717]]",[],0.0,0.0
1787136554.5475183,1.5620623061391525,-1.4845128629373316,0.8297020152314714,"[5.52875407e-07 1.19888033e-07 0.00000000e+00 0.00000000e+00
 0.00000000e+00 5.63298691e-09 1.19888033e-07 5.81290421e-07
 0.00000000e+00 0.00000000e+00 0.00000000e+00 2.95326646e-08
 0.00000000e+00 0.00000000e+00 0.00000000e+00 0.00000000e+00
 0.00000000e+00 0.00000000e+00 0.00000000e+00 0.00000000e+00
 0.00000000e+00 0.00000000e+00 0.00000000e+00 0.00000000e+00
 0.00000000e+00 0.00000000e+00 0.00000000e+00 0.00000000e+00
 0.00000000e+00 0.00000000e+00 5.63298691e-09 2.95326646e-08
 0.00000000e+00 0.00000000e+00 0.00000000e+00 1.38498590e-06]","[[-0.00116514  0.00031188]
 [-0.00126407 -0.00041717]]",[],0.0,0.0
1787136554.5977752,1.5620623061391525,-1.4845128629373316,0.8297020152314714,"[5.52875407e-07 1.19888033e-07 0.00000000e+00 0.00000000e+00
 0.00000000e+00 5.63298691e-09 1.19888033e-07 5.81290421e-07
 0.00000000e+00 0.00000000e+00 0.00000000e+00 2.95326646e-08
 0.00000000e+00 0.00000000e+00 0.00000000e+00 0.00000000e+00
 0.00000000e+00 0.00000000e+00 0.00000000e+00 0.00000000e+00
 0.00000000e+00 0.00000000e+00 0.00000000e+00 0.00000000e+00
 0.00000000e+00 0.00000000e+00 0.00000000e+00 0.00000000e+00
 0.00000000e+00 0.00000000e+00 5.63298691e-09 2.95326646e-08
 0.00000000e+00 0.00000000e+00 0.00000000e+00 1.38498590e-06]","[[-0.00116514  0.00031188]
 [-0.00126407 -0.00041717]]",[],0.0,0.0
1787136554.6477835,1.5620623061391525,-1.4845128629373316,0.8297020152314714,"[5.52875407e-07 1.19888033e-07 0.00000000e+00 0.00000000e+00
 0.00000000e+00 5.63298691e-09 1.19888033e-07 5.81290421e-07
 0.00000000e+00 0.00000000e+00 0.00000000e+00 2.95326646e-08
 0.00000000e+00 0.00000000e+00 0.00000000e+00 0.00000000e+00
 0.00000000e+00 0.00000000e+00 0.00000000e+00 0.00000000e+00
 0.00000000e+00 0.00000000e+00 0.00000000e+00 0.00000000e+00
 0.00000000e+00 0.00000000e+00 0.00000000e+00 0.00000000e+00
 0.00000000e+00 0.00000000e+00 5.63298691e-09 2.95326646e-08
 0.00000000e+00 0.00000000e+00 0.00000000e+00 1.38498590e-06]","[[-0.00116514  0.00031188]
 [-0.00126407 -0.00041717]]",[],0.0,0.0
1787136554.698722,1.5620623061391525,-1.4845128629373316,0.8297020152314714,"[5.52875407e-07 1.19888033e-07 0.00000000e+00 0.00000000e+00
 0.00000000e+00 5.63298691e-09 1.19888033e-07 5.81290421e-07
 0.00000000e+00 0.00000000e+00 0.00000000e+00 2.95326646e-08
 0.00000000e+00 0.00000000e+00 0.00000000e+00 0.00000000e+00
 0.00000000e+00 0.00000000e+00 0.00000000e+00 0.00000000e+00
 0.00000000e+00 0.00000000e+00 0.00000000e+00 0.00000000e+00
 0.00000000e+00 0.00000000e+00 0.00000000e+00 0.00000000e+00
 0.00000000e+00 0.00000000e+00 5.63298691e-09 2.95326646e-08
 0.00000000e+00 0.00000000e+00 0.00000000e+00 1.38498590e-06]","[[-0.00116514  0.00031188]
 [-0.00126407 -0.00041717]]",[],0.0,0.0
1787136554.7472165,1.5620623061391525,-1.4845128629373316,0.8297020152314714,"[5.52875407e-07 1.19888033e-07 0.00000000e+00 0.00000000e+00
 0.00000000e+00 5.63298691e-09 1.19888033e-07 5.81290421e-07
 0.00000000e+00 0.00000000e+00 0.00000000e+00 2.95326646e-08
 0.00000000e+00 0.00000000e+00 0.00000000e+00 0.00000000e+00
 0.00000000e+00 0.00000000e+00 0.00000000e+00 0.00000000e+00
 0.00000000e+00 0.00000000e+00 0.00000000e+00 0.00000000e+00
 0.00000000e+00 0.00000000e+00 0.00000000e+00 0.00000000e+00
 0.00000000e+00 0.00000000e+00 5.63298691e-09 2.95326646e-08
 0.00000000e+00 0.00000000e+00 0.00000000e+00 1.38498590e-06]","[[-0.00116514  0.00031188]
 [-0.00126407 -0.00041717]]",[],0.0,0.0
1787136554.7974725,1.5620623061391525,-1.4845128629373316,0.8297020152314714,"[5.52875407e-07 1.19888033e-07 0.00000000e+00 0.00000000e+00
 0.00000000e+00 5.63298691e-09 1.19888033e-07 5.81290421e-07
 0.00000000e+00 0.00000000e+00 0.00000000e+00 2.95326646e-08
 0.00000000e+00 0.00000000e+00 0.00000000e+00 0.00000000e+00
 0.00000000e+00 0.00000000e+00 0.00000000e+00 0.00000000e+00
 0.00000000e+00 0.00000000e+00 0.00000000e+00 0.00000000e+00
 0.00000000e+00 0.00000000e+00 0.00000000e+00 0.00000000e+00
 0.00000000e+00 0.00000000e+00 5.63298691e-09 2.95326646e-08
 0.00000000e+00 0.00000000e+00 0.00000000e+00 1.38498590e-06]","[[-0.00116514  0.00031188]
 [-0.00126407 -0.00041717]]",[],0.0,0.0
1787136554.851806,1.5620623061391525,-1.4845128629373316,0.8297020152314714,"[5.52875407e-07 1.19888033e-07 0.00000000e+00 0.00000000e+00
 0.00000000e+00 5.63298691e-09 1.19888033e-07 5.81290421e-07
 0.00000000e+00 0.00000000e+00 0.00000000e+00 2.95326646e-08
 0.00000000e+00 0.00000000e+00 0.00000000e+00 0.00000000e+00
 0.00000000e+00 0.00000000e+00 0.00000000e+00 0.00000000e+00
 0.00000000e+00 0.00000000e+00 0.00000000e+00 0.00000000e+00
 0.00000000e+00 0.00000000e+00 0.00000000e+00 0.00000000e+00
 0.00000000e+00 0.00000000e+00 5.63298691e-09 2.95326646e-08
 0.00000000e+00 0.00000000e+00 0.00000000e+00 1.38498590e-06]","[[-0.00116514  0.00031188]
 [-0.00126407 -0.00041717]]",[],0.0,0.0
1787136554.8968647,1.5620623061391525,-1.4845128629373316,0.8297020152314714,"[5.52875407e-07 1.19888033e-07 0.00000000e+00 0.00000000e+00
 0.00000000e+00 5.63298691e-09 1.19888033e-07 5.81290421e-07
 0.00000000e+00 0.00000000e+00 0.00000000e+00 2.95326646e-08
 0.00000000e+00 0.00000000e+00 0.00000000e+00 0.00000000e+00
 0.00000000e+00 0.00000000e+00 0.00000000e+00 0.00000000e+00
 0.00000000e+00 0.00000000e+00 0.00000000e+00 0.00000000e+00
 0.00000000e+00 0.00000000e+00 0.00000000e+00 0.00000000e+00
 0.00000000e+00 0.00000000e+00 5.63298691e-09 2.95326646e-08
 0.00000000e+00 0.00000000e+00 0.00000000e+00 1.38498590e-06]","[[-0.00116514  0.00031188]
 [-0.00126407 -0.00041717]]",[],0.0,0.0
1787136554.9570498,1.558752494840089,-1.4826105737056081,0.8302109451018045,"[5.08776023e-07 1.25259247e-07 0.00000000e+00 0.00000000e+00
 0.00000000e+00 6.55327658e-09 1.25259247e-07 5.38742654e-07
 0.00000000e+00 0.00000000e+00 0.00000000e+00 2.84077152e-08
 0.00000000e+00 0.00000000e+00 0.00000000e+00 0.00000000e+00
 0.00000000e+00 0.00000000e+00 0.00000000e+00 0.00000000e+00
 0.00000000e+00 0.00000000e+00 0.00000000e+00 0.00000000e+00
 0.00000000e+00 0.00000000e+00 0.00000000e+00 0.00000000e+00
 0.00000000e+00 0.00000000e+00 6.55327658e-09 2.84077152e-08
 0.00000000e+00 0.00000000e+00 0.00000000e+00 1.39108051e-06]","[[-0.00110049  0.00027141]
 [-0.0011947  -0.00038032]]",[],0.0,0.0
1787136554.9988673,1.558752494840089,-1.4826105737056081,0.8302109451018045,"[5.08776023e-07 1.25259247e-07 0.00000000e+00 0.00000000e+00
 0.00000000e+00 6.55327658e-09 1.25259247e-07 5.38742654e-07
 0.00000000e+00 0.00000000e+00 0.00000000e+00 2.84077152e-08
 0.00000000e+00 0.00000000e+00 0.00000000e+00 0.00000000e+00
 0.00000000e+00 0.00000000e+00 0.00000000e+00 0.00000000e+00
 0.00000000e+00 0.00000000e+00 0.00000000e+00 0.00000000e+00
 0.00000000e+00 0.00000000e+00 0.00000000e+00 0.00000000e+00
 0.00000000e+00 0.00000000e+00 6.55327658e-09 2.84077152e-08
 0.00000000e+00 0.00000000e+00 0.00000000e+00 1.39108051e-06]","[[-0.00110049  0.00027141]
 [-0.0011947  -0.00038032]]",[],0.0,0.0
1787136555.078756,1.558752494840089,-1.4826105737056081,0.8302109451018045,"[5.08776023e-07 1.25259247e-07 0.00000000e+00 0.00000000e+00
 0.00000000e+00 6.55327658e-09 1.25259247e-07 5.38742654e-07
 0.00000000e+00 0.00000000e+00 0.00000000e+00 2.84077152e-08
 0.00000000e+00 0.00000000e+00 0.00000000e+00 0.00000000e+00
 0.00000000e+00 0.00000000e+00 0.00000000e+00 0.00000000e+00
 0.00000000e+00 0.00000000e+00 0.00000000e+00 0.00000000e+00
 0.00000000e+00 0.00000000e+00 0.00000000e+00 0.00000000e+00
 0.00000000e+00 0.00000000e+00 6.55327658e-09 2.84077152e-08
 0.00000000e+00 0.00000000e+00 0.00000000e+00 1.39108051e-06]","[[-0.00110049  0.00027141]
 [-0.0011947  -0.00038032]]",[],0.0,0.0
1787136555.1003284,1.558752494840089,-1.4826105737056081,0.8302109451018045,"[5.08776023e-07 1.25259247e-07 0.00000000e+00 0.00000000e+00
 0.00000000e+00 6.55327658e-09 1.25259247e-07 5.38742654e-07
 0.00000000e+00 0.00000000e+00 0.00000000e+00 2.84077152e-08
 0.00000000e+00 0.00000000e+00 0.00000000e+00 0.00000000e+00
 0.00000000e+00 0.00000000e+00 0.00000000e+00 0.00000000e+00
 0.00000000e+00 0.00000000e+00 0.00000000e+00 0.00000000e+00
 0.00000000e+00 0.00000000e+00 0.00000000e+00 0.00000000e+00
 0.00000000e+00 0.00000000e+00 6.55327658e-09 2.84077152e-08
 0.00000000e+00 0.00000000e+00 0.00000000e+00 1.39108051e-06]","[[-0.00110049  0.00027141]
 [-0.0011947  -0.00038032]]",[],0.0,0.0
1787136555.1474066,1.558752494840089,-1.4826105737056081,0.8302109451018045,"[5.08776023e-07 1.25259247e-07 0.00000000e+00 0.00000000e+00
 0.00000000e+00 6.55327658e-09 1.25259247e-07 5.38742654e-07
 0.00000000e+00 0.00000000e+00 0.00000000e+00 2.84077152e-08
 0.00000000e+00 0.00000000e+00 0.00000000e+00 0.00000000e+00
 0.00000000e+00 0.00000000e+00 0.00000000e+00 0.00000000e+00
 0.00000000e+00 0.00000000e+00 0.00000000e+00 0.00000000e+00
 0.00000000e+00 0.00000000e+00 0.00000000e+00 0.00000000e+00
 0.00000000e+00 0.00000000e+00 6.55327658e-09 2.84077152e-08
 0.00000000e+00 0.00000000e+00 0.00000000e+00 1.39108051e-06]","[[-0.00110049  0.00027141]
 [-0.0011947  -0.00038032]]",[],0.0,0.0
1787136555.2020912,1.558752494840089,-1.4826105737056081,0.8302109451018045,"[5.08776023e-07 1.25259247e-07 0.00000000e+00 0.00000000e+00
 0.00000000e+00 6.55327658e-09 1.25259247e-07 5.38742654e-07
 0.00000000e+00 0.00000000e+00 0.00000000e+00 2.84077152e-08
 0.00000000e+00 0.00000000e+00 0.00000000e+00 0.00000000e+00
 0.00000000e+00 0.00000000e+00 0.00000000e+00 0.00000000e+00
 0.00000000e+00 0.00000000e+00 0.00000000e+00 0.00000000e+00
 0.00000000e+00 0.00000000e+00 0.00000000e+00 0.00000000e+00
 0.00000000e+00 0.00000000e+00 6.55327658e-09 2.84077152e-08
 0.00000000e+00 0.00000000e+00 0.00000000e+00 1.39108051e-06]","[[-0.00110049  0.00027141]
 [-0.0011947  -0.00038032]]",[],0.0,0.0
1787136555.247182,1.558752494840089,-1.4826105737056081,0.8302109451018045,"[5.08776023e-07 1.25259247e-07 0.00000000e+00 0.00000000e+00
 0.00000000e+00 6.55327658e-09 1.25259247e-07 5.38742654e-07
 0.00000000e+00 0.00000000e+00 0.00000000e+00 2.84077152e-08
 0.00000000e+00 0.00000000e+00 0.00000000e+00 0.00000000e+00
 0.00000000e+00 0.00000000e+00 0.00000000e+00 0.00000000e+00
 0.00000000e+00 0.00000000e+00 0.00000000e+00 0.00000000e+00
 0.00000000e+00 0.00000000e+00 0.00000000e+00 0.00000000e+00
 0.00000000e+00 0.00000000e+00 6.55327658e-09 2.84077152e-08
 0.00000000e+00 0.00000000e+00 0.00000000e+00 1.39108051e-06]","[[-0.00110049  0.00027141]
 [-0.0011947  -0.00038032]]",[],0.0,0.0
1787136555.3155751,1.558752494840089,-1.4826105737056081,0.8302109451018045,"[5.08776023e-07 1.25259247e-07 0.00000000e+00 0.00000000e+00
 0.00000000e+00 6.55327658e-09 1.25259247e-07 5.38742654e-07
 0.00000000e+00 0.00000000e+00 0.00000000e+00 2.84077152e-08
 0.00000000e+00 0.00000000e+00 0.00000000e+00 0.00000000e+00
 0.00000000e+00 0.00000000e+00 0.00000000e+00 0.00000000e+00
 0.00000000e+00 0.00000000e+00 0.00000000e+00 0.00000000e+00
 0.00000000e+00 0.00000000e+00 0.00000000e+00 0.00000000e+00
 0.00000000e+00 0.00000000e+00 6.55327658e-09 2.84077152e-08
 0.00000000e+00 0.00000000e+00 0.00000000e+00 1.39108051e-06]","[[-0.00110049  0.00027141]
 [-0.0011947  -0.00038032]]",[],0.0,0.0
1787136555.3471541,1.558752494840089,-1.4826105737056081,0.8302109451018045,"[5.08776023e-07 1.25259247e-07 0.00000000e+00 0.00000000e+00
 0.00000000e+00 6.55327658e-09 1.25259247e-07 5.38742654e-07
 0.00000000e+00 0.00000000e+00 0.00000000e+00 2.84077152e-08
 0.00000000e+00 0.00000000e+00 0.00000000e+00 0.00000000e+00
 0.00000000e+00 0.00000000e+00 0.00000000e+00 0.00000000e+00
 0.00000000e+00 0.00000000e+00 0.00000000e+00 0.00000000e+00
 0.00000000e+00 0.00000000e+00 0.00000000e+00 0.00000000e+00
 0.00000000e+00 0.00000000e+00 6.55327658e-09 2.84077152e-08
 0.00000000e+00 0.00000000e+00 0.00000000e+00 1.39108051e-06]","[[-0.00110049  0.00027141]
 [-0.0011947  -0.00038032]]",[],0.0,0.0
1787136555.405099,1.558752494840089,-1.4826105737056081,0.8302109451018045,"[5.08776023e-07 1.25259247e-07 0.00000000e+00 0.00000000e+00
 0.00000000e+00 6.55327658e-09 1.25259247e-07 5.38742654e-07
 0.00000000e+00 0.00000000e+00 0.00000000e+00 2.84077152e-08
 0.00000000e+00 0.00000000e+00 0.00000000e+00 0.00000000e+00
 0.00000000e+00 0.00000000e+00 0.00000000e+00 0.00000000e+00
 0.00000000e+00 0.00000000e+00 0.00000000e+00 0.00000000e+00
 0.00000000e+00 0.00000000e+00 0.00000000e+00 0.00000000e+00
 0.00000000e+00 0.00000000e+00 6.55327658e-09 2.84077152e-08
 0.00000000e+00 0.00000000e+00 0.00000000e+00 1.39108051e-06]","[[-0.00110049  0.00027141]
 [-0.0011947  -0.00038032]]",[],0.0,0.0
1787136555.4469123,1.5563812622386326,-1.4808421469173993,0.8326482605772387,"[4.69608245e-07 1.27209247e-07 0.00000000e+00 0.00000000e+00
 0.00000000e+00 1.07419851e-08 1.27209247e-07 5.01007074e-07
 0.00000000e+00 0.00000000e+00 0.00000000e+00 3.24200225e-08
 0.00000000e+00 0.00000000e+00 0.00000000e+00 0.00000000e+00
 0.00000000e+00 0.00000000e+00 0.00000000e+00 0.00000000e+00
 0.00000000e+00 0.00000000e+00 0.00000000e+00 0.00000000e+00
 0.00000000e+00 0.00000000e+00 0.00000000e+00 0.00000000e+00
 0.00000000e+00 0.00000000e+00 1.07419851e-08 3.24200225e-08
 0.00000000e+00 0.00000000e+00 0.00000000e+00 1.32414875e-06]","[[-0.00108709  0.00018553]
 [-0.00107204 -0.00039843]]",[],0.0,0.0
1787136555.502041,1.5563812622386326,-1.4808421469173993,0.8326482605772387,"[4.69608245e-07 1.27209247e-07 0.00000000e+00 0.00000000e+00
 0.00000000e+00 1.07419851e-08 1.27209247e-07 5.01007074e-07
 0.00000000e+00 0.00000000e+00 0.00000000e+00 3.24200225e-08
 0.00000000e+00 0.00000000e+00 0.00000000e+00 0.00000000e+00
 0.00000000e+00 0.00000000e+00 0.00000000e+00 0.00000000e+00
 0.00000000e+00 0.00000000e+00 0.00000000e+00 0.00000000e+00
 0.00000000e+00 0.00000000e+00 0.00000000e+00 0.00000000e+00
 0.00000000e+00 0.00000000e+00 1.07419851e-08 3.24200225e-08
 0.00000000e+00 0.00000000e+00 0.00000000e+00 1.32414875e-06]","[[-0.00108709  0.00018553]
 [-0.00107204 -0.00039843]]",[],0.0,0.0
1787136555.5713332,1.5563812622386326,-1.4808421469173993,0.8326482605772387,"[4.69608245e-07 1.27209247e-07 0.00000000e+00 0.00000000e+00
 0.00000000e+00 1.07419851e-08 1.27209247e-07 5.01007074e-07
 0.00000000e+00 0.00000000e+00 0.00000000e+00 3.24200225e-08
 0.00000000e+00 0.00000000e+00 0.00000000e+00 0.00000000e+00
 0.00000000e+00 0.00000000e+00 0.00000000e+00 0.00000000e+00
 0.00000000e+00 0.00000000e+00 0.00000000e+00 0.00000000e+00
 0.00000000e+00 0.00000000e+00 0.00000000e+00 0.00000000e+00
 0.00000000e+00 0.00000000e+00 1.07419851e-08 3.24200225e-08
 0.00000000e+00 0.00000000e+00 0.00000000e+00 1.32414875e-06]","[[-0.00108709  0.00018553]
 [-0.00107204 -0.00039843]]",[],0.0,0.0
1787136555.5991607,1.5563812622386326,-1.4808421469173993,0.8326482605772387,"[4.69608245e-07 1.27209247e-07 0.00000000e+00 0.00000000e+00
 0.00000000e+00 1.07419851e-08 1.27209247e-07 5.01007074e-07
 0.00000000e+00 0.00000000e+00 0.00000000e+00 3.24200225e-08
 0.00000000e+00 0.00000000e+00 0.00000000e+00 0.00000000e+00
 0.00000000e+00 0.00000000e+00 0.00000000e+00 0.00000000e+00
 0.00000000e+00 0.00000000e+00 0.00000000e+00 0.00000000e+00
 0.00000000e+00 0.00000000e+00 0.00000000e+00 0.00000000e+00
 0.00000000e+00 0.00000000e+00 1.07419851e-08 3.24200225e-08
 0.00000000e+00 0.00000000e+00 0.00000000e+00 1.32414875e-06]","[[-0.00108709  0.00018553]
 [-0.00107204 -0.00039843]]",[],0.0,0.0
1787136555.6737082,1.5563812622386326,-1.4808421469173993,0.8326482605772387,"[4.69608245e-07 1.27209247e-07 0.00000000e+00 0.00000000e+00
 0.00000000e+00 1.07419851e-08 1.27209247e-07 5.01007074e-07
 0.00000000e+00 0.00000000e+00 0.00000000e+00 3.24200225e-08
 0.00000000e+00 0.00000000e+00 0.00000000e+00 0.00000000e+00
 0.00000000e+00 0.00000000e+00 0.00000000e+00 0.00000000e+00
 0.00000000e+00 0.00000000e+00 0.00000000e+00 0.00000000e+00
 0.00000000e+00 0.00000000e+00 0.00000000e+00 0.00000000e+00
 0.00000000e+00 0.00000000e+00 1.07419851e-08 3.24200225e-08
 0.00000000e+00 0.00000000e+00 0.00000000e+00 1.32414875e-06]","[[-0.00108709  0.00018553]
 [-0.00107204 -0.00039843]]",[],0.0,0.0
1787136555.6973891,1.5563812622386326,-1.4808421469173993,0.8326482605772387,"[4.69608245e-07 1.27209247e-07 0.00000000e+00 0.00000000e+00
 0.00000000e+00 1.07419851e-08 1.27209247e-07 5.01007074e-07
 0.00000000e+00 0.00000000e+00 0.00000000e+00 3.24200225e-08
 0.00000000e+00 0.00000000e+00 0.00000000e+00 0.00000000e+00
 0.00000000e+00 0.00000000e+00 0.00000000e+00 0.00000000e+00
 0.00000000e+00 0.00000000e+00 0.00000000e+00 0.00000000e+00
 0.00000000e+00 0.00000000e+00 0.00000000e+00 0.00000000e+00
 0.00000000e+00 0.00000000e+00 1.07419851e-08 3.24200225e-08
 0.00000000e+00 0.00000000e+00 0.00000000e+00 1.32414875e-06]","[[-0.00108709  0.00018553]
 [-0.00107204 -0.00039843]]",[],0.0,0.0
1787136555.7604973,1.5563812622386326,-1.4808421469173993,0.8326482605772387,"[4.69608245e-07 1.27209247e-07 0.00000000e+00 0.00000000e+00
 0.00000000e+00 1.07419851e-08 1.27209247e-07 5.01007074e-07
 0.00000000e+00 0.00000000e+00 0.00000000e+00 3.24200225e-08
 0.00000000e+00 0.00000000e+00 0.00000000e+00 0.00000000e+00
 0.00000000e+00 0.00000000e+00 0.00000000e+00 0.00000000e+00
 0.00000000e+00 0.00000000e+00 0.00000000e+00 0.00000000e+00
 0.00000000e+00 0.00000000e+00 0.00000000e+00 0.00000000e+00
 0.00000000e+00 0.00000000e+00 1.07419851e-08 3.24200225e-08
 0.00000000e+00 0.00000000e+00 0.00000000e+00 1.32414875e-06]","[[-0.00108709  0.00018553]
 [-0.00107204 -0.00039843]]",[],0.0,0.0
1787136555.8057175,1.5563812622386326,-1.4808421469173993,0.8326482605772387,"[4.69608245e-07 1.27209247e-07 0.00000000e+00 0.00000000e+00
 0.00000000e+00 1.07419851e-08 1.27209247e-07 5.01007074e-07
 0.00000000e+00 0.00000000e+00 0.00000000e+00 3.24200225e-08
 0.00000000e+00 0.00000000e+00 0.00000000e+00 0.00000000e+00
 0.00000000e+00 0.00000000e+00 0.00000000e+00 0.00000000e+00
 0.00000000e+00 0.00000000e+00 0.00000000e+00 0.00000000e+00
 0.00000000e+00 0.00000000e+00 0.00000000e+00 0.00000000e+00
 0.00000000e+00 0.00000000e+00 1.07419851e-08 3.24200225e-08
 0.00000000e+00 0.00000000e+00 0.00000000e+00 1.32414875e-06]","[[-0.00108709  0.00018553]
 [-0.00107204 -0.00039843]]",[],0.0,0.0
1787136555.857551,1.5563812622386326,-1.4808421469173993,0.8326482605772387,"[4.69608245e-07 1.27209247e-07 0.00000000e+00 0.00000000e+00
 0.00000000e+00 1.07419851e-08 1.27209247e-07 5.01007074e-07
 0.00000000e+00 0.00000000e+00 0.00000000e+00 3.24200225e-08
 0.00000000e+00 0.00000000e+00 0.00000000e+00 0.00000000e+00
 0.00000000e+00 0.00000000e+00 0.00000000e+00 0.00000000e+00
 0.00000000e+00 0.00000000e+00 0.00000000e+00 0.00000000e+00
 0.00000000e+00 0.00000000e+00 0.00000000e+00 0.00000000e+00
 0.00000000e+00 0.00000000e+00 1.07419851e-08 3.24200225e-08
 0.00000000e+00 0.00000000e+00 0.00000000e+00 1.32414875e-06]","[[-0.00108709  0.00018553]
 [-0.00107204 -0.00039843]]",[],0.0,0.0
1787136555.911734,1.5528503072827902,-1.4796666807944845,0.8349386752567005,"[4.37261160e-07 1.27070567e-07 0.00000000e+00 0.00000000e+00
 0.00000000e+00 8.26743598e-09 1.27070567e-07 4.69030931e-07
 0.00000000e+00 0.00000000e+00 0.00000000e+00 2.76603454e-08
 0.00000000e+00 0.00000000e+00 0.00000000e+00 0.00000000e+00
 0.00000000e+00 0.00000000e+00 0.00000000e+00 0.00000000e+00
 0.00000000e+00 0.00000000e+00 0.00000000e+00 0.00000000e+00
 0.00000000e+00 0.00000000e+00 0.00000000e+00 0.00000000e+00
 0.00000000e+00 0.00000000e+00 8.26743598e-09 2.76603454e-08
 0.00000000e+00 0.00000000e+00 0.00000000e+00 1.33017170e-06]","[[-0.00098233  0.00020994]
 [-0.00106982 -0.00032804]]",[],0.0,0.0
1787136555.9468586,1.5528503072827902,-1.4796666807944845,0.8349386752567005,"[4.37261160e-07 1.27070567e-07 0.00000000e+00 0.00000000e+00
 0.00000000e+00 8.26743598e-09 1.27070567e-07 4.69030931e-07
 0.00000000e+00 0.00000000e+00 0.00000000e+00 2.76603454e-08
 0.00000000e+00 0.00000000e+00 0.00000000e+00 0.00000000e+00
 0.00000000e+00 0.00000000e+00 0.00000000e+00 0.00000000e+00
 0.00000000e+00 0.00000000e+00 0.00000000e+00 0.00000000e+00
 0.00000000e+00 0.00000000e+00 0.00000000e+00 0.00000000e+00
 0.00000000e+00 0.00000000e+00 8.26743598e-09 2.76603454e-08
 0.00000000e+00 0.00000000e+00 0.00000000e+00 1.33017170e-06]","[[-0.00098233  0.00020994]
 [-0.00106982 -0.00032804]]",[],0.0,0.0
1787136555.9998636,1.5528503072827902,-1.4796666807944845,0.8349386752567005,"[4.37261160e-07 1.27070567e-07 0.00000000e+00 0.00000000e+00
 0.00000000e+00 8.26743598e-09 1.27070567e-07 4.69030931e-07
 0.00000000e+00 0.00000000e+00 0.00000000e+00 2.76603454e-08
 0.00000000e+00 0.00000000e+00 0.00000000e+00 0.00000000e+00
 0.00000000e+00 0.00000000e+00 0.00000000e+00 0.00000000e+00
 0.00000000e+00 0.00000000e+00 0.00000000e+00 0.00000000e+00
 0.00000000e+00 0.00000000e+00 0.00000000e+00 0.00000000e+00
 0.00000000e+00 0.00000000e+00 8.26743598e-09 2.76603454e-08
 0.00000000e+00 0.00000000e+00 0.00000000e+00 1.33017170e-06]","[[-0.00098233  0.00020994]
 [-0.00106982 -0.00032804]]",[],0.0,0.0
1787136556.046849,1.5528503072827902,-1.4796666807944845,0.8349386752567005,"[4.37261160e-07 1.27070567e-07 0.00000000e+00 0.00000000e+00
 0.00000000e+00 8.26743598e-09 1.27070567e-07 4.69030931e-07
 0.00000000e+00 0.00000000e+00 0.00000000e+00 2.76603454e-08
 0.00000000e+00 0.00000000e+00 0.00000000e+00 0.00000000e+00
 0.00000000e+00 0.00000000e+00 0.00000000e+00 0.00000000e+00
 0.00000000e+00 0.00000000e+00 0.00000000e+00 0.00000000e+00
 0.00000000e+00 0.00000000e+00 0.00000000e+00 0.00000000e+00
 0.00000000e+00 0.00000000e+00 8.26743598e-09 2.76603454e-08
 0.00000000e+00 0.00000000e+00 0.00000000e+00 1.33017170e-06]","[[-0.00098233  0.00020994]
 [-0.00106982 -0.00032804]]",[],0.0,0.0
1787136556.0966415,1.5528503072827902,-1.4796666807944845,0.8349386752567005,"[4.37261160e-07 1.27070567e-07 0.00000000e+00 0.00000000e+00
 0.00000000e+00 8.26743598e-09 1.27070567e-07 4.69030931e-07
 0.00000000e+00 0.00000000e+00 0.00000000e+00 2.76603454e-08
 0.00000000e+00 0.00000000e+00 0.00000000e+00 0.00000000e+00
 0.00000000e+00 0.00000000e+00 0.00000000e+00 0.00000000e+00
 0.00000000e+00 0.00000000e+00 0.00000000e+00 0.00000000e+00
 0.00000000e+00 0.00000000e+00 0.00000000e+00 0.00000000e+00
 0.00000000e+00 0.00000000e+00 8.26743598e-09 2.76603454e-08
 0.00000000e+00 0.00000000e+00 0.00000000e+00 1.33017170e-06]","[[-0.00098233  0.00020994]
 [-0.00106982 -0.00032804]]",[],0.0,0.0
1787136556.1576967,1.5528503072827902,-1.4796666807944845,0.8349386752567005,"[4.37261160e-07 1.27070567e-07 0.00000000e+00 0.00000000e+00
 0.00000000e+00 8.26743598e-09 1.27070567e-07 4.69030931e-07
 0.00000000e+00 0.00000000e+00 0.00000000e+00 2.76603454e-08
 0.00000000e+00 0.00000000e+00 0.00000000e+00 0.00000000e+00
 0.00000000e+00 0.00000000e+00 0.00000000e+00 0.00000000e+00
 0.00000000e+00 0.00000000e+00 0.00000000e+00 0.00000000e+00
 0.00000000e+00 0.00000000e+00 0.00000000e+00 0.00000000e+00
 0.00000000e+00 0.00000000e+00 8.26743598e-09 2.76603454e-08
 0.00000000e+00 0.00000000e+00 0.00000000e+00 1.33017170e-06]","[[-0.00098233  0.00020994]
 [-0.00106982 -0.00032804]]",[],0.0,0.0
1787136556.1993804,1.5528503072827902,-1.4796666807944845,0.8349386752567005,"[4.37261160e-07 1.27070567e-07 0.00000000e+00 0.00000000e+00
 0.00000000e+00 8.26743598e-09 1.27070567e-07 4.69030931e-07
 0.00000000e+00 0.00000000e+00 0.00000000e+00 2.76603454e-08
 0.00000000e+00 0.00000000e+00 0.00000000e+00 0.00000000e+00
 0.00000000e+00 0.00000000e+00 0.00000000e+00 0.00000000e+00
 0.00000000e+00 0.00000000e+00 0.00000000e+00 0.00000000e+00
 0.00000000e+00 0.00000000e+00 0.00000000e+00 0.00000000e+00
 0.00000000e+00 0.00000000e+00 8.26743598e-09 2.76603454e-08
 0.00000000e+00 0.00000000e+00 0.00000000e+00 1.33017170e-06]","[[-0.00098233  0.00020994]
 [-0.00106982 -0.00032804]]",[],0.0,0.0
1787136556.2468054,1.5528503072827902,-1.4796666807944845,0.8349386752567005,"[4.37261160e-07 1.27070567e-07 0.00000000e+00 0.00000000e+00
 0.00000000e+00 8.26743598e-09 1.27070567e-07 4.69030931e-07
 0.00000000e+00 0.00000000e+00 0.00000000e+00 2.76603454e-08
 0.00000000e+00 0.00000000e+00 0.00000000e+00 0.00000000e+00
 0.00000000e+00 0.00000000e+00 0.00000000e+00 0.00000000e+00
 0.00000000e+00 0.00000000e+00 0.00000000e+00 0.00000000e+00
 0.00000000e+00 0.00000000e+00 0.00000000e+00 0.00000000e+00
 0.00000000e+00 0.00000000e+00 8.26743598e-09 2.76603454e-08
 0.00000000e+00 0.00000000e+00 0.00000000e+00 1.33017170e-06]","[[-0.00098233  0.00020994]
 [-0.00106982 -0.00032804]]",[],0.0,0.0
1787136556.3001566,1.5528503072827902,-1.4796666807944845,0.8349386752567005,"[4.37261160e-07 1.27070567e-07 0.00000000e+00 0.00000000e+00
 0.00000000e+00 8.26743598e-09 1.27070567e-07 4.69030931e-07
 0.00000000e+00 0.00000000e+00 0.00000000e+00 2.76603454e-08
 0.00000000e+00 0.00000000e+00 0.00000000e+00 0.00000000e+00
 0.00000000e+00 0.00000000e+00 0.00000000e+00 0.00000000e+00
 0.00000000e+00 0.00000000e+00 0.00000000e+00 0.00000000e+00
 0.00000000e+00 0.00000000e+00 0.00000000e+00 0.00000000e+00
 0.00000000e+00 0.00000000e+00 8.26743598e-09 2.76603454e-08
 0.00000000e+00 0.00000000e+00 0.00000000e+00 1.33017170e-06]","[[-0.00098233  0.00020994]
 [-0.00106982 -0.00032804]]",[],0.0,0.0
1787136556.3470092,1.5528503072827902,-1.4796666807944845,0.8349386752567005,"[4.37261160e-07 1.27070567e-07 0.00000000e+00 0.00000000e+00
 0.00000000e+00 8.26743598e-09 1.27070567e-07 4.69030931e-07
 0.00000000e+00 0.00000000e+00 0.00000000e+00 2.76603454e-08
 0.00000000e+00 0.00000000e+00 0.00000000e+00 0.00000000e+00
 0.00000000e+00 0.00000000e+00 0.00000000e+00 0.00000000e+00
 0.00000000e+00 0.00000000e+00 0.00000000e+00 0.00000000e+00
 0.00000000e+00 0.00000000e+00 0.00000000e+00 0.00000000e+00
 0.00000000e+00 0.00000000e+00 8.26743598e-09 2.76603454e-08
 0.00000000e+00 0.00000000e+00 0.00000000e+00 1.33017170e-06]","[[-0.00098233  0.00020994]
 [-0.00106982 -0.00032804]]",[],0.0,0.0
1787136556.415324,1.5512343983479806,-1.478141401435791,0.8351886986431856,"[4.17389847e-07 1.35228356e-07 0.00000000e+00 0.00000000e+00
 0.00000000e+00 1.24808447e-08 1.35228356e-07 4.50531178e-07
 0.00000000e+00 0.00000000e+00 0.00000000e+00 2.73562875e-08
 0.00000000e+00 0.00000000e+00 0.00000000e+00 0.00000000e+00
 0.00000000e+00 0.00000000e+00 0.00000000e+00 0.00000000e+00
 0.00000000e+00 0.00000000e+00 0.00000000e+00 0.00000000e+00
 0.00000000e+00 0.00000000e+00 0.00000000e+00 0.00000000e+00
 0.00000000e+00 0.00000000e+00 1.24808447e-08 2.73562875e-08
 0.00000000e+00 0.00000000e+00 0.00000000e+00 1.35736893e-06]","[[-0.00096353  0.00017494]
 [-0.0010497  -0.00030818]]",[],0.0,0.0
1787136556.4501896,1.5512343983479806,-1.478141401435791,0.8351886986431856,"[4.17389847e-07 1.35228356e-07 0.00000000e+00 0.00000000e+00
 0.00000000e+00 1.24808447e-08 1.35228356e-07 4.50531178e-07
 0.00000000e+00 0.00000000e+00 0.00000000e+00 2.73562875e-08
 0.00000000e+00 0.00000000e+00 0.00000000e+00 0.00000000e+00
 0.00000000e+00 0.00000000e+00 0.00000000e+00 0.00000000e+00
 0.00000000e+00 0.00000000e+00 0.00000000e+00 0.00000000e+00
 0.00000000e+00 0.00000000e+00 0.00000000e+00 0.00000000e+00
 0.00000000e+00 0.00000000e+00 1.24808447e-08 2.73562875e-08
 0.00000000e+00 0.00000000e+00 0.00000000e+00 1.35736893e-06]","[[-0.00096353  0.00017494]
 [-0.0010497  -0.00030818]]",[],0.0,0.0
1787136556.4969332,1.5512343983479806,-1.478141401435791,0.8351886986431856,"[4.17389847e-07 1.35228356e-07 0.00000000e+00 0.00000000e+00
 0.00000000e+00 1.24808447e-08 1.35228356e-07 4.50531178e-07
 0.00000000e+00 0.00000000e+00 0.00000000e+00 2.73562875e-08
 0.00000000e+00 0.00000000e+00 0.00000000e+00 0.00000000e+00
 0.00000000e+00 0.00000000e+00 0.00000000e+00 0.00000000e+00
 0.00000000e+00 0.00000000e+00 0.00000000e+00 0.00000000e+00
 0.00000000e+00 0.00000000e+00 0.00000000e+00 0.00000000e+00
 0.00000000e+00 0.00000000e+00 1.24808447e-08 2.73562875e-08
 0.00000000e+00 0.00000000e+00 0.00000000e+00 1.35736893e-06]","[[-0.00096353  0.00017494]
 [-0.0010497  -0.00030818]]",[],0.0,0.0
1787136556.5474548,1.5512343983479806,-1.478141401435791,0.8351886986431856,"[4.17389847e-07 1.35228356e-07 0.00000000e+00 0.00000000e+00
 0.00000000e+00 1.24808447e-08 1.35228356e-07 4.50531178e-07
 0.00000000e+00 0.00000000e+00 0.00000000e+00 2.73562875e-08
 0.00000000e+00 0.00000000e+00 0.00000000e+00 0.00000000e+00
 0.00000000e+00 0.00000000e+00 0.00000000e+00 0.00000000e+00
 0.00000000e+00 0.00000000e+00 0.00000000e+00 0.00000000e+00
 0.00000000e+00 0.00000000e+00 0.00000000e+00 0.00000000e+00
 0.00000000e+00 0.00000000e+00 1.24808447e-08 2.73562875e-08
 0.00000000e+00 0.00000000e+00 0.00000000e+00 1.35736893e-06]","[[-0.00096353  0.00017494]
 [-0.0010497  -0.00030818]]",[],0.0,0.0
1787136556.5993054,1.5512343983479806,-1.478141401435791,0.8351886986431856,"[4.17389847e-07 1.35228356e-07 0.00000000e+00 0.00000000e+00
 0.00000000e+00 1.24808447e-08 1.35228356e-07 4.50531178e-07
 0.00000000e+00 0.00000000e+00 0.00000000e+00 2.73562875e-08
 0.00000000e+00 0.00000000e+00 0.00000000e+00 0.00000000e+00
 0.00000000e+00 0.00000000e+00 0.00000000e+00 0.00000000e+00
 0.00000000e+00 0.00000000e+00 0.00000000e+00 0.00000000e+00
 0.00000000e+00 0.00000000e+00 0.00000000e+00 0.00000000e+00
 0.00000000e+00 0.00000000e+00 1.24808447e-08 2.73562875e-08
 0.00000000e+00 0.00000000e+00 0.00000000e+00 1.35736893e-06]","[[-0.00096353  0.00017494]
 [-0.0010497  -0.00030818]]",[],0.0,0.0
1787136556.6485832,1.5512343983479806,-1.478141401435791,0.8351886986431856,"[4.17389847e-07 1.35228356e-07 0.00000000e+00 0.00000000e+00
 0.00000000e+00 1.24808447e-08 1.35228356e-07 4.50531178e-07
 0.00000000e+00 0.00000000e+00 0.00000000e+00 2.73562875e-08
 0.00000000e+00 0.00000000e+00 0.00000000e+00 0.00000000e+00
 0.00000000e+00 0.00000000e+00 0.00000000e+00 0.00000000e+00
 0.00000000e+00 0.00000000e+00 0.00000000e+00 0.00000000e+00
 0.00000000e+00 0.00000000e+00 0.00000000e+00 0.00000000e+00
 0.00000000e+00 0.00000000e+00 1.24808447e-08 2.73562875e-08
 0.00000000e+00 0.00000000e+00 0.00000000e+00 1.35736893e-06]","[[-0.00096353  0.00017494]
 [-0.0010497  -0.00030818]]",[],0.0,0.0
1787136556.6987252,1.5512343983479806,-1.478141401435791,0.8351886986431856,"[4.17389847e-07 1.35228356e-07 0.00000000e+00 0.00000000e+00
 0.00000000e+00 1.24808447e-08 1.35228356e-07 4.50531178e-07
 0.00000000e+00 0.00000000e+00 0.00000000e+00 2.73562875e-08
 0.00000000e+00 0.00000000e+00 0.00000000e+00 0.00000000e+00
 0.00000000e+00 0.00000000e+00 0.00000000e+00 0.00000000e+00
 0.00000000e+00 0.00000000e+00 0.00000000e+00 0.00000000e+00
 0.00000000e+00 0.00000000e+00 0.00000000e+00 0.00000000e+00
 0.00000000e+00 0.00000000e+00 1.24808447e-08 2.73562875e-08
 0.00000000e+00 0.00000000e+00 0.00000000e+00 1.35736893e-06]","[[-0.00096353  0.00017494]
 [-0.0010497  -0.00030818]]",[],0.0,0.0
1787136556.7665617,1.5512343983479806,-1.478141401435791,0.8351886986431856,"[4.17389847e-07 1.35228356e-07 0.00000000e+00 0.00000000e+00
 0.00000000e+00 1.24808447e-08 1.35228356e-07 4.50531178e-07
 0.00000000e+00 0.00000000e+00 0.00000000e+00 2.73562875e-08
 0.00000000e+00 0.00000000e+00 0.00000000e+00 0.00000000e+00
 0.00000000e+00 0.00000000e+00 0.00000000e+00 0.00000000e+00
 0.00000000e+00 0.00000000e+00 0.00000000e+00 0.00000000e+00
 0.00000000e+00 0.00000000e+00 0.00000000e+00 0.00000000e+00
 0.00000000e+00 0.00000000e+00 1.24808447e-08 2.73562875e-08
 0.00000000e+00 0.00000000e+00 0.00000000e+00 1.35736893e-06]","[[-0.00096353  0.00017494]
 [-0.0010497  -0.00030818]]",[],0.0,0.0
1787136556.7966716,1.5512343983479806,-1.478141401435791,0.8351886986431856,"[4.17389847e-07 1.35228356e-07 0.00000000e+00 0.00000000e+00
 0.00000000e+00 1.24808447e-08 1.35228356e-07 4.50531178e-07
 0.00000000e+00 0.00000000e+00 0.00000000e+00 2.73562875e-08
 0.00000000e+00 0.00000000e+00 0.00000000e+00 0.00000000e+00
 0.00000000e+00 0.00000000e+00 0.00000000e+00 0.00000000e+00
 0.00000000e+00 0.00000000e+00 0.00000000e+00 0.00000000e+00
 0.00000000e+00 0.00000000e+00 0.00000000e+00 0.00000000e+00
 0.00000000e+00 0.00000000e+00 1.24808447e-08 2.73562875e-08
 0.00000000e+00 0.00000000e+00 0.00000000e+00 1.35736893e-06]","[[-0.00096353  0.00017494]
 [-0.0010497  -0.00030818]]",[],0.0,0.0
1787136556.849873,1.5512343983479806,-1.478141401435791,0.8351886986431856,"[4.17389847e-07 1.35228356e-07 0.00000000e+00 0.00000000e+00
 0.00000000e+00 1.24808447e-08 1.35228356e-07 4.50531178e-07
 0.00000000e+00 0.00000000e+00 0.00000000e+00 2.73562875e-08
 0.00000000e+00 0.00000000e+00 0.00000000e+00 0.00000000e+00
 0.00000000e+00 0.00000000e+00 0.00000000e+00 0.00000000e+00
 0.00000000e+00 0.00000000e+00 0.00000000e+00 0.00000000e+00
 0.00000000e+00 0.00000000e+00 0.00000000e+00 0.00000000e+00
 0.00000000e+00 0.00000000e+00 1.24808447e-08 2.73562875e-08
 0.00000000e+00 0.00000000e+00 0.00000000e+00 1.35736893e-06]","[[-0.00096353  0.00017494]
 [-0.0010497  -0.00030818]]",[],0.0,0.0
1787136556.8979218,1.5496810451549785,-1.4770498353407435,0.8366832642289541,"[4.00583101e-07 1.41255095e-07 0.00000000e+00 0.00000000e+00
 0.00000000e+00 1.29252364e-08 1.41255095e-07 4.33877145e-07
 0.00000000e+00 0.00000000e+00 0.00000000e+00 2.58515399e-08
 0.00000000e+00 0.00000000e+00 0.00000000e+00 0.00000000e+00
 0.00000000e+00 0.00000000e+00 0.00000000e+00 0.00000000e+00
 0.00000000e+00 0.00000000e+00 0.00000000e+00 0.00000000e+00
 0.00000000e+00 0.00000000e+00 0.00000000e+00 0.00000000e+00
 0.00000000e+00 0.00000000e+00 1.29252364e-08 2.58515399e-08
 0.00000000e+00 0.00000000e+00 0.00000000e+00 1.36562739e-06]","[[-0.00098291  0.00012007]
 [-0.00098486 -0.00031761]]",[],0.0,0.0
1787136556.9482498,1.5496810451549785,-1.4770498353407435,0.8366832642289541,"[4.00583101e-07 1.41255095e-07 0.00000000e+00 0.00000000e+00
 0.00000000e+00 1.29252364e-08 1.41255095e-07 4.33877145e-07
 0.00000000e+00 0.00000000e+00 0.00000000e+00 2.58515399e-08
 0.00000000e+00 0.00000000e+00 0.00000000e+00 0.00000000e+00
 0.00000000e+00 0.00000000e+00 0.00000000e+00 0.00000000e+00
 0.00000000e+00 0.00000000e+00 0.00000000e+00 0.00000000e+00
 0.00000000e+00 0.00000000e+00 0.00000000e+00 0.00000000e+00
 0.00000000e+00 0.00000000e+00 1.29252364e-08 2.58515399e-08
 0.00000000e+00 0.00000000e+00 0.00000000e+00 1.36562739e-06]","[[-0.00098291  0.00012007]
 [-0.00098486 -0.00031761]]",[],0.0,0.0
1787136556.9973247,1.5496810451549785,-1.4770498353407435,0.8366832642289541,"[4.00583101e-07 1.41255095e-07 0.00000000e+00 0.00000000e+00
 0.00000000e+00 1.29252364e-08 1.41255095e-07 4.33877145e-07
 0.00000000e+00 0.00000000e+00 0.00000000e+00 2.58515399e-08
 0.00000000e+00 0.00000000e+00 0.00000000e+00 0.00000000e+00
 0.00000000e+00 0.00000000e+00 0.00000000e+00 0.00000000e+00
 0.00000000e+00 0.00000000e+00 0.00000000e+00 0.00000000e+00
 0.00000000e+00 0.00000000e+00 0.00000000e+00 0.00000000e+00
 0.00000000e+00 0.00000000e+00 1.29252364e-08 2.58515399e-08
 0.00000000e+00 0.00000000e+00 0.00000000e+00 1.36562739e-06]","[[-0.00098291  0.00012007]
 [-0.00098486 -0.00031761]]",[],0.0,0.0
1787136557.066216,1.5496810451549785,-1.4770498353407435,0.8366832642289541,"[4.00583101e-07 1.41255095e-07 0.00000000e+00 0.00000000e+00
 0.00000000e+00 1.29252364e-08 1.41255095e-07 4.33877145e-07
 0.00000000e+00 0.00000000e+00 0.00000000e+00 2.58515399e-08
 0.00000000e+00 0.00000000e+00 0.00000000e+00 0.00000000e+00
 0.00000000e+00 0.00000000e+00 0.00000000e+00 0.00000000e+00
 0.00000000e+00 0.00000000e+00 0.00000000e+00 0.00000000e+00
 0.00000000e+00 0.00000000e+00 0.00000000e+00 0.00000000e+00
 0.00000000e+00 0.00000000e+00 1.29252364e-08 2.58515399e-08
 0.00000000e+00 0.00000000e+00 0.00000000e+00 1.36562739e-06]","[[-0.00098291  0.00012007]
 [-0.00098486 -0.00031761]]",[],0.0,0.0
1787136557.0967011,1.5496810451549785,-1.4770498353407435,0.8366832642289541,"[4.00583101e-07 1.41255095e-07 0.00000000e+00 0.00000000e+00
 0.00000000e+00 1.29252364e-08 1.41255095e-07 4.33877145e-07
 0.00000000e+00 0.00000000e+00 0.00000000e+00 2.58515399e-08
 0.00000000e+00 0.00000000e+00 0.00000000e+00 0.00000000e+00
 0.00000000e+00 0.00000000e+00 0.00000000e+00 0.00000000e+00
 0.00000000e+00 0.00000000e+00 0.00000000e+00 0.00000000e+00
 0.00000000e+00 0.00000000e+00 0.00000000e+00 0.00000000e+00
 0.00000000e+00 0.00000000e+00 1.29252364e-08 2.58515399e-08
 0.00000000e+00 0.00000000e+00 0.00000000e+00 1.36562739e-06]","[[-0.00098291  0.00012007]
 [-0.00098486 -0.00031761]]",[],0.0,0.0
1787136557.177019,1.5496810451549785,-1.4770498353407435,0.8366832642289541,"[4.00583101e-07 1.41255095e-07 0.00000000e+00 0.00000000e+00
 0.00000000e+00 1.29252364e-08 1.41255095e-07 4.33877145e-07
 0.00000000e+00 0.00000000e+00 0.00000000e+00 2.58515399e-08
 0.00000000e+00 0.00000000e+00 0.00000000e+00 0.00000000e+00
 0.00000000e+00 0.00000000e+00 0.00000000e+00 0.00000000e+00
 0.00000000e+00 0.00000000e+00 0.00000000e+00 0.00000000e+00
 0.00000000e+00 0.00000000e+00 0.00000000e+00 0.00000000e+00
 0.00000000e+00 0.00000000e+00 1.29252364e-08 2.58515399e-08
 0.00000000e+00 0.00000000e+00 0.00000000e+00 1.36562739e-06]","[[-0.00098291  0.00012007]
 [-0.00098486 -0.00031761]]",[],0.0,0.0
1787136557.2249513,1.5496810451549785,-1.4770498353407435,0.8366832642289541,"[4.00583101e-07 1.41255095e-07 0.00000000e+00 0.00000000e+00
 0.00000000e+00 1.29252364e-08 1.41255095e-07 4.33877145e-07
 0.00000000e+00 0.00000000e+00 0.00000000e+00 2.58515399e-08
 0.00000000e+00 0.00000000e+00 0.00000000e+00 0.00000000e+00
 0.00000000e+00 0.00000000e+00 0.00000000e+00 0.00000000e+00
 0.00000000e+00 0.00000000e+00 0.00000000e+00 0.00000000e+00
 0.00000000e+00 0.00000000e+00 0.00000000e+00 0.00000000e+00
 0.00000000e+00 0.00000000e+00 1.29252364e-08 2.58515399e-08
 0.00000000e+00 0.00000000e+00 0.00000000e+00 1.36562739e-06]","[[-0.00098291  0.00012007]
 [-0.00098486 -0.00031761]]",[],0.0,0.0
1787136557.248379,1.5496810451549785,-1.4770498353407435,0.8366832642289541,"[4.00583101e-07 1.41255095e-07 0.00000000e+00 0.00000000e+00
 0.00000000e+00 1.29252364e-08 1.41255095e-07 4.33877145e-07
 0.00000000e+00 0.00000000e+00 0.00000000e+00 2.58515399e-08
 0.00000000e+00 0.00000000e+00 0.00000000e+00 0.00000000e+00
 0.00000000e+00 0.00000000e+00 0.00000000e+00 0.00000000e+00
 0.00000000e+00 0.00000000e+00 0.00000000e+00 0.00000000e+00
 0.00000000e+00 0.00000000e+00 0.00000000e+00 0.00000000e+00
 0.00000000e+00 0.00000000e+00 1.29252364e-08 2.58515399e-08
 0.00000000e+00 0.00000000e+00 0.00000000e+00 1.36562739e-06]","[[-0.00098291  0.00012007]
 [-0.00098486 -0.00031761]]",[],0.0,0.0
1787136557.3030918,1.5496810451549785,-1.4770498353407435,0.8366832642289541,"[4.00583101e-07 1.41255095e-07 0.00000000e+00 0.00000000e+00
 0.00000000e+00 1.29252364e-08 1.41255095e-07 4.33877145e-07
 0.00000000e+00 0.00000000e+00 0.00000000e+00 2.58515399e-08
 0.00000000e+00 0.00000000e+00 0.00000000e+00 0.00000000e+00
 0.00000000e+00 0.00000000e+00 0.00000000e+00 0.00000000e+00
 0.00000000e+00 0.00000000e+00 0.00000000e+00 0.00000000e+00
 0.00000000e+00 0.00000000e+00 0.00000000e+00 0.00000000e+00
 0.00000000e+00 0.00000000e+00 1.29252364e-08 2.58515399e-08
 0.00000000e+00 0.00000000e+00 0.00000000e+00 1.36562739e-06]","[[-0.00098291  0.00012007]
 [-0.00098486 -0.00031761]]",[],0.0,0.0
1787136557.3736153,1.5496810451549785,-1.4770498353407435,0.8366832642289541,"[4.00583101e-07 1.41255095e-07 0.00000000e+00 0.00000000e+00
 0.00000000e+00 1.29252364e-08 1.41255095e-07 4.33877145e-07
 0.00000000e+00 0.00000000e+00 0.00000000e+00 2.58515399e-08
 0.00000000e+00 0.00000000e+00 0.00000000e+00 0.00000000e+00
 0.00000000e+00 0.00000000e+00 0.00000000e+00 0.00000000e+00
 0.00000000e+00 0.00000000e+00 0.00000000e+00 0.00000000e+00
 0.00000000e+00 0.00000000e+00 0.00000000e+00 0.00000000e+00
 0.00000000e+00 0.00000000e+00 1.29252364e-08 2.58515399e-08
 0.00000000e+00 0.00000000e+00 0.00000000e+00 1.36562739e-06]","[[-0.00098291  0.00012007]
 [-0.00098486 -0.00031761]]",[],0.0,0.0
1787136557.4007359,1.5484946303497358,-1.4757524062185328,0.839232001505097,"[3.81927021e-07 1.42868531e-07 0.00000000e+00 0.00000000e+00
 0.00000000e+00 1.51408830e-08 1.42868531e-07 4.17712938e-07
 0.00000000e+00 0.00000000e+00 0.00000000e+00 2.93160840e-08
 0.00000000e+00 0.00000000e+00 0.00000000e+00 0.00000000e+00
 0.00000000e+00 0.00000000e+00 0.00000000e+00 0.00000000e+00
 0.00000000e+00 0.00000000e+00 0.00000000e+00 0.00000000e+00
 0.00000000e+00 0.00000000e+00 0.00000000e+00 0.00000000e+00
 0.00000000e+00 0.00000000e+00 1.51408830e-08 2.93160840e-08
 0.00000000e+00 0.00000000e+00 0.00000000e+00 1.35973294e-06]","[[-0.00091693  0.0001338 ]
 [-0.00100275 -0.00028616]]",[],0.0,0.0
1787136557.4473534,1.5484946303497358,-1.4757524062185328,0.839232001505097,"[3.81927021e-07 1.42868531e-07 0.00000000e+00 0.00000000e+00
 0.00000000e+00 1.51408830e-08 1.42868531e-07 4.17712938e-07
 0.00000000e+00 0.00000000e+00 0.00000000e+00 2.93160840e-08
 0.00000000e+00 0.00000000e+00 0.00000000e+00 0.00000000e+00
 0.00000000e+00 0.00000000e+00 0.00000000e+00 0.00000000e+00
 0.00000000e+00 0.00000000e+00 0.00000000e+00 0.00000000e+00
 0.00000000e+00 0.00000000e+00 0.00000000e+00 0.00000000e+00
 0.00000000e+00 0.00000000e+00 1.51408830e-08 2.93160840e-08
 0.00000000e+00 0.00000000e+00 0.00000000e+00 1.35973294e-06]","[[-0.00091693  0.0001338 ]
 [-0.00100275 -0.00028616]]",[],0.0,0.0
1787136557.5169044,1.5484946303497358,-1.4757524062185328,0.839232001505097,"[3.81927021e-07 1.42868531e-07 0.00000000e+00 0.00000000e+00
 0.00000000e+00 1.51408830e-08 1.42868531e-07 4.17712938e-07
 0.00000000e+00 0.00000000e+00 0.00000000e+00 2.93160840e-08
 0.00000000e+00 0.00000000e+00 0.00000000e+00 0.00000000e+00
 0.00000000e+00 0.00000000e+00 0.00000000e+00 0.00000000e+00
 0.00000000e+00 0.00000000e+00 0.00000000e+00 0.00000000e+00
 0.00000000e+00 0.00000000e+00 0.00000000e+00 0.00000000e+00
 0.00000000e+00 0.00000000e+00 1.51408830e-08 2.93160840e-08
 0.00000000e+00 0.00000000e+00 0.00000000e+00 1.35973294e-06]","[[-0.00091693  0.0001338 ]
 [-0.00100275 -0.00028616]]",[],0.0,0.0
1787136557.547509,1.5484946303497358,-1.4757524062185328,0.839232001505097,"[3.81927021e-07 1.42868531e-07 0.00000000e+00 0.00000000e+00
 0.00000000e+00 1.51408830e-08 1.42868531e-07 4.17712938e-07
 0.00000000e+00 0.00000000e+00 0.00000000e+00 2.93160840e-08
 0.00000000e+00 0.00000000e+00 0.00000000e+00 0.00000000e+00
 0.00000000e+00 0.00000000e+00 0.00000000e+00 0.00000000e+00
 0.00000000e+00 0.00000000e+00 0.00000000e+00 0.00000000e+00
 0.00000000e+00 0.00000000e+00 0.00000000e+00 0.00000000e+00
 0.00000000e+00 0.00000000e+00 1.51408830e-08 2.93160840e-08
 0.00000000e+00 0.00000000e+00 0.00000000e+00 1.35973294e-06]","[[-0.00091693  0.0001338 ]
 [-0.00100275 -0.00028616]]",[],0.0,0.0
1787136557.6011782,1.5484946303497358,-1.4757524062185328,0.839232001505097,"[3.81927021e-07 1.42868531e-07 0.00000000e+00 0.00000000e+00
 0.00000000e+00 1.51408830e-08 1.42868531e-07 4.17712938e-07
 0.00000000e+00 0.00000000e+00 0.00000000e+00 2.93160840e-08
 0.00000000e+00 0.00000000e+00 0.00000000e+00 0.00000000e+00
 0.00000000e+00 0.00000000e+00 0.00000000e+00 0.00000000e+00
 0.00000000e+00 0.00000000e+00 0.00000000e+00 0.00000000e+00
 0.00000000e+00 0.00000000e+00 0.00000000e+00 0.00000000e+00
 0.00000000e+00 0.00000000e+00 1.51408830e-08 2.93160840e-08
 0.00000000e+00 0.00000000e+00 0.00000000e+00 1.35973294e-06]","[[-0.00091693  0.0001338 ]
 [-0.00100275 -0.00028616]]",[],0.0,0.0
1787136557.6502023,1.5484946303497358,-1.4757524062185328,0.839232001505097,"[3.81927021e-07 1.42868531e-07 0.00000000e+00 0.00000000e+00
 0.00000000e+00 1.51408830e-08 1.42868531e-07 4.17712938e-07
 0.00000000e+00 0.00000000e+00 0.00000000e+00 2.93160840e-08
 0.00000000e+00 0.00000000e+00 0.00000000e+00 0.00000000e+00
 0.00000000e+00 0.00000000e+00 0.00000000e+00 0.00000000e+00
 0.00000000e+00 0.00000000e+00 0.00000000e+00 0.00000000e+00
 0.00000000e+00 0.00000000e+00 0.00000000e+00 0.00000000e+00
 0.00000000e+00 0.00000000e+00 1.51408830e-08 2.93160840e-08
 0.00000000e+00 0.00000000e+00 0.00000000e+00 1.35973294e-06]","[[-0.00091693  0.0001338 ]
 [-0.00100275 -0.00028616]]",[],0.0,0.0
1787136557.706147,1.5484946303497358,-1.4757524062185328,0.839232001505097,"[3.81927021e-07 1.42868531e-07 0.00000000e+00 0.00000000e+00
 0.00000000e+00 1.51408830e-08 1.42868531e-07 4.17712938e-07
 0.00000000e+00 0.00000000e+00 0.00000000e+00 2.93160840e-08
 0.00000000e+00 0.00000000e+00 0.00000000e+00 0.00000000e+00
 0.00000000e+00 0.00000000e+00 0.00000000e+00 0.00000000e+00
 0.00000000e+00 0.00000000e+00 0.00000000e+00 0.00000000e+00
 0.00000000e+00 0.00000000e+00 0.00000000e+00 0.00000000e+00
 0.00000000e+00 0.00000000e+00 1.51408830e-08 2.93160840e-08
 0.00000000e+00 0.00000000e+00 0.00000000e+00 1.35973294e-06]","[[-0.00091693  0.0001338 ]
 [-0.00100275 -0.00028616]]",[],0.0,0.0
1787136557.7468789,1.5484946303497358,-1.4757524062185328,0.839232001505097,"[3.81927021e-07 1.42868531e-07 0.00000000e+00 0.00000000e+00
 0.00000000e+00 1.51408830e-08 1.42868531e-07 4.17712938e-07
 0.00000000e+00 0.00000000e+00 0.00000000e+00 2.93160840e-08
 0.00000000e+00 0.00000000e+00 0.00000000e+00 0.00000000e+00
 0.00000000e+00 0.00000000e+00 0.00000000e+00 0.00000000e+00
 0.00000000e+00 0.00000000e+00 0.00000000e+00 0.00000000e+00
 0.00000000e+00 0.00000000e+00 0.00000000e+00 0.00000000e+00
 0.00000000e+00 0.00000000e+00 1.51408830e-08 2.93160840e-08
 0.00000000e+00 0.00000000e+00 0.00000000e+00 1.35973294e-06]","[[-0.00091693  0.0001338 ]
 [-0.00100275 -0.00028616]]",[],0.0,0.0
1787136557.7971828,1.5484946303497358,-1.4757524062185328,0.839232001505097,"[3.81927021e-07 1.42868531e-07 0.00000000e+00 0.00000000e+00
 0.00000000e+00 1.51408830e-08 1.42868531e-07 4.17712938e-07
 0.00000000e+00 0.00000000e+00 0.00000000e+00 2.93160840e-08
 0.00000000e+00 0.00000000e+00 0.00000000e+00 0.00000000e+00
 0.00000000e+00 0.00000000e+00 0.00000000e+00 0.00000000e+00
 0.00000000e+00 0.00000000e+00 0.00000000e+00 0.00000000e+00
 0.00000000e+00 0.00000000e+00 0.00000000e+00 0.00000000e+00
 0.00000000e+00 0.00000000e+00 1.51408830e-08 2.93160840e-08
 0.00000000e+00 0.00000000e+00 0.00000000e+00 1.35973294e-06]","[[-0.00091693  0.0001338 ]
 [-0.00100275 -0.00028616]]",[],0.0,0.0
1787136557.8571117,1.5484946303497358,-1.4757524062185328,0.839232001505097,"[3.81927021e-07 1.42868531e-07 0.00000000e+00 0.00000000e+00
 0.00000000e+00 1.51408830e-08 1.42868531e-07 4.17712938e-07
 0.00000000e+00 0.00000000e+00 0.00000000e+00 2.93160840e-08
 0.00000000e+00 0.00000000e+00 0.00000000e+00 0.00000000e+00
 0.00000000e+00 0.00000000e+00 0.00000000e+00 0.00000000e+00
 0.00000000e+00 0.00000000e+00 0.00000000e+00 0.00000000e+00
 0.00000000e+00 0.00000000e+00 0.00000000e+00 0.00000000e+00
 0.00000000e+00 0.00000000e+00 1.51408830e-08 2.93160840e-08
 0.00000000e+00 0.00000000e+00 0.00000000e+00 1.35973294e-06]","[[-0.00091693  0.0001338 ]
 [-0.00100275 -0.00028616]]",[],0.0,0.0
1787136557.904007,1.5484946303497358,-1.4757524062185328,0.839232001505097,"[3.81927021e-07 1.42868531e-07 0.00000000e+00 0.00000000e+00
 0.00000000e+00 1.51408830e-08 1.42868531e-07 4.17712938e-07
 0.00000000e+00 0.00000000e+00 0.00000000e+00 2.93160840e-08
 0.00000000e+00 0.00000000e+00 0.00000000e+00 0.00000000e+00
 0.00000000e+00 0.00000000e+00 0.00000000e+00 0.00000000e+00
 0.00000000e+00 0.00000000e+00 0.00000000e+00 0.00000000e+00
 0.00000000e+00 0.00000000e+00 0.00000000e+00 0.00000000e+00
 0.00000000e+00 0.00000000e+00 1.51408830e-08 2.93160840e-08
 0.00000000e+00 0.00000000e+00 0.00000000e+00 1.35973294e-06]","[[-0.00091693  0.0001338 ]
 [-0.00100275 -0.00028616]]",[],0.0,0.0
1787136557.9473877,1.5484946303497358,-1.4757524062185328,0.839232001505097,"[3.81927021e-07 1.42868531e-07 0.00000000e+00 0.00000000e+00
 0.00000000e+00 1.51408830e-08 1.42868531e-07 4.17712938e-07
 0.00000000e+00 0.00000000e+00 0.00000000e+00 2.93160840e-08
 0.00000000e+00 0.00000000e+00 0.00000000e+00 0.00000000e+00
 0.00000000e+00 0.00000000e+00 0.00000000e+00 0.00000000e+00
 0.00000000e+00 0.00000000e+00 0.00000000e+00 0.00000000e+00
 0.00000000e+00 0.00000000e+00 0.00000000e+00 0.00000000e+00
 0.00000000e+00 0.00000000e+00 1.51408830e-08 2.93160840e-08
 0.00000000e+00 0.00000000e+00 0.00000000e+00 1.35973294e-06]","[[-0.00091693  0.0001338 ]
 [-0.00100275 -0.00028616]]",[],0.0,0.0
1787136558.0005727,1.5484946303497358,-1.4757524062185328,0.839232001505097,"[3.81927021e-07 1.42868531e-07 0.00000000e+00 0.00000000e+00
 0.00000000e+00 1.51408830e-08 1.42868531e-07 4.17712938e-07
 0.00000000e+00 0.00000000e+00 0.00000000e+00 2.93160840e-08
 0.00000000e+00 0.00000000e+00 0.00000000e+00 0.00000000e+00
 0.00000000e+00 0.00000000e+00 0.00000000e+00 0.00000000e+00
 0.00000000e+00 0.00000000e+00 0.00000000e+00 0.00000000e+00
 0.00000000e+00 0.00000000e+00 0.00000000e+00 0.00000000e+00
 0.00000000e+00 0.00000000e+00 1.51408830e-08 2.93160840e-08
 0.00000000e+00 0.00000000e+00 0.00000000e+00 1.35973294e-06]","[[-0.00091693  0.0001338 ]
 [-0.00100275 -0.00028616]]",[],0.0,0.0
1787136558.0473797,1.5484946303497358,-1.4757524062185328,0.839232001505097,"[3.81927021e-07 1.42868531e-07 0.00000000e+00 0.00000000e+00
 0.00000000e+00 1.51408830e-08 1.42868531e-07 4.17712938e-07
 0.00000000e+00 0.00000000e+00 0.00000000e+00 2.93160840e-08
 0.00000000e+00 0.00000000e+00 0.00000000e+00 0.00000000e+00
 0.00000000e+00 0.00000000e+00 0.00000000e+00 0.00000000e+00
 0.00000000e+00 0.00000000e+00 0.00000000e+00 0.00000000e+00
 0.00000000e+00 0.00000000e+00 0.00000000e+00 0.00000000e+00
 0.00000000e+00 0.00000000e+00 1.51408830e-08 2.93160840e-08
 0.00000000e+00 0.00000000e+00 0.00000000e+00 1.35973294e-06]","[[-0.00091693  0.0001338 ]
 [-0.00100275 -0.00028616]]",[],0.0,0.0
1787136558.099204,1.5484946303497358,-1.4757524062185328,0.839232001505097,"[3.81927021e-07 1.42868531e-07 0.00000000e+00 0.00000000e+00
 0.00000000e+00 1.51408830e-08 1.42868531e-07 4.17712938e-07
 0.00000000e+00 0.00000000e+00 0.00000000e+00 2.93160840e-08
 0.00000000e+00 0.00000000e+00 0.00000000e+00 0.00000000e+00
 0.00000000e+00 0.00000000e+00 0.00000000e+00 0.00000000e+00
 0.00000000e+00 0.00000000e+00 0.00000000e+00 0.00000000e+00
 0.00000000e+00 0.00000000e+00 0.00000000e+00 0.00000000e+00
 0.00000000e+00 0.00000000e+00 1.51408830e-08 2.93160840e-08
 0.00000000e+00 0.00000000e+00 0.00000000e+00 1.35973294e-06]","[[-0.00091693  0.0001338 ]
 [-0.00100275 -0.00028616]]",[],0.0,0.0
1787136558.147412,1.5484946303497358,-1.4757524062185328,0.839232001505097,"[3.81927021e-07 1.42868531e-07 0.00000000e+00 0.00000000e+00
 0.00000000e+00 1.51408830e-08 1.42868531e-07 4.17712938e-07
 0.00000000e+00 0.00000000e+00 0.00000000e+00 2.93160840e-08
 0.00000000e+00 0.00000000e+00 0.00000000e+00 0.00000000e+00
 0.00000000e+00 0.00000000e+00 0.00000000e+00 0.00000000e+00
 0.00000000e+00 0.00000000e+00 0.00000000e+00 0.00000000e+00
 0.00000000e+00 0.00000000e+00 0.00000000e+00 0.00000000e+00
 0.00000000e+00 0.00000000e+00 1.51408830e-08 2.93160840e-08
 0.00000000e+00 0.00000000e+00 0.00000000e+00 1.35973294e-06]","[[-0.00091693  0.0001338 ]
 [-0.00100275 -0.00028616]]",[],0.0,0.0
1787136558.200225,1.5484946303497358,-1.4757524062185328,0.839232001505097,"[3.81927021e-07 1.42868531e-07 0.00000000e+00 0.00000000e+00
 0.00000000e+00 1.51408830e-08 1.42868531e-07 4.17712938e-07
 0.00000000e+00 0.00000000e+00 0.00000000e+00 2.93160840e-08
 0.00000000e+00 0.00000000e+00 0.00000000e+00 0.00000000e+00
 0.00000000e+00 0.00000000e+00 0.00000000e+00 0.00000000e+00
 0.00000000e+00 0.00000000e+00 0.00000000e+00 0.00000000e+00
 0.00000000e+00 0.00000000e+00 0.00000000e+00 0.00000000e+00
 0.00000000e+00 0.00000000e+00 1.51408830e-08 2.93160840e-08
 0.00000000e+00 0.00000000e+00 0.00000000e+00 1.35973294e-06]","[[-0.00091693  0.0001338 ]
 [-0.00100275 -0.00028616]]",[],0.0,0.0
1787136558.2483988,1.5484946303497358,-1.4757524062185328,0.839232001505097,"[3.81927021e-07 1.42868531e-07 0.00000000e+00 0.00000000e+00
 0.00000000e+00 1.51408830e-08 1.42868531e-07 4.17712938e-07
 0.00000000e+00 0.00000000e+00 0.00000000e+00 2.93160840e-08
 0.00000000e+00 0.00000000e+00 0.00000000e+00 0.00000000e+00
 0.00000000e+00 0.00000000e+00 0.00000000e+00 0.00000000e+00
 0.00000000e+00 0.00000000e+00 0.00000000e+00 0.00000000e+00
 0.00000000e+00 0.00000000e+00 0.00000000e+00 0.00000000e+00
 0.00000000e+00 0.00000000e+00 1.51408830e-08 2.93160840e-08
 0.00000000e+00 0.00000000e+00 0.00000000e+00 1.35973294e-06]","[[-0.00091693  0.0001338 ]
 [-0.00100275 -0.00028616]]",[],0.0,0.0
1787136558.2974792,1.5484946303497358,-1.4757524062185328,0.839232001505097,"[3.81927021e-07 1.42868531e-07 0.00000000e+00 0.00000000e+00
 0.00000000e+00 1.51408830e-08 1.42868531e-07 4.17712938e-07
 0.00000000e+00 0.00000000e+00 0.00000000e+00 2.93160840e-08
 0.00000000e+00 0.00000000e+00 0.00000000e+00 0.00000000e+00
 0.00000000e+00 0.00000000e+00 0.00000000e+00 0.00000000e+00
 0.00000000e+00 0.00000000e+00 0.00000000e+00 0.00000000e+00
 0.00000000e+00 0.00000000e+00 0.00000000e+00 0.00000000e+00
 0.00000000e+00 0.00000000e+00 1.51408830e-08 2.93160840e-08
 0.00000000e+00 0.00000000e+00 0.00000000e+00 1.35973294e-06]","[[-0.00091693  0.0001338 ]
 [-0.00100275 -0.00028616]]",[],0.0,0.0
1787136558.3474975,1.5484946303497358,-1.4757524062185328,0.839232001505097,"[3.81927021e-07 1.42868531e-07 0.00000000e+00 0.00000000e+00
 0.00000000e+00 1.51408830e-08 1.42868531e-07 4.17712938e-07
 0.00000000e+00 0.00000000e+00 0.00000000e+00 2.93160840e-08
 0.00000000e+00 0.00000000e+00 0.00000000e+00 0.00000000e+00
 0.00000000e+00 0.00000000e+00 0.00000000e+00 0.00000000e+00
 0.00000000e+00 0.00000000e+00 0.00000000e+00 0.00000000e+00
 0.00000000e+00 0.00000000e+00 0.00000000e+00 0.00000000e+00
 0.00000000e+00 0.00000000e+00 1.51408830e-08 2.93160840e-08
 0.00000000e+00 0.00000000e+00 0.00000000e+00 1.35973294e-06]","[[-0.00091693  0.0001338 ]
 [-0.00100275 -0.00028616]]",[],0.0,0.0
1787136558.3985407,0.198853886865193,-1.0908150368652312,0.09797070008631041,"[4.19000589e-07 1.20313731e-07 0.00000000e+00 0.00000000e+00
 0.00000000e+00 3.18607310e-08 1.20313731e-07 3.69580097e-07
 0.00000000e+00 0.00000000e+00 0.00000000e+00 1.56870986e-08
 0.00000000e+00 0.00000000e+00 0.00000000e+00 0.00000000e+00
 0.00000000e+00 0.00000000e+00 0.00000000e+00 0.00000000e+00
 0.00000000e+00 0.00000000e+00 0.00000000e+00 0.00000000e+00
 0.00000000e+00 0.00000000e+00 0.00000000e+00 0.00000000e+00
 0.00000000e+00 0.00000000e+00 3.18607310e-08 1.56870986e-08
 0.00000000e+00 0.00000000e+00 0.00000000e+00 1.33943387e-06]","[[-0.00107091 -0.00019056]
 [-0.00038531 -0.00043078]]",[],0.0,0.0
1787136558.4482236,0.198853886865193,-1.0908150368652312,0.09797070008631041,"[4.19000589e-07 1.20313731e-07 0.00000000e+00 0.00000000e+00
 0.00000000e+00 3.18607310e-08 1.20313731e-07 3.69580097e-07
 0.00000000e+00 0.00000000e+00 0.00000000e+00 1.56870986e-08
 0.00000000e+00 0.00000000e+00 0.00000000e+00 0.00000000e+00
 0.00000000e+00 0.00000000e+00 0.00000000e+00 0.00000000e+00
 0.00000000e+00 0.00000000e+00 0.00000000e+00 0.00000000e+00
 0.00000000e+00 0.00000000e+00 0.00000000e+00 0.00000000e+00
 0.00000000e+00 0.00000000e+00 3.18607310e-08 1.56870986e-08
 0.00000000e+00 0.00000000e+00 0.00000000e+00 1.33943387e-06]","[[-0.00107091 -0.00019056]
 [-0.00038531 -0.00043078]]",[],0.0,0.0
1787136558.5086517,0.198853886865193,-1.0908150368652312,0.09797070008631041,"[4.19000589e-07 1.20313731e-07 0.00000000e+00 0.00000000e+00
 0.00000000e+00 3.18607310e-08 1.20313731e-07 3.69580097e-07
 0.00000000e+00 0.00000000e+00 0.00000000e+00 1.56870986e-08
 0.00000000e+00 0.00000000e+00 0.00000000e+00 0.00000000e+00
 0.00000000e+00 0.00000000e+00 0.00000000e+00 0.00000000e+00
 0.00000000e+00 0.00000000e+00 0.00000000e+00 0.00000000e+00
 0.00000000e+00 0.00000000e+00 0.00000000e+00 0.00000000e+00
 0.00000000e+00 0.00000000e+00 3.18607310e-08 1.56870986e-08
 0.00000000e+00 0.00000000e+00 0.00000000e+00 1.33943387e-06]","[[-0.00107091 -0.00019056]
 [-0.00038531 -0.00043078]]",[],0.0,0.0
1787136558.5467484,0.198853886865193,-1.0908150368652312,0.09797070008631041,"[4.19000589e-07 1.20313731e-07 0.00000000e+00 0.00000000e+00
 0.00000000e+00 3.18607310e-08 1.20313731e-07 3.69580097e-07
 0.00000000e+00 0.00000000e+00 0.00000000e+00 1.56870986e-08
 0.00000000e+00 0.00000000e+00 0.00000000e+00 0.00000000e+00
 0.00000000e+00 0.00000000e+00 0.00000000e+00 0.00000000e+00
 0.00000000e+00 0.00000000e+00 0.00000000e+00 0.00000000e+00
 0.00000000e+00 0.00000000e+00 0.00000000e+00 0.00000000e+00
 0.00000000e+00 0.00000000e+00 3.18607310e-08 1.56870986e-08
 0.00000000e+00 0.00000000e+00 0.00000000e+00 1.33943387e-06]","[[-0.00107091 -0.00019056]
 [-0.00038531 -0.00043078]]",[],0.0,0.0
1787136558.5968404,0.198853886865193,-1.0908150368652312,0.09797070008631041,"[4.19000589e-07 1.20313731e-07 0.00000000e+00 0.00000000e+00
 0.00000000e+00 3.18607310e-08 1.20313731e-07 3.69580097e-07
 0.00000000e+00 0.00000000e+00 0.00000000e+00 1.56870986e-08
 0.00000000e+00 0.00000000e+00 0.00000000e+00 0.00000000e+00
 0.00000000e+00 0.00000000e+00 0.00000000e+00 0.00000000e+00
 0.00000000e+00 0.00000000e+00 0.00000000e+00 0.00000000e+00
 0.00000000e+00 0.00000000e+00 0.00000000e+00 0.00000000e+00
 0.00000000e+00 0.00000000e+00 3.18607310e-08 1.56870986e-08
 0.00000000e+00 0.00000000e+00 0.00000000e+00 1.33943387e-06]","[[-0.00107091 -0.00019056]
 [-0.00038531 -0.00043078]]",[],0.0,0.0
1787136558.6477928,0.198853886865193,-1.0908150368652312,0.09797070008631041,"[4.19000589e-07 1.20313731e-07 0.00000000e+00 0.00000000e+00
 0.00000000e+00 3.18607310e-08 1.20313731e-07 3.69580097e-07
 0.00000000e+00 0.00000000e+00 0.00000000e+00 1.56870986e-08
 0.00000000e+00 0.00000000e+00 0.00000000e+00 0.00000000e+00
 0.00000000e+00 0.00000000e+00 0.00000000e+00 0.00000000e+00
 0.00000000e+00 0.00000000e+00 0.00000000e+00 0.00000000e+00
 0.00000000e+00 0.00000000e+00 0.00000000e+00 0.00000000e+00
 0.00000000e+00 0.00000000e+00 3.18607310e-08 1.56870986e-08
 0.00000000e+00 0.00000000e+00 0.00000000e+00 1.33943387e-06]","[[-0.00107091 -0.00019056]
 [-0.00038531 -0.00043078]]",[],0.0,0.0
1787136558.6976016,0.198853886865193,-1.0908150368652312,0.09797070008631041,"[4.19000589e-07 1.20313731e-07 0.00000000e+00 0.00000000e+00
 0.00000000e+00 3.18607310e-08 1.20313731e-07 3.69580097e-07
 0.00000000e+00 0.00000000e+00 0.00000000e+00 1.56870986e-08
 0.00000000e+00 0.00000000e+00 0.00000000e+00 0.00000000e+00
 0.00000000e+00 0.00000000e+00 0.00000000e+00 0.00000000e+00
 0.00000000e+00 0.00000000e+00 0.00000000e+00 0.00000000e+00
 0.00000000e+00 0.00000000e+00 0.00000000e+00 0.00000000e+00
 0.00000000e+00 0.00000000e+00 3.18607310e-08 1.56870986e-08
 0.00000000e+00 0.00000000e+00 0.00000000e+00 1.33943387e-06]","[[-0.00107091 -0.00019056]
 [-0.00038531 -0.00043078]]",[],0.0,0.0
1787136558.7472315,0.198853886865193,-1.0908150368652312,0.09797070008631041,"[4.19000589e-07 1.20313731e-07 0.00000000e+00 0.00000000e+00
 0.00000000e+00 3.18607310e-08 1.20313731e-07 3.69580097e-07
 0.00000000e+00 0.00000000e+00 0.00000000e+00 1.56870986e-08
 0.00000000e+00 0.00000000e+00 0.00000000e+00 0.00000000e+00
 0.00000000e+00 0.00000000e+00 0.00000000e+00 0.00000000e+00
 0.00000000e+00 0.00000000e+00 0.00000000e+00 0.00000000e+00
 0.00000000e+00 0.00000000e+00 0.00000000e+00 0.00000000e+00
 0.00000000e+00 0.00000000e+00 3.18607310e-08 1.56870986e-08
 0.00000000e+00 0.00000000e+00 0.00000000e+00 1.33943387e-06]","[[-0.00107091 -0.00019056]
 [-0.00038531 -0.00043078]]",[],0.0,0.0
1787136558.800866,0.198853886865193,-1.0908150368652312,0.09797070008631041,"[4.19000589e-07 1.20313731e-07 0.00000000e+00 0.00000000e+00
 0.00000000e+00 3.18607310e-08 1.20313731e-07 3.69580097e-07
 0.00000000e+00 0.00000000e+00 0.00000000e+00 1.56870986e-08
 0.00000000e+00 0.00000000e+00 0.00000000e+00 0.00000000e+00
 0.00000000e+00 0.00000000e+00 0.00000000e+00 0.00000000e+00
 0.00000000e+00 0.00000000e+00 0.00000000e+00 0.00000000e+00
 0.00000000e+00 0.00000000e+00 0.00000000e+00 0.00000000e+00
 0.00000000e+00 0.00000000e+00 3.18607310e-08 1.56870986e-08
 0.00000000e+00 0.00000000e+00 0.00000000e+00 1.33943387e-06]","[[-0.00107091 -0.00019056]
 [-0.00038531 -0.00043078]]",[],0.0,0.0
1787136558.8470893,0.198853886865193,-1.0908150368652312,0.09797070008631041,"[4.19000589e-07 1.20313731e-07 0.00000000e+00 0.00000000e+00
 0.00000000e+00 3.18607310e-08 1.20313731e-07 3.69580097e-07
 0.00000000e+00 0.00000000e+00 0.00000000e+00 1.56870986e-08
 0.00000000e+00 0.00000000e+00 0.00000000e+00 0.00000000e+00
 0.00000000e+00 0.00000000e+00 0.00000000e+00 0.00000000e+00
 0.00000000e+00 0.00000000e+00 0.00000000e+00 0.00000000e+00
 0.00000000e+00 0.00000000e+00 0.00000000e+00 0.00000000e+00
 0.00000000e+00 0.00000000e+00 3.18607310e-08 1.56870986e-08
 0.00000000e+00 0.00000000e+00 0.00000000e+00 1.33943387e-06]","[[-0.00107091 -0.00019056]
 [-0.00038531 -0.00043078]]",[],0.0,0.0
1787136558.897187,0.198853886865193,-1.0908150368652312,0.09797070008631041,"[4.19000589e-07 1.20313731e-07 0.00000000e+00 0.00000000e+00
 0.00000000e+00 3.18607310e-08 1.20313731e-07 3.69580097e-07
 0.00000000e+00 0.00000000e+00 0.00000000e+00 1.56870986e-08
 0.00000000e+00 0.00000000e+00 0.00000000e+00 0.00000000e+00
 0.00000000e+00 0.00000000e+00 0.00000000e+00 0.00000000e+00
 0.00000000e+00 0.00000000e+00 0.00000000e+00 0.00000000e+00
 0.00000000e+00 0.00000000e+00 0.00000000e+00 0.00000000e+00
 0.00000000e+00 0.00000000e+00 3.18607310e-08 1.56870986e-08
 0.00000000e+00 0.00000000e+00 0.00000000e+00 1.33943387e-06]","[[-0.00107091 -0.00019056]
 [-0.00038531 -0.00043078]]",[],0.0,0.0
1787136558.9481602,0.198853886865193,-1.0908150368652312,0.09797070008631041,"[4.19000589e-07 1.20313731e-07 0.00000000e+00 0.00000000e+00
 0.00000000e+00 3.18607310e-08 1.20313731e-07 3.69580097e-07
 0.00000000e+00 0.00000000e+00 0.00000000e+00 1.56870986e-08
 0.00000000e+00 0.00000000e+00 0.00000000e+00 0.00000000e+00
 0.00000000e+00 0.00000000e+00 0.00000000e+00 0.00000000e+00
 0.00000000e+00 0.00000000e+00 0.00000000e+00 0.00000000e+00
 0.00000000e+00 0.00000000e+00 0.00000000e+00 0.00000000e+00
 0.00000000e+00 0.00000000e+00 3.18607310e-08 1.56870986e-08
 0.00000000e+00 0.00000000e+00 0.00000000e+00 1.33943387e-06]","[[-0.00107091 -0.00019056]
 [-0.00038531 -0.00043078]]",[],0.0,0.0
1787136558.9996297,0.20649545425840676,-1.087640309481327,0.09763044727529957,"[4.58421590e-07 1.04268148e-07 0.00000000e+00 0.00000000e+00
 0.00000000e+00 3.30857903e-08 1.04268148e-07 3.31726190e-07
 0.00000000e+00 0.00000000e+00 0.00000000e+00 1.49023568e-08
 0.00000000e+00 0.00000000e+00 0.00000000e+00 0.00000000e+00
 0.00000000e+00 0.00000000e+00 0.00000000e+00 0.00000000e+00
