time,x,y,yaw,cov_prop,K_gain,innovation,v_ekf,omega_ekf
1786959655.8349783,-2.9154644159165164e-18,9.538190857431377e-23,1.7769442106629896e-05,"[ 9.99970049e-03 -1.03761796e-14  0.00000000e+00  0.00000000e+00
  0.00000000e+00  4.95584489e-10 -1.03761796e-14  9.99970001e-03
  0.00000000e+00  0.00000000e+00  0.00000000e+00 -1.06789784e-14
  0.00000000e+00  0.00000000e+00  0.00000000e+00  0.00000000e+00
  0.00000000e+00  0.00000000e+00  0.00000000e+00  0.00000000e+00
  0.00000000e+00  0.00000000e+00  0.00000000e+00  0.00000000e+00
  0.00000000e+00  0.00000000e+00  0.00000000e+00  0.00000000e+00
  0.00000000e+00  0.00000000e+00  4.95584489e-10 -1.06789784e-14
  0.00000000e+00  0.00000000e+00  0.00000000e+00  9.99971007e-03]","[[ 9.99970049e-06 -1.03761796e-17  4.95584489e-13]
 [-1.03761796e-17  9.99970001e-06 -1.06789784e-17]
 [ 4.95584489e-13 -1.06789784e-17  9.99971007e-06]]",[-5.89094243e-18  9.43804208e-23 -1.77696198e-05],0.0,0.0
1786959655.868916,-1.2913855482396323e-16,-1.5885619294069864e-22,0.00010163220605674543,"[9.99950092e-03 6.53051303e-15 0.00000000e+00 0.00000000e+00
 0.00000000e+00 9.20197653e-10 6.53051303e-15 9.99950002e-03
 0.00000000e+00 0.00000000e+00 0.00000000e+00 6.72108715e-15
 0.00000000e+00 0.00000000e+00 0.00000000e+00 0.00000000e+00
 0.00000000e+00 0.00000000e+00 0.00000000e+00 0.00000000e+00
 0.00000000e+00 0.00000000e+00 0.00000000e+00 0.00000000e+00
 0.00000000e+00 0.00000000e+00 0.00000000e+00 0.00000000e+00
 0.00000000e+00 0.00000000e+00 9.20197653e-10 6.72108715e-15
 0.00000000e+00 0.00000000e+00 0.00000000e+00 9.99951871e-03]","[[ 9.99960063e-06 -8.03939141e-18  6.30906179e-13]
 [-8.03939141e-18  9.99960002e-06 -8.27399776e-18]
 [ 6.30906179e-13 -8.27399776e-18  9.99961283e-06]]",[ 2.91546442e-18 -9.53819086e-23 -5.18315150e-05],0.0,0.0
1786959655.9169946,-4.1451145596706955e-16,-6.716214595028055e-21,0.00013525757056243035,"[9.99930116e-03 3.24860915e-14 0.00000000e+00 0.00000000e+00
 0.00000000e+00 1.14584443e-09 3.24860915e-14 9.99930005e-03
 0.00000000e+00 0.00000000e+00 0.00000000e+00 3.34341041e-14
 0.00000000e+00 0.00000000e+00 0.00000000e+00 0.00000000e+00
 0.00000000e+00 0.00000000e+00 0.00000000e+00 0.00000000e+00
 0.00000000e+00 0.00000000e+00 0.00000000e+00 0.00000000e+00
 0.00000000e+00 0.00000000e+00 0.00000000e+00 0.00000000e+00
 0.00000000e+00 0.00000000e+00 1.14584443e-09 3.34341041e-14
 0.00000000e+00 0.00000000e+00 0.00000000e+00 9.99932332e-03]","[[9.99930116e-06 3.24860915e-17 1.14584443e-12]
 [3.24860915e-17 9.99930005e-06 3.34341041e-17]
 [1.14584443e-12 3.34341041e-17 9.99932332e-06]]",[ 2.59528368e-16  2.19397562e-21 -1.35258923e-04],0.0,0.0
1786959655.9746761,-6.267469369363247e-16,-1.7856923862152997e-20,0.00014452004265574914,"[9.99920149e-03 7.49015503e-14 0.00000000e+00 0.00000000e+00
 0.00000000e+00 1.46856796e-09 7.49015503e-14 9.99920006e-03
 0.00000000e+00 0.00000000e+00 0.00000000e+00 7.70873356e-14
 0.00000000e+00 0.00000000e+00 0.00000000e+00 0.00000000e+00
 0.00000000e+00 0.00000000e+00 0.00000000e+00 0.00000000e+00
 0.00000000e+00 0.00000000e+00 0.00000000e+00 0.00000000e+00
 0.00000000e+00 0.00000000e+00 0.00000000e+00 0.00000000e+00
 0.00000000e+00 0.00000000e+00 1.46856796e-09 7.70873356e-14
 0.00000000e+00 0.00000000e+00 0.00000000e+00 9.99922989e-03]","[[9.99920149e-06 7.49015503e-17 1.46856796e-12]
 [7.49015503e-17 9.99920006e-06 7.70873356e-17]
 [1.46856796e-12 7.70873356e-17 9.99922989e-06]]",[ 4.14511456e-16  6.71621460e-21 -1.44521488e-04],0.0,0.0
1786959656.0171938,-1.146645945897396e-15,-6.836162035467368e-20,0.00018225729590914952,"[9.99910285e-03 2.69247579e-13 0.00000000e+00 0.00000000e+00
 0.00000000e+00 2.85256113e-09 2.69247579e-13 9.99910008e-03
 0.00000000e+00 0.00000000e+00 0.00000000e+00 2.77104792e-13
 0.00000000e+00 0.00000000e+00 0.00000000e+00 0.00000000e+00
 0.00000000e+00 0.00000000e+00 0.00000000e+00 0.00000000e+00
 0.00000000e+00 0.00000000e+00 0.00000000e+00 0.00000000e+00
 0.00000000e+00 0.00000000e+00 0.00000000e+00 0.00000000e+00
 0.00000000e+00 0.00000000e+00 2.85256113e-09 2.77104792e-13
 0.00000000e+00 0.00000000e+00 0.00000000e+00 9.99915802e-03]","[[9.99910285e-06 2.69247579e-16 2.85256113e-12]
 [2.69247579e-16 9.99910008e-06 2.77104792e-16]
 [2.85256113e-12 2.77104792e-16 9.99915802e-06]]",[ 6.26746937e-16  1.78569239e-20 -1.82259118e-04],0.0,0.0
1786959656.090581,-2.1870993239058863e-15,-1.9688157822760252e-19,0.00012132750715476705,"[9.99890420e-03 5.04457859e-13 0.00000000e+00 0.00000000e+00
 0.00000000e+00 4.20167701e-09 5.04457859e-13 9.99890012e-03
 0.00000000e+00 0.00000000e+00 0.00000000e+00 5.19179006e-13
 0.00000000e+00 0.00000000e+00 0.00000000e+00 0.00000000e+00
 0.00000000e+00 0.00000000e+00 0.00000000e+00 0.00000000e+00
 0.00000000e+00 0.00000000e+00 0.00000000e+00 0.00000000e+00
 0.00000000e+00 0.00000000e+00 0.00000000e+00 0.00000000e+00
 0.00000000e+00 0.00000000e+00 4.20167701e-09 5.19179006e-13
 0.00000000e+00 0.00000000e+00 0.00000000e+00 9.99898546e-03]","[[9.99890420e-06 5.04457859e-16 4.20167701e-12]
 [5.04457859e-16 9.99890012e-06 5.19179006e-16]
 [4.20167701e-12 5.19179006e-16 9.99898546e-06]]",[ 1.67733200e-15  1.33891593e-19 -1.21328720e-04],0.0,0.0
1786959656.1203258,-2.8652434031326966e-15,-2.8011799175202054e-19,5.6312047302498065e-05,"[9.99870470e-03 5.51129876e-13 0.00000000e+00 0.00000000e+00
 0.00000000e+00 4.66660515e-09 5.51129876e-13 9.99870017e-03
 0.00000000e+00 0.00000000e+00 0.00000000e+00 5.67213011e-13
 0.00000000e+00 0.00000000e+00 0.00000000e+00 0.00000000e+00
 0.00000000e+00 0.00000000e+00 0.00000000e+00 0.00000000e+00
 0.00000000e+00 0.00000000e+00 0.00000000e+00 0.00000000e+00
 0.00000000e+00 0.00000000e+00 0.00000000e+00 0.00000000e+00
 0.00000000e+00 0.00000000e+00 4.66660515e-09 5.67213011e-13
 0.00000000e+00 0.00000000e+00 0.00000000e+00 9.99879495e-03]","[[9.99870470e-06 5.51129876e-16 4.66660515e-12]
 [5.51129876e-16 9.99870017e-06 5.67213011e-16]
 [4.66660515e-12 5.67213011e-16 9.99879495e-06]]",[ 2.60248071e-15  2.48179228e-19 -5.63126104e-05],0.0,0.0
1786959656.172442,-2.7853472826805283e-15,-2.7220574410776753e-19,-4.341325815504505e-05,"[9.99840541e-03 5.72522361e-13 0.00000000e+00 0.00000000e+00
 0.00000000e+00 5.30763791e-09 5.72522361e-13 9.99840026e-03
 0.00000000e+00 0.00000000e+00 0.00000000e+00 5.89229774e-13
 0.00000000e+00 0.00000000e+00 0.00000000e+00 0.00000000e+00
 0.00000000e+00 0.00000000e+00 0.00000000e+00 0.00000000e+00
 0.00000000e+00 0.00000000e+00 0.00000000e+00 0.00000000e+00
 0.00000000e+00 0.00000000e+00 0.00000000e+00 0.00000000e+00
 0.00000000e+00 0.00000000e+00 5.30763791e-09 5.89229774e-13
 0.00000000e+00 0.00000000e+00 0.00000000e+00 9.99850806e-03]","[[9.99850507e-06 5.68552076e-16 4.98677121e-12]
 [5.68552076e-16 9.99850022e-06 5.85143628e-16]
 [4.98677121e-12 5.85143628e-16 9.99860151e-06]]",[ 2.95216330e-15  2.90321536e-19 -1.27673418e-05],0.0,0.0
1786959656.2199042,-2.7853472826805283e-15,-2.7220574410776753e-19,-4.341325815504505e-05,"[9.99840541e-03 5.72522361e-13 0.00000000e+00 0.00000000e+00
 0.00000000e+00 5.30763791e-09 5.72522361e-13 9.99840026e-03
 0.00000000e+00 0.00000000e+00 0.00000000e+00 5.89229774e-13
 0.00000000e+00 0.00000000e+00 0.00000000e+00 0.00000000e+00
 0.00000000e+00 0.00000000e+00 0.00000000e+00 0.00000000e+00
 0.00000000e+00 0.00000000e+00 0.00000000e+00 0.00000000e+00
 0.00000000e+00 0.00000000e+00 0.00000000e+00 0.00000000e+00
 0.00000000e+00 0.00000000e+00 5.30763791e-09 5.89229774e-13
 0.00000000e+00 0.00000000e+00 0.00000000e+00 9.99850806e-03]","[[9.99840541e-06 5.72522361e-16 5.30763791e-12]
 [5.72522361e-16 9.99840026e-06 5.89229774e-16]
 [5.30763791e-12 5.89229774e-16 9.99850806e-06]]",[3.01580159e-15 2.97789362e-19 4.34136922e-05],0.0,0.0
1786959656.2740571,-6.491315443760975e-17,-7.511631971533421e-20,-0.00013891023379253298,"[9.99810734e-03 4.68819969e-13 0.00000000e+00 0.00000000e+00
 0.00000000e+00 7.18438682e-09 4.68819969e-13 9.99810036e-03
 0.00000000e+00 0.00000000e+00 0.00000000e+00 4.82501127e-13
 0.00000000e+00 0.00000000e+00 0.00000000e+00 0.00000000e+00
 0.00000000e+00 0.00000000e+00 0.00000000e+00 0.00000000e+00
 0.00000000e+00 0.00000000e+00 0.00000000e+00 0.00000000e+00
 0.00000000e+00 0.00000000e+00 0.00000000e+00 0.00000000e+00
 0.00000000e+00 0.00000000e+00 7.18438682e-09 4.82501127e-13
 0.00000000e+00 0.00000000e+00 0.00000000e+00 9.99824628e-03]","[[9.99810734e-06 4.68819969e-16 7.18438682e-12]
 [4.68819969e-16 9.99810036e-06 4.82501127e-16]
 [7.18438682e-12 4.82501127e-16 9.99824628e-06]]",[1.06291861e-15 1.42142755e-19 1.38911623e-04],0.0,0.0
1786959656.31878,2.082990640581535e-15,5.602784018260287e-20,-0.00014109571712861427,"[9.99790766e-03 4.35114633e-13 0.00000000e+00 0.00000000e+00
 0.00000000e+00 7.42973761e-09 4.35114633e-13 9.99790044e-03
 0.00000000e+00 0.00000000e+00 0.00000000e+00 4.47812198e-13
 0.00000000e+00 0.00000000e+00 0.00000000e+00 0.00000000e+00
 0.00000000e+00 0.00000000e+00 0.00000000e+00 0.00000000e+00
 0.00000000e+00 0.00000000e+00 0.00000000e+00 0.00000000e+00
 0.00000000e+00 0.00000000e+00 0.00000000e+00 0.00000000e+00
 0.00000000e+00 0.00000000e+00 7.42973761e-09 4.47812198e-13
 0.00000000e+00 0.00000000e+00 0.00000000e+00 9.99805134e-03]","[[9.99790766e-06 4.35114633e-16 7.42973761e-12]
 [4.35114633e-16 9.99790044e-06 4.47812198e-16]
 [7.42973761e-12 4.47812198e-16 9.99805134e-06]]",[-1.03468635e-15  7.15724634e-21  1.41097128e-04],0.0,0.0
1786959656.372789,3.578192596072461e-15,1.3244911243706632e-19,-6.560755602080802e-05,"[9.99770844e-03 3.45051613e-13 0.00000000e+00 0.00000000e+00
 0.00000000e+00 8.14167287e-09 3.45051613e-13 9.99770053e-03
 0.00000000e+00 0.00000000e+00 0.00000000e+00 3.55120949e-13
 0.00000000e+00 0.00000000e+00 0.00000000e+00 0.00000000e+00
 0.00000000e+00 0.00000000e+00 0.00000000e+00 0.00000000e+00
 0.00000000e+00 0.00000000e+00 0.00000000e+00 0.00000000e+00
 0.00000000e+00 0.00000000e+00 0.00000000e+00 0.00000000e+00
 0.00000000e+00 0.00000000e+00 8.14167287e-09 3.55120949e-13
 0.00000000e+00 0.00000000e+00 0.00000000e+00 9.99786589e-03]","[[9.99770844e-06 3.45051613e-16 8.14167287e-12]
 [3.45051613e-16 9.99770053e-06 3.55120949e-16]
 [8.14167287e-12 3.55120949e-16 9.99786589e-06]]",[-3.04406243e-15 -1.09151353e-19  6.56082120e-05],0.0,0.0
1786959656.4203546,1.7303041270332864e-15,5.941443407686331e-20,0.00012679940718651753,"[9.99740913e-03 3.35450405e-13 0.00000000e+00 0.00000000e+00
 0.00000000e+00 8.69767867e-09 3.35450405e-13 9.99740068e-03
 0.00000000e+00 0.00000000e+00 0.00000000e+00 3.45239557e-13
 0.00000000e+00 0.00000000e+00 0.00000000e+00 0.00000000e+00
 0.00000000e+00 0.00000000e+00 0.00000000e+00 0.00000000e+00
 0.00000000e+00 0.00000000e+00 0.00000000e+00 0.00000000e+00
 0.00000000e+00 0.00000000e+00 0.00000000e+00 0.00000000e+00
 0.00000000e+00 0.00000000e+00 8.69767867e-09 3.45239557e-13
 0.00000000e+00 0.00000000e+00 0.00000000e+00 9.99757733e-03]","[[9.99740913e-06 3.35450405e-16 8.69767867e-12]
 [3.35450405e-16 9.99740068e-06 3.45239557e-16]
 [8.69767867e-12 3.45239557e-16 9.99757733e-06]]",[-2.83320398e-15 -1.03192075e-19 -1.26800675e-04],0.0,0.0
1786959656.4680455,-1.0029590747910994e-15,-5.685945181389128e-20,0.00016258538138602674,"[9.99720961e-03 3.86413593e-13 0.00000000e+00 0.00000000e+00
 0.00000000e+00 9.08139467e-09 3.86413593e-13 9.99720078e-03
 0.00000000e+00 0.00000000e+00 0.00000000e+00 3.97689959e-13
 0.00000000e+00 0.00000000e+00 0.00000000e+00 0.00000000e+00
 0.00000000e+00 0.00000000e+00 0.00000000e+00 0.00000000e+00
 0.00000000e+00 0.00000000e+00 0.00000000e+00 0.00000000e+00
 0.00000000e+00 0.00000000e+00 0.00000000e+00 0.00000000e+00
 0.00000000e+00 0.00000000e+00 9.08139467e-09 3.97689959e-13
 0.00000000e+00 0.00000000e+00 0.00000000e+00 9.99738523e-03]","[[9.99720961e-06 3.86413593e-16 9.08139467e-12]
 [3.86413593e-16 9.99720078e-06 3.97689959e-16]
 [9.08139467e-12 3.97689959e-16 9.99738523e-06]]",[-4.73562436e-16 -7.79984623e-21 -1.62587007e-04],0.0,0.0
1786959656.5182674,-6.449163026319015e-15,-3.1526436946382326e-19,0.00021362496382604235,"[9.99691019e-03 4.60576436e-13 0.00000000e+00 0.00000000e+00
 0.00000000e+00 9.50234854e-09 4.60576436e-13 9.99690096e-03
 0.00000000e+00 0.00000000e+00 0.00000000e+00 4.74017031e-13
 0.00000000e+00 0.00000000e+00 0.00000000e+00 0.00000000e+00
 0.00000000e+00 0.00000000e+00 0.00000000e+00 0.00000000e+00
 0.00000000e+00 0.00000000e+00 0.00000000e+00 0.00000000e+00
 0.00000000e+00 0.00000000e+00 0.00000000e+00 0.00000000e+00
 0.00000000e+00 0.00000000e+00 9.50234854e-09 4.74017031e-13
 0.00000000e+00 0.00000000e+00 0.00000000e+00 9.99709396e-03]","[[9.99691019e-06 4.60576436e-16 9.50234854e-12]
 [4.60576436e-16 9.99690096e-06 4.74017031e-16]
 [9.50234854e-12 4.74017031e-16 9.99709396e-06]]",[ 4.41924805e-15  2.14003625e-19 -2.13627099e-04],0.0,0.0
1786959656.5690682,-1.4032657879162349e-14,-7.4115033612477e-19,0.0002679718489497774,"[9.99661084e-03 5.65294048e-13 0.00000000e+00 0.00000000e+00
 0.00000000e+00 9.96614089e-09 5.65294048e-13 9.99660116e-03
 0.00000000e+00 0.00000000e+00 0.00000000e+00 5.81790525e-13
 0.00000000e+00 0.00000000e+00 0.00000000e+00 0.00000000e+00
 0.00000000e+00 0.00000000e+00 0.00000000e+00 0.00000000e+00
 0.00000000e+00 0.00000000e+00 0.00000000e+00 0.00000000e+00
 0.00000000e+00 0.00000000e+00 0.00000000e+00 0.00000000e+00
 0.00000000e+00 0.00000000e+00 9.96614089e-09 5.81790525e-13
 0.00000000e+00 0.00000000e+00 0.00000000e+00 9.99680357e-03]","[[9.99661084e-06 5.65294048e-16 9.96614089e-12]
 [5.65294048e-16 9.99660116e-06 5.81790525e-16]
 [9.96614089e-12 5.81790525e-16 9.99680357e-06]]",[ 1.13620996e-14  5.85251145e-19 -2.67974528e-04],0.0,0.0
1786959656.6209,-1.6780896446947784e-14,-9.146174360447486e-19,0.0002695349214096865,"[9.99651113e-03 6.25351292e-13 0.00000000e+00 0.00000000e+00
 0.00000000e+00 1.01966430e-08 6.25351292e-13 9.99650122e-03
 0.00000000e+00 0.00000000e+00 0.00000000e+00 6.43600368e-13
 0.00000000e+00 0.00000000e+00 0.00000000e+00 0.00000000e+00
 0.00000000e+00 0.00000000e+00 0.00000000e+00 0.00000000e+00
 0.00000000e+00 0.00000000e+00 0.00000000e+00 0.00000000e+00
 0.00000000e+00 0.00000000e+00 0.00000000e+00 0.00000000e+00
 0.00000000e+00 0.00000000e+00 1.01966430e-08 6.43600368e-13
 0.00000000e+00 0.00000000e+00 0.00000000e+00 9.99670832e-03]","[[9.99651113e-06 6.25351292e-16 1.01966430e-11]
 [6.25351292e-16 9.99650122e-06 6.43600368e-16]
 [1.01966430e-11 6.43600368e-16 9.99670832e-06]]",[ 1.40326579e-14  7.41150336e-19 -2.69537616e-04],0.0,0.0
1786959656.6700513,-1.978307613808302e-14,-1.1503335895445703e-18,0.00027248730076534505,"[9.99641200e-03 8.40549604e-13 0.00000000e+00 0.00000000e+00
 0.00000000e+00 1.10181921e-08 8.40549604e-13 9.99640130e-03
 0.00000000e+00 0.00000000e+00 0.00000000e+00 8.65078627e-13
 0.00000000e+00 0.00000000e+00 0.00000000e+00 0.00000000e+00
 0.00000000e+00 0.00000000e+00 0.00000000e+00 0.00000000e+00
 0.00000000e+00 0.00000000e+00 0.00000000e+00 0.00000000e+00
 0.00000000e+00 0.00000000e+00 0.00000000e+00 0.00000000e+00
 0.00000000e+00 0.00000000e+00 1.10181921e-08 8.65078627e-13
 0.00000000e+00 0.00000000e+00 0.00000000e+00 9.99662508e-03]","[[9.99641200e-06 8.40549604e-16 1.10181921e-11]
 [8.40549604e-16 9.99640130e-06 8.65078627e-16]
 [1.10181921e-11 8.65078627e-16 9.99662508e-06]]",[ 1.67808964e-14  9.14617436e-19 -2.72490025e-04],0.0,0.0
1786959656.731025,-3.171281595486999e-14,-2.1540017003503247e-18,0.0002593493517988321,"[9.99601284e-03 9.82268286e-13 0.00000000e+00 0.00000000e+00
 0.00000000e+00 1.15660314e-08 9.82268286e-13 9.99600160e-03
 0.00000000e+00 0.00000000e+00 0.00000000e+00 1.01093296e-12
 0.00000000e+00 0.00000000e+00 0.00000000e+00 0.00000000e+00
 0.00000000e+00 0.00000000e+00 0.00000000e+00 0.00000000e+00
 0.00000000e+00 0.00000000e+00 0.00000000e+00 0.00000000e+00
 0.00000000e+00 0.00000000e+00 0.00000000e+00 0.00000000e+00
 0.00000000e+00 0.00000000e+00 1.15660314e-08 1.01093296e-12
 0.00000000e+00 0.00000000e+00 0.00000000e+00 9.99623651e-03]","[[9.99601284e-06 9.82268286e-16 1.15660314e-11]
 [9.82268286e-16 9.99600160e-06 1.01093296e-15]
 [1.15660314e-11 1.01093296e-15 9.99623651e-06]]",[ 2.87134302e-14  1.89183318e-18 -2.59351944e-04],0.0,0.0
1786959656.771119,-3.6567369397529195e-14,-2.5958653812804282e-18,0.0001894344793464953,"[9.99581333e-03 1.06175442e-12 0.00000000e+00 0.00000000e+00
 0.00000000e+00 1.19012326e-08 1.06175442e-12 9.99580176e-03
 0.00000000e+00 0.00000000e+00 0.00000000e+00 1.09273867e-12
 0.00000000e+00 0.00000000e+00 0.00000000e+00 0.00000000e+00
 0.00000000e+00 0.00000000e+00 0.00000000e+00 0.00000000e+00
 0.00000000e+00 0.00000000e+00 0.00000000e+00 0.00000000e+00
 0.00000000e+00 0.00000000e+00 0.00000000e+00 0.00000000e+00
 0.00000000e+00 0.00000000e+00 1.19012326e-08 1.09273867e-12
 0.00000000e+00 0.00000000e+00 0.00000000e+00 9.99604348e-03]","[[9.99581333e-06 1.06175442e-15 1.19012326e-11]
 [1.06175442e-15 9.99580176e-06 1.09273867e-15]
 [1.19012326e-11 1.09273867e-15 9.99604348e-06]]",[ 3.43131860e-14  2.38888481e-18 -1.89436373e-04],0.0,0.0
1786959656.8195865,-4.007680867883585e-14,-2.9225672847969865e-18,0.00012979809420787802,"[9.99561374e-03 1.10394150e-12 0.00000000e+00 0.00000000e+00
 0.00000000e+00 1.21506110e-08 1.10394150e-12 9.99560194e-03
 0.00000000e+00 0.00000000e+00 0.00000000e+00 1.13615686e-12
 0.00000000e+00 0.00000000e+00 0.00000000e+00 0.00000000e+00
 0.00000000e+00 0.00000000e+00 0.00000000e+00 0.00000000e+00
 0.00000000e+00 0.00000000e+00 0.00000000e+00 0.00000000e+00
 0.00000000e+00 0.00000000e+00 0.00000000e+00 0.00000000e+00
 0.00000000e+00 0.00000000e+00 1.21506110e-08 1.13615686e-12
 0.00000000e+00 0.00000000e+00 0.00000000e+00 9.99584872e-03]","[[9.99561374e-06 1.10394150e-15 1.21506110e-11]
 [1.10394150e-15 9.99560194e-06 1.13615686e-15]
 [1.21506110e-11 1.13615686e-15 9.99584872e-06]]",[ 3.85000516e-14  2.77512255e-18 -1.29799392e-04],0.0,0.0
1786959656.8710752,-4.3095562243176e-14,-3.2061660409729893e-18,6.535705060395358e-05,"[9.99531449e-03 1.15283368e-12 0.00000000e+00 0.00000000e+00
 0.00000000e+00 1.26445922e-08 1.15283368e-12 9.99530221e-03
 0.00000000e+00 0.00000000e+00 0.00000000e+00 1.18647581e-12
 0.00000000e+00 0.00000000e+00 0.00000000e+00 0.00000000e+00
 0.00000000e+00 0.00000000e+00 0.00000000e+00 0.00000000e+00
 0.00000000e+00 0.00000000e+00 0.00000000e+00 0.00000000e+00
 0.00000000e+00 0.00000000e+00 0.00000000e+00 0.00000000e+00
 0.00000000e+00 0.00000000e+00 1.26445922e-08 1.18647581e-12
 0.00000000e+00 0.00000000e+00 0.00000000e+00 9.99555903e-03]","[[9.99531449e-06 1.15283368e-15 1.26445922e-11]
 [1.15283368e-15 9.99530221e-06 1.18647581e-15]
 [1.26445922e-11 1.18647581e-15 9.99555903e-06]]",[ 4.22695632e-14  3.12865198e-18 -6.53577039e-05],0.0,0.0
1786959656.929078,-4.472457573126233e-14,-3.357809740247891e-18,3.1277415964758866e-05,"[9.99501521e-03 1.17631105e-12 0.00000000e+00 0.00000000e+00
 0.00000000e+00 1.30856119e-08 1.17631105e-12 9.99500250e-03
 0.00000000e+00 0.00000000e+00 0.00000000e+00 1.21063830e-12
 0.00000000e+00 0.00000000e+00 0.00000000e+00 0.00000000e+00
 0.00000000e+00 0.00000000e+00 0.00000000e+00 0.00000000e+00
 0.00000000e+00 0.00000000e+00 0.00000000e+00 0.00000000e+00
 0.00000000e+00 0.00000000e+00 0.00000000e+00 0.00000000e+00
 0.00000000e+00 0.00000000e+00 1.30856119e-08 1.21063830e-12
 0.00000000e+00 0.00000000e+00 0.00000000e+00 9.99526827e-03]","[[9.99501521e-06 1.17631105e-15 1.30856119e-11]
 [1.17631105e-15 9.99500250e-06 1.21063830e-15]
 [1.30856119e-11 1.21063830e-15 9.99526827e-06]]",[ 4.43157304e-14  3.31997691e-18 -3.12777286e-05],0.0,0.0
1786959656.9658923,-4.540798022723165e-14,-3.4202051928076613e-18,2.4116773028382e-05,"[9.99481573e-03 1.18571617e-12 0.00000000e+00 0.00000000e+00
 0.00000000e+00 1.34110933e-08 1.18571617e-12 9.99480270e-03
 0.00000000e+00 0.00000000e+00 0.00000000e+00 1.22031788e-12
 0.00000000e+00 0.00000000e+00 0.00000000e+00 0.00000000e+00
 0.00000000e+00 0.00000000e+00 0.00000000e+00 0.00000000e+00
 0.00000000e+00 0.00000000e+00 0.00000000e+00 0.00000000e+00
 0.00000000e+00 0.00000000e+00 0.00000000e+00 0.00000000e+00
 0.00000000e+00 0.00000000e+00 1.34110933e-08 1.22031788e-12
 0.00000000e+00 0.00000000e+00 0.00000000e+00 9.99507509e-03]","[[9.99481573e-06 1.18571617e-15 1.34110933e-11]
 [1.18571617e-15 9.99480270e-06 1.22031788e-15]
 [1.34110933e-11 1.22031788e-15 9.99507509e-06]]",[ 4.50849953e-14  3.39080866e-18 -2.41170141e-05],0.0,0.0
1786959657.0163627,-4.7105549122722467e-14,-3.572083754260462e-18,0.0001032709401731502,"[9.99461627e-03 1.19292416e-12 0.00000000e+00 0.00000000e+00
 0.00000000e+00 1.37465202e-08 1.19292416e-12 9.99460291e-03
 0.00000000e+00 0.00000000e+00 0.00000000e+00 1.22773622e-12
 0.00000000e+00 0.00000000e+00 0.00000000e+00 0.00000000e+00
 0.00000000e+00 0.00000000e+00 0.00000000e+00 0.00000000e+00
 0.00000000e+00 0.00000000e+00 0.00000000e+00 0.00000000e+00
 0.00000000e+00 0.00000000e+00 0.00000000e+00 0.00000000e+00
 0.00000000e+00 0.00000000e+00 1.37465202e-08 1.22773622e-12
 0.00000000e+00 0.00000000e+00 0.00000000e+00 9.99488211e-03]","[[9.99461627e-06 1.19292416e-15 1.37465202e-11]
 [1.19292416e-15 9.99460291e-06 1.22773622e-15]
 [1.37465202e-11 1.22773622e-15 9.99488211e-06]]",[ 4.56863755e-14  3.44532745e-18 -1.03271972e-04],0.0,0.0
1786959657.070384,-5.743937929842555e-14,-4.507480961036406e-18,0.0002775194125863578,"[9.99431710e-03 1.26865227e-12 0.00000000e+00 0.00000000e+00
 0.00000000e+00 1.42605857e-08 1.26865227e-12 9.99430325e-03
 0.00000000e+00 0.00000000e+00 0.00000000e+00 1.30567423e-12
 0.00000000e+00 0.00000000e+00 0.00000000e+00 0.00000000e+00
 0.00000000e+00 0.00000000e+00 0.00000000e+00 0.00000000e+00
 0.00000000e+00 0.00000000e+00 0.00000000e+00 0.00000000e+00
 0.00000000e+00 0.00000000e+00 0.00000000e+00 0.00000000e+00
 0.00000000e+00 0.00000000e+00 1.42605857e-08 1.30567423e-12
 0.00000000e+00 0.00000000e+00 0.00000000e+00 9.99459289e-03]","[[9.99431710e-06 1.26865227e-15 1.42605857e-11]
 [1.26865227e-15 9.99430325e-06 1.30567423e-15]
 [1.42605857e-11 1.30567423e-15 9.99459289e-06]]",[ 5.34822849e-14  4.14516882e-18 -2.77522186e-04],0.0,0.0
1786959657.1201956,-6.730061658958631e-14,-5.447506364956905e-18,0.00035698007406859134,"[9.99411768e-03 1.37238562e-12 0.00000000e+00 0.00000000e+00
 0.00000000e+00 1.46165133e-08 1.37238562e-12 9.99410348e-03
 0.00000000e+00 0.00000000e+00 0.00000000e+00 1.41243475e-12
 0.00000000e+00 0.00000000e+00 0.00000000e+00 0.00000000e+00
 0.00000000e+00 0.00000000e+00 0.00000000e+00 0.00000000e+00
 0.00000000e+00 0.00000000e+00 0.00000000e+00 0.00000000e+00
 0.00000000e+00 0.00000000e+00 0.00000000e+00 0.00000000e+00
 0.00000000e+00 0.00000000e+00 1.46165133e-08 1.41243475e-12
 0.00000000e+00 0.00000000e+00 0.00000000e+00 9.99440035e-03]","[[9.99411768e-06 1.37238562e-15 1.46165133e-11]
 [1.37238562e-15 9.99410348e-06 1.41243475e-15]
 [1.46165133e-11 1.41243475e-15 9.99440035e-06]]",[ 6.20833809e-14  4.94333967e-18 -3.56983642e-04],0.0,0.0
1786959657.166236,-8.494495555339558e-14,-7.238807505881712e-18,0.0004076791588829566,"[9.99381845e-03 1.52956270e-12 0.00000000e+00 0.00000000e+00
 0.00000000e+00 1.50393165e-08 1.52956270e-12 9.99380384e-03
 0.00000000e+00 0.00000000e+00 0.00000000e+00 1.57419859e-12
 0.00000000e+00 0.00000000e+00 0.00000000e+00 0.00000000e+00
 0.00000000e+00 0.00000000e+00 0.00000000e+00 0.00000000e+00
 0.00000000e+00 0.00000000e+00 0.00000000e+00 0.00000000e+00
 0.00000000e+00 0.00000000e+00 0.00000000e+00 0.00000000e+00
 0.00000000e+00 0.00000000e+00 1.50393165e-08 1.57419859e-12
 0.00000000e+00 0.00000000e+00 0.00000000e+00 9.99410930e-03]","[[9.99381845e-06 1.52956270e-15 1.50393165e-11]
 [1.52956270e-15 9.99380384e-06 1.57419859e-15]
 [1.50393165e-11 1.57419859e-15 9.99410930e-06]]",[ 7.88144660e-14  6.59709906e-18 -4.07683233e-04],0.0,0.0
1786959657.2416706,-1.1077927412277033e-13,-1.0185422003690006e-17,0.0006158127608224538,"[9.99351936e-03 1.77271602e-12 0.00000000e+00 0.00000000e+00
 0.00000000e+00 1.55763896e-08 1.77271602e-12 9.99350422e-03
 0.00000000e+00 0.00000000e+00 0.00000000e+00 1.82444767e-12
 0.00000000e+00 0.00000000e+00 0.00000000e+00 0.00000000e+00
 0.00000000e+00 0.00000000e+00 0.00000000e+00 0.00000000e+00
 0.00000000e+00 0.00000000e+00 0.00000000e+00 0.00000000e+00
 0.00000000e+00 0.00000000e+00 0.00000000e+00 0.00000000e+00
 0.00000000e+00 0.00000000e+00 1.55763896e-08 1.82444767e-12
 0.00000000e+00 0.00000000e+00 0.00000000e+00 9.99382059e-03]","[[9.99351936e-06 1.77271602e-15 1.55763896e-11]
 [1.77271602e-15 9.99350422e-06 1.82444767e-15]
 [1.55763896e-11 1.82444767e-15 9.99382059e-06]]",[ 1.01188050e-13  9.06198318e-18 -6.15818915e-04],0.0,0.0
1786959657.2704399,-1.2016493640635496e-13,-1.1447116439470843e-17,0.0005817353998995857,"[9.99342003e-03 2.10749785e-12 0.00000000e+00 0.00000000e+00
 0.00000000e+00 1.61356444e-08 2.10749785e-12 9.99340435e-03
 0.00000000e+00 0.00000000e+00 0.00000000e+00 2.16899919e-12
 0.00000000e+00 0.00000000e+00 0.00000000e+00 0.00000000e+00
 0.00000000e+00 0.00000000e+00 0.00000000e+00 0.00000000e+00
 0.00000000e+00 0.00000000e+00 0.00000000e+00 0.00000000e+00
 0.00000000e+00 0.00000000e+00 0.00000000e+00 0.00000000e+00
 0.00000000e+00 0.00000000e+00 1.61356444e-08 2.16899919e-12
 0.00000000e+00 0.00000000e+00 0.00000000e+00 9.99373208e-03]","[[9.99342003e-06 2.10749785e-15 1.61356444e-11]
 [2.10749785e-15 9.99340435e-06 2.16899919e-15]
 [1.61356444e-11 2.16899919e-15 9.99373208e-06]]",[ 1.10779274e-13  1.01854220e-17 -5.81741214e-04],0.0,0.0
1786959657.3191657,-1.4593258362619956e-13,-1.521903258596302e-17,0.00048566670668437345,"[9.99312096e-03 2.40743580e-12 0.00000000e+00 0.00000000e+00
 0.00000000e+00 1.66792495e-08 2.40743580e-12 9.99310476e-03
 0.00000000e+00 0.00000000e+00 0.00000000e+00 2.47769002e-12
 0.00000000e+00 0.00000000e+00 0.00000000e+00 0.00000000e+00
 0.00000000e+00 0.00000000e+00 0.00000000e+00 0.00000000e+00
 0.00000000e+00 0.00000000e+00 0.00000000e+00 0.00000000e+00
 0.00000000e+00 0.00000000e+00 0.00000000e+00 0.00000000e+00
 0.00000000e+00 0.00000000e+00 1.66792495e-08 2.47769002e-12
 0.00000000e+00 0.00000000e+00 0.00000000e+00 9.99344352e-03]","[[9.99312096e-06 2.40743580e-15 1.66792495e-11]
 [2.40743580e-15 9.99310476e-06 2.47769002e-15]
 [1.66792495e-11 2.47769002e-15 9.99344352e-06]]",[ 1.37833324e-13  1.40158291e-17 -4.85671560e-04],0.0,0.0
1786959657.365917,-1.6945725920029046e-13,-1.8865904579389556e-17,0.00044515086079899296,"[9.99282184e-03 2.62310711e-12 0.00000000e+00 0.00000000e+00
 0.00000000e+00 1.71440947e-08 2.62310711e-12 9.99280518e-03
 0.00000000e+00 0.00000000e+00 0.00000000e+00 2.69965508e-12
 0.00000000e+00 0.00000000e+00 0.00000000e+00 0.00000000e+00
 0.00000000e+00 0.00000000e+00 0.00000000e+00 0.00000000e+00
 0.00000000e+00 0.00000000e+00 0.00000000e+00 0.00000000e+00
 0.00000000e+00 0.00000000e+00 0.00000000e+00 0.00000000e+00
 0.00000000e+00 0.00000000e+00 1.71440947e-08 2.69965508e-12
 0.00000000e+00 0.00000000e+00 0.00000000e+00 9.99315338e-03]","[[9.99282184e-06 2.62310711e-15 1.71440947e-11]
 [2.62310711e-15 9.99280518e-06 2.69965508e-15]
 [1.71440947e-11 2.69965508e-15 9.99315338e-06]]",[ 1.61827092e-13  1.76643153e-17 -4.45155309e-04],0.0,0.0
1786959657.4333963,-1.6945725920029046e-13,-1.8865904579389556e-17,0.00044515086079899296,"[9.99282184e-03 2.62310711e-12 0.00000000e+00 0.00000000e+00
 0.00000000e+00 1.71440947e-08 2.62310711e-12 9.99280518e-03
 0.00000000e+00 0.00000000e+00 0.00000000e+00 2.69965508e-12
 0.00000000e+00 0.00000000e+00 0.00000000e+00 0.00000000e+00
 0.00000000e+00 0.00000000e+00 0.00000000e+00 0.00000000e+00
 0.00000000e+00 0.00000000e+00 0.00000000e+00 0.00000000e+00
 0.00000000e+00 0.00000000e+00 0.00000000e+00 0.00000000e+00
 0.00000000e+00 0.00000000e+00 1.71440947e-08 2.69965508e-12
 0.00000000e+00 0.00000000e+00 0.00000000e+00 9.99315338e-03]","[[9.99282184e-06 2.62310711e-15 1.71440947e-11]
 [2.62310711e-15 9.99280518e-06 2.69965508e-15]
 [1.71440947e-11 2.69965508e-15 9.99315338e-06]]",[ 1.61827092e-13  1.76643153e-17 -4.45155309e-04],0.0,0.0
1786959657.4726188,-1.9631169071027563e-13,-2.3375476906009828e-17,0.0003599604403126122,"[9.99242333e-03 2.99761468e-12 0.00000000e+00 0.00000000e+00
 0.00000000e+00 1.80707000e-08 2.99761468e-12 9.99240577e-03
 0.00000000e+00 0.00000000e+00 0.00000000e+00 3.08509161e-12
 0.00000000e+00 0.00000000e+00 0.00000000e+00 0.00000000e+00
 0.00000000e+00 0.00000000e+00 0.00000000e+00 0.00000000e+00
 0.00000000e+00 0.00000000e+00 0.00000000e+00 0.00000000e+00
 0.00000000e+00 0.00000000e+00 0.00000000e+00 0.00000000e+00
 0.00000000e+00 0.00000000e+00 1.80707000e-08 3.08509161e-12
 0.00000000e+00 0.00000000e+00 0.00000000e+00 9.99277280e-03]","[[9.99242333e-06 2.99761468e-15 1.80707000e-11]
 [2.99761468e-15 9.99240577e-06 3.08509161e-15]
 [1.80707000e-11 3.08509161e-15 9.99277280e-06]]",[ 1.89808785e-13  2.22651774e-17 -3.59964037e-04],0.0,0.0
1786959657.51641,-2.1333468804797678e-13,-2.6341542605875872e-17,0.00029139928704191586,"[9.99212425e-03 3.15227205e-12 0.00000000e+00 0.00000000e+00
 0.00000000e+00 1.85347069e-08 3.15227205e-12 9.99210624e-03
 0.00000000e+00 0.00000000e+00 0.00000000e+00 3.24426221e-12
 0.00000000e+00 0.00000000e+00 0.00000000e+00 0.00000000e+00
 0.00000000e+00 0.00000000e+00 0.00000000e+00 0.00000000e+00
 0.00000000e+00 0.00000000e+00 0.00000000e+00 0.00000000e+00
 0.00000000e+00 0.00000000e+00 0.00000000e+00 0.00000000e+00
 0.00000000e+00 0.00000000e+00 1.85347069e-08 3.24426221e-12
 0.00000000e+00 0.00000000e+00 0.00000000e+00 9.99248268e-03]","[[9.99212425e-06 3.15227205e-15 1.85347069e-11]
 [3.15227205e-15 9.99210624e-06 3.24426221e-15]
 [1.85347069e-11 3.24426221e-15 9.99248268e-06]]",[ 2.07935711e-13  2.53964112e-17 -2.91402199e-04],0.0,0.0
1786959657.580547,-2.282063407418291e-13,-2.8976739254878634e-17,0.00043646532733854215,"[9.99192494e-03 3.27511721e-12 0.00000000e+00 0.00000000e+00
 0.00000000e+00 1.89162848e-08 3.27511721e-12 9.99190656e-03
 0.00000000e+00 0.00000000e+00 0.00000000e+00 3.37069225e-12
 0.00000000e+00 0.00000000e+00 0.00000000e+00 0.00000000e+00
 0.00000000e+00 0.00000000e+00 0.00000000e+00 0.00000000e+00
 0.00000000e+00 0.00000000e+00 0.00000000e+00 0.00000000e+00
 0.00000000e+00 0.00000000e+00 0.00000000e+00 0.00000000e+00
 0.00000000e+00 0.00000000e+00 1.89162848e-08 3.37069225e-12
 0.00000000e+00 0.00000000e+00 0.00000000e+00 9.99229075e-03]","[[9.99192494e-06 3.27511721e-15 1.89162848e-11]
 [3.27511721e-15 9.99190656e-06 3.37069225e-15]
 [1.89162848e-11 3.37069225e-15 9.99229075e-06]]",[ 2.19952154e-13  2.75058091e-17 -4.36469689e-04],0.0,0.0
1786959657.617537,-2.5577030265449584e-13,-3.40370008415108e-17,0.0004882110963917442,"[9.99162588e-03 3.47418577e-12 0.00000000e+00 0.00000000e+00
 0.00000000e+00 1.93760352e-08 3.47418577e-12 9.99160705e-03
 0.00000000e+00 0.00000000e+00 0.00000000e+00 3.57557007e-12
 0.00000000e+00 0.00000000e+00 0.00000000e+00 0.00000000e+00
 0.00000000e+00 0.00000000e+00 0.00000000e+00 0.00000000e+00
 0.00000000e+00 0.00000000e+00 0.00000000e+00 0.00000000e+00
 0.00000000e+00 0.00000000e+00 0.00000000e+00 0.00000000e+00
 0.00000000e+00 0.00000000e+00 1.93760352e-08 3.57557007e-12
 0.00000000e+00 0.00000000e+00 0.00000000e+00 9.99200059e-03]","[[9.99162588e-06 3.47418577e-15 1.93760352e-11]
 [3.47418577e-15 9.99160705e-06 3.57557007e-15]
 [1.93760352e-11 3.57557007e-15 9.99200059e-06]]",[ 2.46313074e-13  3.22916731e-17 -4.88215975e-04],0.0,0.0
1786959657.6734126,-2.779221774038857e-13,-3.8218676132060074e-17,0.0005894462829623137,"[9.99142654e-03 3.64295846e-12 0.00000000e+00 0.00000000e+00
 0.00000000e+00 1.97138634e-08 3.64295846e-12 9.99140739e-03
 0.00000000e+00 0.00000000e+00 0.00000000e+00 3.74926792e-12
 0.00000000e+00 0.00000000e+00 0.00000000e+00 0.00000000e+00
 0.00000000e+00 0.00000000e+00 0.00000000e+00 0.00000000e+00
 0.00000000e+00 0.00000000e+00 0.00000000e+00 0.00000000e+00
 0.00000000e+00 0.00000000e+00 0.00000000e+00 0.00000000e+00
 0.00000000e+00 0.00000000e+00 1.97138634e-08 3.74926792e-12
 0.00000000e+00 0.00000000e+00 0.00000000e+00 9.99180779e-03]","[[9.99142654e-06 3.64295846e-15 1.97138634e-11]
 [3.64295846e-15 9.99140739e-06 3.74926792e-15]
 [1.97138634e-11 3.74926792e-15 9.99180779e-06]]",[ 2.66304459e-13  3.60090218e-17 -5.89452173e-04],0.0,0.0
1786959657.727655,-3.0438410415231663e-13,-4.3427795378902657e-17,0.0006819099825370322,"[9.99122729e-03 3.88428363e-12 0.00000000e+00 0.00000000e+00
 0.00000000e+00 2.01200550e-08 3.88428363e-12 9.99120774e-03
 0.00000000e+00 0.00000000e+00 0.00000000e+00 3.99763551e-12
 0.00000000e+00 0.00000000e+00 0.00000000e+00 0.00000000e+00
 0.00000000e+00 0.00000000e+00 0.00000000e+00 0.00000000e+00
 0.00000000e+00 0.00000000e+00 0.00000000e+00 0.00000000e+00
 0.00000000e+00 0.00000000e+00 0.00000000e+00 0.00000000e+00
 0.00000000e+00 0.00000000e+00 2.01200550e-08 3.99763551e-12
 0.00000000e+00 0.00000000e+00 0.00000000e+00 9.99161638e-03]","[[9.99122729e-06 3.88428363e-15 2.01200550e-11]
 [3.88428363e-15 9.99120774e-06 3.99763551e-15]
 [2.01200550e-11 3.99763551e-15 9.99161638e-06]]",[ 2.90666805e-13  4.07021472e-17 -6.81916796e-04],0.0,0.0
1786959657.765963,-3.497345080334217e-13,-5.3060991656622963e-17,0.0007053461871713296,"[9.99092851e-03 4.37434144e-12 0.00000000e+00 0.00000000e+00
 0.00000000e+00 2.08312977e-08 4.37434144e-12 9.99090827e-03
 0.00000000e+00 0.00000000e+00 0.00000000e+00 4.50199436e-12
 0.00000000e+00 0.00000000e+00 0.00000000e+00 0.00000000e+00
 0.00000000e+00 0.00000000e+00 0.00000000e+00 0.00000000e+00
 0.00000000e+00 0.00000000e+00 0.00000000e+00 0.00000000e+00
 0.00000000e+00 0.00000000e+00 0.00000000e+00 0.00000000e+00
 0.00000000e+00 0.00000000e+00 2.08312977e-08 4.50199436e-12
 0.00000000e+00 0.00000000e+00 0.00000000e+00 9.99133137e-03]","[[9.99102821e-06 4.28227766e-15 2.07034791e-11]
 [4.28227766e-15 9.99100809e-06 4.40724394e-15]
 [2.07034791e-11 4.40724394e-15 9.99142859e-06]]",[ 3.19735528e-13  4.66269034e-17 -7.39590615e-04],0.0,0.0
1786959657.8212876,-3.7677449979543243e-13,-5.910833987927054e-17,0.0006229033320122035,"[9.99072926e-03 4.63528126e-12 0.00000000e+00 0.00000000e+00
 0.00000000e+00 2.12195852e-08 4.63528126e-12 9.99070864e-03
 0.00000000e+00 0.00000000e+00 0.00000000e+00 4.77054902e-12
 0.00000000e+00 0.00000000e+00 0.00000000e+00 0.00000000e+00
 0.00000000e+00 0.00000000e+00 0.00000000e+00 0.00000000e+00
 0.00000000e+00 0.00000000e+00 0.00000000e+00 0.00000000e+00
 0.00000000e+00 0.00000000e+00 0.00000000e+00 0.00000000e+00
 0.00000000e+00 0.00000000e+00 2.12195852e-08 4.77054902e-12
 0.00000000e+00 0.00000000e+00 0.00000000e+00 9.99113962e-03]","[[9.99072926e-06 4.63528126e-15 2.12195852e-11]
 [4.63528126e-15 9.99070864e-06 4.77054902e-15]
 [2.12195852e-11 4.77054902e-15 9.99113962e-06]]",[ 3.63560250e-13  5.61372802e-17 -6.22909556e-04],0.0,0.0
1786959657.868844,-4.0243819452390346e-13,-6.497736601013376e-17,0.000588515801021483,"[9.99052995e-03 4.83121687e-12 0.00000000e+00 0.00000000e+00
 0.00000000e+00 2.15478060e-08 4.83121687e-12 9.99050902e-03
 0.00000000e+00 0.00000000e+00 0.00000000e+00 4.97220247e-12
 0.00000000e+00 0.00000000e+00 0.00000000e+00 0.00000000e+00
 0.00000000e+00 0.00000000e+00 0.00000000e+00 0.00000000e+00
 0.00000000e+00 0.00000000e+00 0.00000000e+00 0.00000000e+00
 0.00000000e+00 0.00000000e+00 0.00000000e+00 0.00000000e+00
 0.00000000e+00 0.00000000e+00 2.15478060e-08 4.97220247e-12
 0.00000000e+00 0.00000000e+00 0.00000000e+00 9.99094666e-03]","[[9.99052995e-06 4.83121687e-15 2.15478060e-11]
 [4.83121687e-15 9.99050902e-06 4.97220247e-15]
 [2.15478060e-11 4.97220247e-15 9.99094666e-06]]",[ 3.89760737e-13  6.20517370e-17 -5.88521681e-04],0.0,0.0
1786959657.9183998,-4.3925664218867495e-13,-7.36259944056677e-17,0.0005491683025264927,"[9.99023093e-03 5.06232260e-12 0.00000000e+00 0.00000000e+00
 0.00000000e+00 2.19608960e-08 5.06232260e-12 9.99020959e-03
 0.00000000e+00 0.00000000e+00 0.00000000e+00 5.21005238e-12
 0.00000000e+00 0.00000000e+00 0.00000000e+00 0.00000000e+00
 0.00000000e+00 0.00000000e+00 0.00000000e+00 0.00000000e+00
 0.00000000e+00 0.00000000e+00 0.00000000e+00 0.00000000e+00
 0.00000000e+00 0.00000000e+00 0.00000000e+00 0.00000000e+00
 0.00000000e+00 0.00000000e+00 2.19608960e-08 5.21005238e-12
 0.00000000e+00 0.00000000e+00 0.00000000e+00 9.99065563e-03]","[[9.99023093e-06 5.06232260e-15 2.19608960e-11]
 [5.06232260e-15 9.99020959e-06 5.21005238e-15]
 [2.19608960e-11 5.21005238e-15 9.99065563e-06]]",[ 4.27200562e-13  7.07654772e-17 -5.49173789e-04],0.0,0.0
1786959657.9674642,-4.644046033443974e-13,-7.967557074816385e-17,0.0005725004222161267,"[9.99003162e-03 5.22537906e-12 0.00000000e+00 0.00000000e+00
 0.00000000e+00 2.22628397e-08 5.22537906e-12 9.99000999e-03
 0.00000000e+00 0.00000000e+00 0.00000000e+00 5.37786719e-12
 0.00000000e+00 0.00000000e+00 0.00000000e+00 0.00000000e+00
 0.00000000e+00 0.00000000e+00 0.00000000e+00 0.00000000e+00
 0.00000000e+00 0.00000000e+00 0.00000000e+00 0.00000000e+00
 0.00000000e+00 0.00000000e+00 0.00000000e+00 0.00000000e+00
 0.00000000e+00 0.00000000e+00 2.22628397e-08 5.37786719e-12
 0.00000000e+00 0.00000000e+00 0.00000000e+00 9.99046216e-03]","[[9.99003162e-06 5.22537906e-15 2.22628397e-11]
 [5.22537906e-15 9.99000999e-06 5.37786719e-15]
 [2.22628397e-11 5.37786719e-15 9.99046216e-06]]",[ 4.51663503e-13  7.65974740e-17 -5.72506142e-04],0.0,0.0
1786959658.026048,-5.047140161222514e-13,-8.96095635926036e-17,0.0006060472470914569,"[9.98973269e-03 5.49320239e-12 0.00000000e+00 0.00000000e+00
 0.00000000e+00 2.27345451e-08 5.49320239e-12 9.98971060e-03
 0.00000000e+00 0.00000000e+00 0.00000000e+00 5.65350621e-12
 0.00000000e+00 0.00000000e+00 0.00000000e+00 0.00000000e+00
 0.00000000e+00 0.00000000e+00 0.00000000e+00 0.00000000e+00
 0.00000000e+00 0.00000000e+00 0.00000000e+00 0.00000000e+00
 0.00000000e+00 0.00000000e+00 0.00000000e+00 0.00000000e+00
 0.00000000e+00 0.00000000e+00 2.27345451e-08 5.65350621e-12
 0.00000000e+00 0.00000000e+00 0.00000000e+00 9.99017235e-03]","[[9.98973269e-06 5.49320239e-15 2.27345451e-11]
 [5.49320239e-15 9.98971060e-06 5.65350621e-15]
 [2.27345451e-11 5.65350621e-15 9.99017235e-06]]",[ 4.90940574e-13  8.61840984e-17 -6.06053302e-04],0.0,0.0
1786959658.065948,-5.348048930053403e-13,-9.722224559370625e-17,0.0006892661856956473,"[9.98953342e-03 5.68922626e-12 0.00000000e+00 0.00000000e+00
 0.00000000e+00 2.30643236e-08 5.68922626e-12 9.98951101e-03
 0.00000000e+00 0.00000000e+00 0.00000000e+00 5.85525050e-12
 0.00000000e+00 0.00000000e+00 0.00000000e+00 0.00000000e+00
 0.00000000e+00 0.00000000e+00 0.00000000e+00 0.00000000e+00
 0.00000000e+00 0.00000000e+00 0.00000000e+00 0.00000000e+00
 0.00000000e+00 0.00000000e+00 0.00000000e+00 0.00000000e+00
 0.00000000e+00 0.00000000e+00 2.30643236e-08 5.85525050e-12
 0.00000000e+00 0.00000000e+00 0.00000000e+00 9.98997946e-03]","[[9.98953342e-06 5.68922626e-15 2.30643236e-11]
 [5.68922626e-15 9.98951101e-06 5.85525050e-15]
 [2.30643236e-11 5.85525050e-15 9.98997946e-06]]",[ 5.18912459e-13  9.31873100e-17 -6.89273072e-04],0.0,0.0
1786959658.1530733,-5.858287258165382e-13,-1.1048433992367633e-16,0.0007480105507795544,"[9.98923453e-03 6.02295523e-12 0.00000000e+00 0.00000000e+00
 0.00000000e+00 2.35476302e-08 6.02295523e-12 9.98921165e-03
 0.00000000e+00 0.00000000e+00 0.00000000e+00 6.19871847e-12
 0.00000000e+00 0.00000000e+00 0.00000000e+00 0.00000000e+00
 0.00000000e+00 0.00000000e+00 0.00000000e+00 0.00000000e+00
 0.00000000e+00 0.00000000e+00 0.00000000e+00 0.00000000e+00
 0.00000000e+00 0.00000000e+00 0.00000000e+00 0.00000000e+00
 0.00000000e+00 0.00000000e+00 2.35476302e-08 6.19871847e-12
 0.00000000e+00 0.00000000e+00 0.00000000e+00 9.98968991e-03]","[[9.98923453e-06 6.02295523e-15 2.35476302e-11]
 [6.02295523e-15 9.98921165e-06 6.19871847e-15]
 [2.35476302e-11 6.19871847e-15 9.98968991e-06]]",[ 5.68220350e-13  1.05848644e-16 -7.48018023e-04],0.0,0.0
1786959658.171746,-6.059620569673675e-13,-1.1606944973932013e-16,0.0008303173056289915,"[9.98913543e-03 6.53697489e-12 0.00000000e+00 0.00000000e+00
 0.00000000e+00 2.42545612e-08 6.53697489e-12 9.98911187e-03
 0.00000000e+00 0.00000000e+00 0.00000000e+00 6.72773844e-12
 0.00000000e+00 0.00000000e+00 0.00000000e+00 0.00000000e+00
 0.00000000e+00 0.00000000e+00 0.00000000e+00 0.00000000e+00
 0.00000000e+00 0.00000000e+00 0.00000000e+00 0.00000000e+00
 0.00000000e+00 0.00000000e+00 0.00000000e+00 0.00000000e+00
 0.00000000e+00 0.00000000e+00 2.42545612e-08 6.72773844e-12
 0.00000000e+00 0.00000000e+00 0.00000000e+00 9.98960449e-03]","[[9.98913543e-06 6.53697489e-15 2.42545612e-11]
 [6.53697489e-15 9.98911187e-06 6.72773844e-15]
 [2.42545612e-11 6.72773844e-15 9.98960449e-06]]",[ 5.85828726e-13  1.10484340e-16 -8.30325600e-04],0.0,0.0
1786959658.2162788,-6.672877923387007e-13,-1.3342646306860983e-16,0.0008366853169508026,"[9.98883646e-03 6.84104722e-12 0.00000000e+00 0.00000000e+00
 0.00000000e+00 2.46295202e-08 6.84104722e-12 9.98881253e-03
 0.00000000e+00 0.00000000e+00 0.00000000e+00 7.04068434e-12
 0.00000000e+00 0.00000000e+00 0.00000000e+00 0.00000000e+00
 0.00000000e+00 0.00000000e+00 0.00000000e+00 0.00000000e+00
 0.00000000e+00 0.00000000e+00 0.00000000e+00 0.00000000e+00
 0.00000000e+00 0.00000000e+00 0.00000000e+00 0.00000000e+00
 0.00000000e+00 0.00000000e+00 2.46295202e-08 7.04068434e-12
 0.00000000e+00 0.00000000e+00 0.00000000e+00 9.98931277e-03]","[[9.98883646e-06 6.84104722e-15 2.46295202e-11]
 [6.84104722e-15 9.98881253e-06 7.04068434e-15]
 [2.46295202e-11 7.04068434e-15 9.98931277e-06]]",[ 6.46686888e-13  1.27536841e-16 -8.36693675e-04],0.0,0.0
1786959658.2675009,-7.085443737068499e-13,-1.454412684347891e-16,0.0008275682901364159,"[9.98863721e-03 7.09164457e-12 0.00000000e+00 0.00000000e+00
 0.00000000e+00 2.49379108e-08 7.09164457e-12 9.98861298e-03
 0.00000000e+00 0.00000000e+00 0.00000000e+00 7.29859473e-12
 0.00000000e+00 0.00000000e+00 0.00000000e+00 0.00000000e+00
 0.00000000e+00 0.00000000e+00 0.00000000e+00 0.00000000e+00
 0.00000000e+00 0.00000000e+00 0.00000000e+00 0.00000000e+00
 0.00000000e+00 0.00000000e+00 0.00000000e+00 0.00000000e+00
 0.00000000e+00 0.00000000e+00 2.49379108e-08 7.29859473e-12
 0.00000000e+00 0.00000000e+00 0.00000000e+00 9.98911948e-03]","[[9.98863721e-06 7.09164457e-15 2.49379108e-11]
 [7.09164457e-15 9.98861298e-06 7.29859473e-15]
 [2.49379108e-11 7.29859473e-15 9.98911948e-06]]",[ 6.87913215e-13  1.39402515e-16 -8.27576557e-04],0.0,0.0
1786959658.3201249,-7.698349476300092e-13,-1.638397122943161e-16,0.0007997975444968831,"[9.98833837e-03 7.47435211e-12 0.00000000e+00 0.00000000e+00
 0.00000000e+00 2.54175207e-08 7.47435211e-12 9.98831367e-03
 0.00000000e+00 0.00000000e+00 0.00000000e+00 7.69247060e-12
 0.00000000e+00 0.00000000e+00 0.00000000e+00 0.00000000e+00
 0.00000000e+00 0.00000000e+00 0.00000000e+00 0.00000000e+00
 0.00000000e+00 0.00000000e+00 0.00000000e+00 0.00000000e+00
 0.00000000e+00 0.00000000e+00 0.00000000e+00 0.00000000e+00
 0.00000000e+00 0.00000000e+00 2.54175207e-08 7.69247060e-12
 0.00000000e+00 0.00000000e+00 0.00000000e+00 9.98882991e-03]","[[9.98833837e-06 7.47435211e-15 2.54175207e-11]
 [7.47435211e-15 9.98831367e-06 7.69247060e-15]
 [2.54175207e-11 7.69247060e-15 9.98882991e-06]]",[ 7.49513360e-13  1.57688807e-16 -7.99805534e-04],0.0,0.0
1786959658.3680365,-8.085030780158427e-13,-1.7573087649585253e-16,0.0007390295162266193,"[9.98813916e-03 7.72574514e-12 0.00000000e+00 0.00000000e+00
 0.00000000e+00 2.57462931e-08 7.72574514e-12 9.98811414e-03
 0.00000000e+00 0.00000000e+00 0.00000000e+00 7.95119989e-12
 0.00000000e+00 0.00000000e+00 0.00000000e+00 0.00000000e+00
 0.00000000e+00 0.00000000e+00 0.00000000e+00 0.00000000e+00
 0.00000000e+00 0.00000000e+00 0.00000000e+00 0.00000000e+00
 0.00000000e+00 0.00000000e+00 0.00000000e+00 0.00000000e+00
 0.00000000e+00 0.00000000e+00 2.57462931e-08 7.95119989e-12
 0.00000000e+00 0.00000000e+00 0.00000000e+00 9.98863706e-03]","[[9.98813916e-06 7.72574514e-15 2.57462931e-11]
 [7.72574514e-15 9.98811414e-06 7.95119989e-15]
 [2.57462931e-11 7.95119989e-15 9.98863706e-06]]",[ 7.89483503e-13  1.69856343e-16 -7.39036898e-04],0.0,0.0
1786959658.4251924,-8.626204241750751e-13,-1.9268462123224507e-16,0.0006751434145204627,"[9.98784030e-03 8.02307196e-12 0.00000000e+00 0.00000000e+00
 0.00000000e+00 2.61741055e-08 8.02307196e-12 9.98781487e-03
 0.00000000e+00 0.00000000e+00 0.00000000e+00 8.25720339e-12
 0.00000000e+00 0.00000000e+00 0.00000000e+00 0.00000000e+00
 0.00000000e+00 0.00000000e+00 0.00000000e+00 0.00000000e+00
 0.00000000e+00 0.00000000e+00 0.00000000e+00 0.00000000e+00
 0.00000000e+00 0.00000000e+00 0.00000000e+00 0.00000000e+00
 0.00000000e+00 0.00000000e+00 2.61741055e-08 8.25720339e-12
 0.00000000e+00 0.00000000e+00 0.00000000e+00 9.98834647e-03]","[[9.98784030e-06 8.02307196e-15 2.61741055e-11]
 [8.02307196e-15 9.98781487e-06 8.25720339e-15]
 [2.61741055e-11 8.25720339e-15 9.98834647e-06]]",[ 8.44957412e-13  1.87111638e-16 -6.75150158e-04],0.0,0.0
1786959658.4664047,-8.964482720626027e-13,-2.034749088131644e-16,0.0006301994119879417,"[9.98764110e-03 8.23153814e-12 0.00000000e+00 0.00000000e+00
 0.00000000e+00 2.64960248e-08 8.23153814e-12 9.98761536e-03
 0.00000000e+00 0.00000000e+00 0.00000000e+00 8.47175310e-12
 0.00000000e+00 0.00000000e+00 0.00000000e+00 0.00000000e+00
 0.00000000e+00 0.00000000e+00 0.00000000e+00 0.00000000e+00
 0.00000000e+00 0.00000000e+00 0.00000000e+00 0.00000000e+00
 0.00000000e+00 0.00000000e+00 0.00000000e+00 0.00000000e+00
 0.00000000e+00 0.00000000e+00 2.64960248e-08 8.47175310e-12
 0.00000000e+00 0.00000000e+00 0.00000000e+00 9.98815350e-03]","[[9.98764110e-06 8.23153814e-15 2.64960248e-11]
 [8.23153814e-15 9.98761536e-06 8.47175310e-15]
 [2.64960248e-11 8.47175310e-15 9.98815350e-06]]",[ 8.79759113e-13  1.98137941e-16 -6.30205707e-04],0.0,0.0
1786959658.5181272,-9.44507319666344e-13,-2.1901189501030687e-16,0.0005824395682454409,"[9.98734230e-03 8.50525158e-12 0.00000000e+00 0.00000000e+00
 0.00000000e+00 2.69534899e-08 8.50525158e-12 9.98731611e-03
 0.00000000e+00 0.00000000e+00 0.00000000e+00 8.75345410e-12
 0.00000000e+00 0.00000000e+00 0.00000000e+00 0.00000000e+00
 0.00000000e+00 0.00000000e+00 0.00000000e+00 0.00000000e+00
 0.00000000e+00 0.00000000e+00 0.00000000e+00 0.00000000e+00
 0.00000000e+00 0.00000000e+00 0.00000000e+00 0.00000000e+00
 0.00000000e+00 0.00000000e+00 2.69534899e-08 8.75345410e-12
 0.00000000e+00 0.00000000e+00 0.00000000e+00 9.98786355e-03]","[[9.98734230e-06 8.50525158e-15 2.69534899e-11]
 [8.50525158e-15 9.98731611e-06 8.75345410e-15]
 [2.69534899e-11 8.75345410e-15 9.98786355e-06]]",[ 9.28817660e-13  2.13915623e-16 -5.82445386e-04],0.0,0.0
1786959658.565933,-1.0004616971928856e-12,-2.373774893408382e-16,0.0007394219850529461,"[9.98704352e-03 8.79218220e-12 0.00000000e+00 0.00000000e+00
 0.00000000e+00 2.74197114e-08 8.79218220e-12 9.98701688e-03
 0.00000000e+00 0.00000000e+00 0.00000000e+00 9.04875801e-12
 0.00000000e+00 0.00000000e+00 0.00000000e+00 0.00000000e+00
 0.00000000e+00 0.00000000e+00 0.00000000e+00 0.00000000e+00
 0.00000000e+00 0.00000000e+00 0.00000000e+00 0.00000000e+00
 0.00000000e+00 0.00000000e+00 0.00000000e+00 0.00000000e+00
 0.00000000e+00 0.00000000e+00 2.74197114e-08 9.04875801e-12
 0.00000000e+00 0.00000000e+00 0.00000000e+00 9.98757378e-03]","[[9.98704352e-06 8.79218220e-15 2.74197114e-11]
 [8.79218220e-15 9.98701688e-06 9.04875801e-15]
 [2.74197114e-11 9.04875801e-15 9.98757378e-06]]",[ 9.80196547e-13  2.30688876e-16 -7.39429370e-04],0.0,0.0
1786959658.6197212,-1.0463512490502403e-12,-2.5270661139697335e-16,0.0008589264519707207,"[9.98684437e-03 9.04329700e-12 0.00000000e+00 0.00000000e+00
 0.00000000e+00 2.77551886e-08 9.04329700e-12 9.98681740e-03
 0.00000000e+00 0.00000000e+00 0.00000000e+00 9.30720094e-12
 0.00000000e+00 0.00000000e+00 0.00000000e+00 0.00000000e+00
 0.00000000e+00 0.00000000e+00 0.00000000e+00 0.00000000e+00
 0.00000000e+00 0.00000000e+00 0.00000000e+00 0.00000000e+00
 0.00000000e+00 0.00000000e+00 0.00000000e+00 0.00000000e+00
 0.00000000e+00 0.00000000e+00 2.77551886e-08 9.30720094e-12
 0.00000000e+00 0.00000000e+00 0.00000000e+00 9.98738112e-03]","[[9.98684437e-06 9.04329700e-15 2.77551886e-11]
 [9.04329700e-15 9.98681740e-06 9.30720094e-15]
 [2.77551886e-11 9.30720094e-15 9.98738112e-06]]",[ 1.02252156e-12  2.44714774e-16 -8.58935030e-04],0.0,0.0
1786959658.66941,-1.1021929271607765e-12,-2.7169450575855115e-16,0.001046006229581842,"[9.98664520e-03 9.31847715e-12 0.00000000e+00 0.00000000e+00
 0.00000000e+00 2.80667701e-08 9.31847715e-12 9.98661793e-03
 0.00000000e+00 0.00000000e+00 0.00000000e+00 9.59041153e-12
 0.00000000e+00 0.00000000e+00 0.00000000e+00 0.00000000e+00
 0.00000000e+00 0.00000000e+00 0.00000000e+00 0.00000000e+00
 0.00000000e+00 0.00000000e+00 0.00000000e+00 0.00000000e+00
 0.00000000e+00 0.00000000e+00 0.00000000e+00 0.00000000e+00
 0.00000000e+00 0.00000000e+00 2.80667701e-08 9.59041153e-12
 0.00000000e+00 0.00000000e+00 0.00000000e+00 9.98718798e-03]","[[9.98664520e-06 9.31847715e-15 2.80667701e-11]
 [9.31847715e-15 9.98661793e-06 9.59041153e-15]
 [2.80667701e-11 9.59041153e-15 9.98718798e-06]]",[ 1.07284533e-12  2.61665389e-16 -1.04601668e-03],0.0,0.0
1786959658.7163553,-1.194886395271868e-12,-3.041807816710836e-16,0.0011178308410935143,"[9.98634649e-03 9.82799847e-12 0.00000000e+00 0.00000000e+00
 0.00000000e+00 2.85597344e-08 9.82799847e-12 9.98631874e-03
 0.00000000e+00 0.00000000e+00 0.00000000e+00 1.01148020e-11
 0.00000000e+00 0.00000000e+00 0.00000000e+00 0.00000000e+00
 0.00000000e+00 0.00000000e+00 0.00000000e+00 0.00000000e+00
 0.00000000e+00 0.00000000e+00 0.00000000e+00 0.00000000e+00
 0.00000000e+00 0.00000000e+00 0.00000000e+00 0.00000000e+00
 0.00000000e+00 0.00000000e+00 2.85597344e-08 1.01148020e-11
 0.00000000e+00 0.00000000e+00 0.00000000e+00 9.98689880e-03]","[[9.98634649e-06 9.82799847e-15 2.85597344e-11]
 [9.82799847e-15 9.98631874e-06 1.01148020e-14]
 [2.85597344e-11 1.01148020e-14 9.98689880e-06]]",[ 1.16297274e-12  2.92876956e-16 -1.11784200e-03],0.0,0.0
1786959658.7666883,-1.2620071269635438e-12,-3.2832036999630153e-16,0.00118535466868952,"[9.98614732e-03 1.01368433e-11 0.00000000e+00 0.00000000e+00
 0.00000000e+00 2.88388242e-08 1.01368433e-11 9.98611929e-03
 0.00000000e+00 0.00000000e+00 0.00000000e+00 1.04326598e-11
 0.00000000e+00 0.00000000e+00 0.00000000e+00 0.00000000e+00
 0.00000000e+00 0.00000000e+00 0.00000000e+00 0.00000000e+00
 0.00000000e+00 0.00000000e+00 0.00000000e+00 0.00000000e+00
 0.00000000e+00 0.00000000e+00 0.00000000e+00 0.00000000e+00
 0.00000000e+00 0.00000000e+00 2.88388242e-08 1.04326598e-11
 0.00000000e+00 0.00000000e+00 0.00000000e+00 9.98670502e-03]","[[9.98614732e-06 1.01368433e-14 2.88388242e-11]
 [1.01368433e-14 9.98611929e-06 1.04326598e-14]
 [2.88388242e-11 1.04326598e-14 9.98670502e-06]]",[ 1.22783481e-12  3.15957000e-16 -1.18536651e-03],0.0,0.0
1786959658.8166032,-1.3642485017669768e-12,-3.661983646860141e-16,0.0011619235491422408,"[9.98584860e-03 1.06658069e-11 0.00000000e+00 0.00000000e+00
 0.00000000e+00 2.92999320e-08 1.06658069e-11 9.98582014e-03
 0.00000000e+00 0.00000000e+00 0.00000000e+00 1.09770601e-11
 0.00000000e+00 0.00000000e+00 0.00000000e+00 0.00000000e+00
 0.00000000e+00 0.00000000e+00 0.00000000e+00 0.00000000e+00
 0.00000000e+00 0.00000000e+00 0.00000000e+00 0.00000000e+00
 0.00000000e+00 0.00000000e+00 0.00000000e+00 0.00000000e+00
 0.00000000e+00 0.00000000e+00 2.92999320e-08 1.09770601e-11
 0.00000000e+00 0.00000000e+00 0.00000000e+00 9.98641523e-03]","[[9.98584860e-06 1.06658069e-14 2.92999320e-11]
 [1.06658069e-14 9.98582014e-06 1.09770601e-14]
 [2.92999320e-11 1.09770601e-14 9.98641523e-06]]",[ 1.33021716e-12  3.53447262e-16 -1.16193515e-03],0.0,0.0
1786959658.866206,-1.4635746455216313e-12,-4.0422697620471797e-16,0.0010959136370418678,"[9.98554992e-03 1.11827461e-11 0.00000000e+00 0.00000000e+00
 0.00000000e+00 2.97650031e-08 1.11827461e-11 9.98552099e-03
 0.00000000e+00 0.00000000e+00 0.00000000e+00 1.15090850e-11
 0.00000000e+00 0.00000000e+00 0.00000000e+00 0.00000000e+00
 0.00000000e+00 0.00000000e+00 0.00000000e+00 0.00000000e+00
 0.00000000e+00 0.00000000e+00 0.00000000e+00 0.00000000e+00
 0.00000000e+00 0.00000000e+00 0.00000000e+00 0.00000000e+00
 0.00000000e+00 0.00000000e+00 2.97650031e-08 1.15090850e-11
 0.00000000e+00 0.00000000e+00 0.00000000e+00 9.98612553e-03]","[[9.98554992e-06 1.11827461e-14 2.97650031e-11]
 [1.11827461e-14 9.98552099e-06 1.15090850e-14]
 [2.97650031e-11 1.15090850e-14 9.98612553e-06]]",[ 1.43096874e-12  3.91617798e-16 -1.09592458e-03],0.0,0.0
1786959658.9189382,-1.5272972194102008e-12,-4.292105513843196e-16,0.0010535022199618105,"[9.98535079e-03 1.15002764e-11 0.00000000e+00 0.00000000e+00
 0.00000000e+00 3.00655849e-08 1.15002764e-11 9.98532158e-03
 0.00000000e+00 0.00000000e+00 0.00000000e+00 1.18358816e-11
 0.00000000e+00 0.00000000e+00 0.00000000e+00 0.00000000e+00
 0.00000000e+00 0.00000000e+00 0.00000000e+00 0.00000000e+00
 0.00000000e+00 0.00000000e+00 0.00000000e+00 0.00000000e+00
 0.00000000e+00 0.00000000e+00 0.00000000e+00 0.00000000e+00
 0.00000000e+00 0.00000000e+00 3.00655849e-08 1.18358816e-11
 0.00000000e+00 0.00000000e+00 0.00000000e+00 9.98593222e-03]","[[9.98535079e-06 1.15002764e-14 3.00655849e-11]
 [1.15002764e-14 9.98532158e-06 1.18358816e-14]
 [3.00655849e-11 1.18358816e-14 9.98593222e-06]]",[ 1.49563768e-12  4.16745461e-16 -1.05351274e-03],0.0,0.0
1786959658.966231,-1.6205813430919967e-12,-4.665905209031434e-16,0.001024239621129297,"[9.98505213e-03 1.19675762e-11 0.00000000e+00 0.00000000e+00
 0.00000000e+00 3.05288084e-08 1.19675762e-11 9.98502247e-03
 0.00000000e+00 0.00000000e+00 0.00000000e+00 1.23168184e-11
 0.00000000e+00 0.00000000e+00 0.00000000e+00 0.00000000e+00
 0.00000000e+00 0.00000000e+00 0.00000000e+00 0.00000000e+00
 0.00000000e+00 0.00000000e+00 0.00000000e+00 0.00000000e+00
 0.00000000e+00 0.00000000e+00 0.00000000e+00 0.00000000e+00
 0.00000000e+00 0.00000000e+00 3.05288084e-08 1.23168184e-11
 0.00000000e+00 0.00000000e+00 0.00000000e+00 9.98564252e-03]","[[9.98505213e-06 1.19675762e-14 3.05288084e-11]
 [1.19675762e-14 9.98502247e-06 1.23168184e-14]
 [3.05288084e-11 1.23168184e-14 9.98564252e-06]]",[ 1.58932809e-12  4.53979555e-16 -1.02424985e-03],0.0,0.0
1786959659.0184543,-1.6845936138114341e-12,-4.927717994735341e-16,0.0010455921618235389,"[9.98485311e-03 1.23527055e-11 0.00000000e+00 0.00000000e+00
 0.00000000e+00 3.09128934e-08 1.23527055e-11 9.98482307e-03
 0.00000000e+00 0.00000000e+00 0.00000000e+00 1.27131868e-11
 0.00000000e+00 0.00000000e+00 0.00000000e+00 0.00000000e+00
 0.00000000e+00 0.00000000e+00 0.00000000e+00 0.00000000e+00
 0.00000000e+00 0.00000000e+00 0.00000000e+00 0.00000000e+00
 0.00000000e+00 0.00000000e+00 0.00000000e+00 0.00000000e+00
 0.00000000e+00 0.00000000e+00 3.09128934e-08 1.27131868e-11
 0.00000000e+00 0.00000000e+00 0.00000000e+00 9.98545092e-03]","[[9.98485311e-06 1.23527055e-14 3.09128934e-11]
 [1.23527055e-14 9.98482307e-06 1.27131868e-14]
 [3.09128934e-11 1.27131868e-14 9.98545092e-06]]",[ 1.65228751e-12  4.79483646e-16 -1.04560260e-03],0.0,0.0
1786959659.069973,-1.7515158019795325e-12,-5.205402027086625e-16,0.0010884202991667815,"[9.98465395e-03 1.26033239e-11 0.00000000e+00 0.00000000e+00
 0.00000000e+00 3.11561676e-08 1.26033239e-11 9.98462368e-03
 0.00000000e+00 0.00000000e+00 0.00000000e+00 1.29711189e-11
 0.00000000e+00 0.00000000e+00 0.00000000e+00 0.00000000e+00
 0.00000000e+00 0.00000000e+00 0.00000000e+00 0.00000000e+00
 0.00000000e+00 0.00000000e+00 0.00000000e+00 0.00000000e+00
 0.00000000e+00 0.00000000e+00 0.00000000e+00 0.00000000e+00
 0.00000000e+00 0.00000000e+00 3.11561676e-08 1.29711189e-11
 0.00000000e+00 0.00000000e+00 0.00000000e+00 9.98525647e-03]","[[9.98465395e-06 1.26033239e-14 3.11561676e-11]
 [1.26033239e-14 9.98462368e-06 1.29711189e-14]
 [3.11561676e-11 1.29711189e-14 9.98525647e-06]]",[ 1.71762161e-12  5.06427089e-16 -1.08843117e-03],0.0,0.0
1786959659.1172345,-1.8629623360019623e-12,-5.678260965597153e-16,0.0012239517471215324,"[9.98435539e-03 1.31752502e-11 0.00000000e+00 0.00000000e+00
 0.00000000e+00 3.16750946e-08 1.31752502e-11 9.98432461e-03
 0.00000000e+00 0.00000000e+00 0.00000000e+00 1.35597355e-11
 0.00000000e+00 0.00000000e+00 0.00000000e+00 0.00000000e+00
 0.00000000e+00 0.00000000e+00 0.00000000e+00 0.00000000e+00
 0.00000000e+00 0.00000000e+00 0.00000000e+00 0.00000000e+00
 0.00000000e+00 0.00000000e+00 0.00000000e+00 0.00000000e+00
 0.00000000e+00 0.00000000e+00 3.16750946e-08 1.35597355e-11
 0.00000000e+00 0.00000000e+00 0.00000000e+00 9.98496795e-03]","[[9.98445488e-06 1.29455940e-14 3.14742812e-11]
 [1.29455940e-14 9.98442430e-06 1.33233774e-14]
 [3.14742812e-11 1.33233774e-14 9.98506355e-06]]",[ 1.78725754e-12  5.35589839e-16 -1.17466318e-03],0.0,0.0
1786959659.1661785,-1.943538701153125e-12,-6.028342261211332e-16,0.0012730980442889896,"[9.98415632e-03 1.35431189e-11 0.00000000e+00 0.00000000e+00
 0.00000000e+00 3.19810418e-08 1.35431189e-11 9.98412524e-03
 0.00000000e+00 0.00000000e+00 0.00000000e+00 1.39383397e-11
 0.00000000e+00 0.00000000e+00 0.00000000e+00 0.00000000e+00
 0.00000000e+00 0.00000000e+00 0.00000000e+00 0.00000000e+00
 0.00000000e+00 0.00000000e+00 0.00000000e+00 0.00000000e+00
 0.00000000e+00 0.00000000e+00 0.00000000e+00 0.00000000e+00
 0.00000000e+00 0.00000000e+00 3.19810418e-08 1.39383397e-11
 0.00000000e+00 0.00000000e+00 0.00000000e+00 9.98477479e-03]","[[9.98415632e-06 1.35431189e-14 3.19810418e-11]
 [1.35431189e-14 9.98412524e-06 1.39383397e-14]
 [3.19810418e-11 1.39383397e-14 9.98477479e-06]]",[ 1.90284229e-12  5.85095018e-16 -1.27311076e-03],0.0,0.0
1786959659.2172482,-2.066012956389685e-12,-6.571936515570466e-16,0.0012613684141649095,"[9.98385770e-03 1.40772509e-11 0.00000000e+00 0.00000000e+00
 0.00000000e+00 3.24128166e-08 1.40772509e-11 9.98382620e-03
 0.00000000e+00 0.00000000e+00 0.00000000e+00 1.44880592e-11
 0.00000000e+00 0.00000000e+00 0.00000000e+00 0.00000000e+00
 0.00000000e+00 0.00000000e+00 0.00000000e+00 0.00000000e+00
 0.00000000e+00 0.00000000e+00 0.00000000e+00 0.00000000e+00
 0.00000000e+00 0.00000000e+00 0.00000000e+00 0.00000000e+00
 0.00000000e+00 0.00000000e+00 3.24128166e-08 1.44880592e-11
 0.00000000e+00 0.00000000e+00 0.00000000e+00 9.98448452e-03]","[[9.98385770e-06 1.40772509e-14 3.24128166e-11]
 [1.40772509e-14 9.98382620e-06 1.44880592e-14]
 [3.24128166e-11 1.44880592e-14 9.98448452e-06]]",[ 2.02514826e-12  6.38925068e-16 -1.26138101e-03],0.0,0.0
1786959659.2676914,-2.149081050805242e-12,-6.948296983694439e-16,0.0012760245951501936,"[9.98365864e-03 1.44532672e-11 0.00000000e+00 0.00000000e+00
 0.00000000e+00 3.27179632e-08 1.44532672e-11 9.98362685e-03
 0.00000000e+00 0.00000000e+00 0.00000000e+00 1.48750488e-11
 0.00000000e+00 0.00000000e+00 0.00000000e+00 0.00000000e+00
 0.00000000e+00 0.00000000e+00 0.00000000e+00 0.00000000e+00
 0.00000000e+00 0.00000000e+00 0.00000000e+00 0.00000000e+00
 0.00000000e+00 0.00000000e+00 0.00000000e+00 0.00000000e+00
 0.00000000e+00 0.00000000e+00 3.27179632e-08 1.48750488e-11
 0.00000000e+00 0.00000000e+00 0.00000000e+00 9.98429137e-03]","[[9.98365864e-06 1.44532672e-14 3.27179632e-11]
 [1.44532672e-14 9.98362685e-06 1.48750488e-14]
 [3.27179632e-11 1.48750488e-14 9.98429137e-06]]",[ 2.10735275e-12  6.75855328e-16 -1.27603734e-03],0.0,0.0
1786959659.3161874,-2.2772826289018785e-12,-7.543271683587551e-16,0.001298507536374949,"[9.98336011e-03 1.50713020e-11 0.00000000e+00 0.00000000e+00
 0.00000000e+00 3.32127843e-08 1.50713020e-11 9.98332784e-03
 0.00000000e+00 0.00000000e+00 0.00000000e+00 1.55111197e-11
 0.00000000e+00 0.00000000e+00 0.00000000e+00 0.00000000e+00
 0.00000000e+00 0.00000000e+00 0.00000000e+00 0.00000000e+00
 0.00000000e+00 0.00000000e+00 0.00000000e+00 0.00000000e+00
 0.00000000e+00 0.00000000e+00 0.00000000e+00 0.00000000e+00
 0.00000000e+00 0.00000000e+00 3.32127843e-08 1.55111197e-11
 0.00000000e+00 0.00000000e+00 0.00000000e+00 9.98400241e-03]","[[9.98336011e-06 1.50713020e-14 3.32127843e-11]
 [1.50713020e-14 9.98332784e-06 1.55111197e-14]
 [3.32127843e-11 1.55111197e-14 9.98400241e-06]]",[ 2.23417745e-12  7.34192991e-16 -1.29852050e-03],0.0,0.0
1786959659.4063947,-2.363690265833633e-12,-7.952076825416584e-16,0.0012788677493862368,"[9.98316112e-03 1.55110988e-11 0.00000000e+00 0.00000000e+00
 0.00000000e+00 3.35593841e-08 1.55110988e-11 9.98312851e-03
 0.00000000e+00 0.00000000e+00 0.00000000e+00 1.59637510e-11
 0.00000000e+00 0.00000000e+00 0.00000000e+00 0.00000000e+00
 0.00000000e+00 0.00000000e+00 0.00000000e+00 0.00000000e+00
 0.00000000e+00 0.00000000e+00 0.00000000e+00 0.00000000e+00
 0.00000000e+00 0.00000000e+00 0.00000000e+00 0.00000000e+00
 0.00000000e+00 0.00000000e+00 3.35593841e-08 1.59637510e-11
 0.00000000e+00 0.00000000e+00 0.00000000e+00 9.98381012e-03]","[[9.98316112e-06 1.55110988e-14 3.35593841e-11]
 [1.55110988e-14 9.98312851e-06 1.59637510e-14]
 [3.35593841e-11 1.59637510e-14 9.98381012e-06]]",[ 2.32079499e-12  7.74799687e-16 -1.27888052e-03],0.0,0.0
1786959659.4232497,-2.363690265833633e-12,-7.952076825416584e-16,0.0012788677493862368,"[9.98316112e-03 1.55110988e-11 0.00000000e+00 0.00000000e+00
 0.00000000e+00 3.35593841e-08 1.55110988e-11 9.98312851e-03
 0.00000000e+00 0.00000000e+00 0.00000000e+00 1.59637510e-11
 0.00000000e+00 0.00000000e+00 0.00000000e+00 0.00000000e+00
 0.00000000e+00 0.00000000e+00 0.00000000e+00 0.00000000e+00
 0.00000000e+00 0.00000000e+00 0.00000000e+00 0.00000000e+00
 0.00000000e+00 0.00000000e+00 0.00000000e+00 0.00000000e+00
 0.00000000e+00 0.00000000e+00 3.35593841e-08 1.59637510e-11
 0.00000000e+00 0.00000000e+00 0.00000000e+00 9.98381012e-03]","[[9.98316112e-06 1.55110988e-14 3.35593841e-11]
 [1.55110988e-14 9.98312851e-06 1.59637510e-14]
 [3.35593841e-11 1.59637510e-14 9.98381012e-06]]",[ 2.32079499e-12  7.74799687e-16 -1.27888052e-03],0.0,0.0
1786959659.470636,-2.4907937638748536e-12,-8.621568692132443e-16,0.001165375360024701,"[9.98286446e-03 1.84598034e-11 0.00000000e+00 0.00000000e+00
 0.00000000e+00 3.59420586e-08 1.84598034e-11 9.98282953e-03
 0.00000000e+00 0.00000000e+00 0.00000000e+00 1.89985074e-11
 0.00000000e+00 0.00000000e+00 0.00000000e+00 0.00000000e+00
 0.00000000e+00 0.00000000e+00 0.00000000e+00 0.00000000e+00
 0.00000000e+00 0.00000000e+00 0.00000000e+00 0.00000000e+00
 0.00000000e+00 0.00000000e+00 0.00000000e+00 0.00000000e+00
 0.00000000e+00 0.00000000e+00 3.59420586e-08 1.89985074e-11
 0.00000000e+00 0.00000000e+00 0.00000000e+00 9.98355953e-03]","[[9.98286446e-06 1.84598034e-14 3.59420586e-11]
 [1.84598034e-14 9.98282953e-06 1.89985074e-14]
 [3.59420586e-11 1.89985074e-14 9.98355953e-06]]",[ 2.44893180e-12  8.40024642e-16 -1.16538699e-03],0.0,0.0
1786959659.5167315,-2.6200860823106616e-12,-9.312630273491774e-16,0.0012027236748162198,"[9.98256593e-03 1.89757899e-11 0.00000000e+00 0.00000000e+00
 0.00000000e+00 3.63929221e-08 1.89757899e-11 9.98253057e-03
 0.00000000e+00 0.00000000e+00 0.00000000e+00 1.95295518e-11
 0.00000000e+00 0.00000000e+00 0.00000000e+00 0.00000000e+00
 0.00000000e+00 0.00000000e+00 0.00000000e+00 0.00000000e+00
 0.00000000e+00 0.00000000e+00 0.00000000e+00 0.00000000e+00
 0.00000000e+00 0.00000000e+00 0.00000000e+00 0.00000000e+00
 0.00000000e+00 0.00000000e+00 3.63929221e-08 1.95295518e-11
 0.00000000e+00 0.00000000e+00 0.00000000e+00 9.98326973e-03]","[[9.98256593e-06 1.89757899e-14 3.63929221e-11]
 [1.89757899e-14 9.98253057e-06 1.95295518e-14]
 [3.63929221e-11 1.95295518e-14 9.98326973e-06]]",[ 2.57634073e-12  9.07783201e-16 -1.20273568e-03],0.0,0.0
1786959659.566384,-2.714988300472216e-12,-9.84023281281311e-16,0.0012824319551572037,"[9.98236769e-03 2.02504187e-11 0.00000000e+00 0.00000000e+00
 0.00000000e+00 3.74819192e-08 2.02504187e-11 9.98233127e-03
 0.00000000e+00 0.00000000e+00 0.00000000e+00 2.08413779e-11
 0.00000000e+00 0.00000000e+00 0.00000000e+00 0.00000000e+00
 0.00000000e+00 0.00000000e+00 0.00000000e+00 0.00000000e+00
 0.00000000e+00 0.00000000e+00 0.00000000e+00 0.00000000e+00
 0.00000000e+00 0.00000000e+00 0.00000000e+00 0.00000000e+00
 0.00000000e+00 0.00000000e+00 3.74819192e-08 2.08413779e-11
 0.00000000e+00 0.00000000e+00 0.00000000e+00 9.98309255e-03]","[[9.98246732e-06 2.02235900e-14 3.74602744e-11]
 [2.02235900e-14 9.98243092e-06 2.08137663e-14]
 [3.74602744e-11 2.08137663e-14 9.98319176e-06]]",[ 2.62008608e-12  9.31263027e-16 -1.25163271e-03],0.0,0.0
1786959659.616429,-2.8212647425974003e-12,-1.0436660975037137e-15,0.0014453555850715283,"[9.98216871e-03 2.06547034e-11 0.00000000e+00 0.00000000e+00
 0.00000000e+00 3.77967140e-08 2.06547034e-11 9.98213198e-03
 0.00000000e+00 0.00000000e+00 0.00000000e+00 2.12574607e-11
 0.00000000e+00 0.00000000e+00 0.00000000e+00 0.00000000e+00
 0.00000000e+00 0.00000000e+00 0.00000000e+00 0.00000000e+00
 0.00000000e+00 0.00000000e+00 0.00000000e+00 0.00000000e+00
 0.00000000e+00 0.00000000e+00 0.00000000e+00 0.00000000e+00
 0.00000000e+00 0.00000000e+00 3.77967140e-08 2.12574607e-11
 0.00000000e+00 0.00000000e+00 0.00000000e+00 9.98289965e-03]","[[9.98216871e-06 2.06547034e-14 3.77967140e-11]
 [2.06547034e-14 9.98213198e-06 2.12574607e-14]
 [3.77967140e-11 2.12574607e-14 9.98289965e-06]]",[ 2.76666212e-12  1.01295131e-15 -1.44537001e-03],0.0,0.0
1786959659.6663787,-2.990483485180304e-12,-1.140083955372573e-15,0.0015029780258424277,"[9.98187023e-03 2.13062923e-11 0.00000000e+00 0.00000000e+00
 0.00000000e+00 3.82541368e-08 2.13062923e-11 9.98183306e-03
 0.00000000e+00 0.00000000e+00 0.00000000e+00 2.19280650e-11
 0.00000000e+00 0.00000000e+00 0.00000000e+00 0.00000000e+00
 0.00000000e+00 0.00000000e+00 0.00000000e+00 0.00000000e+00
 0.00000000e+00 0.00000000e+00 0.00000000e+00 0.00000000e+00
 0.00000000e+00 0.00000000e+00 0.00000000e+00 0.00000000e+00
 0.00000000e+00 0.00000000e+00 3.82541368e-08 2.19280650e-11
 0.00000000e+00 0.00000000e+00 0.00000000e+00 9.98261002e-03]","[[9.98196972e-06 2.10865777e-14 3.81016156e-11]
 [2.10865777e-14 9.98193270e-06 2.17019386e-14]
 [3.81016156e-11 2.17019386e-14 9.98270656e-06]]",[ 2.87672881e-12  1.07507096e-15 -1.47807284e-03],0.0,0.0
1786959659.7174907,-3.1090801292379512e-12,-1.2087751859194536e-15,0.0015532422226938185,"[9.98167127e-03 2.17652479e-11 0.00000000e+00 0.00000000e+00
 0.00000000e+00 3.85649750e-08 2.17652479e-11 9.98163379e-03
 0.00000000e+00 0.00000000e+00 0.00000000e+00 2.24004145e-11
 0.00000000e+00 0.00000000e+00 0.00000000e+00 0.00000000e+00
 0.00000000e+00 0.00000000e+00 0.00000000e+00 0.00000000e+00
 0.00000000e+00 0.00000000e+00 0.00000000e+00 0.00000000e+00
 0.00000000e+00 0.00000000e+00 0.00000000e+00 0.00000000e+00
 0.00000000e+00 0.00000000e+00 3.85649750e-08 2.24004145e-11
 0.00000000e+00 0.00000000e+00 0.00000000e+00 9.98241707e-03]","[[9.98167127e-06 2.17652479e-14 3.85649750e-11]
 [2.17652479e-14 9.98163379e-06 2.24004145e-14]
 [3.85649750e-11 2.24004145e-14 9.98241707e-06]]",[ 3.04920922e-12  1.17399329e-15 -1.55325773e-03],0.0,0.0
1786959659.7659447,-3.2896982261601832e-12,-1.3151266294757895e-15,0.0015360690179626597,"[9.98137282e-03 2.24565647e-11 0.00000000e+00 0.00000000e+00
 0.00000000e+00 3.90210765e-08 2.24565647e-11 9.98133490e-03
 0.00000000e+00 0.00000000e+00 0.00000000e+00 2.31119062e-11
 0.00000000e+00 0.00000000e+00 0.00000000e+00 0.00000000e+00
 0.00000000e+00 0.00000000e+00 0.00000000e+00 0.00000000e+00
 0.00000000e+00 0.00000000e+00 0.00000000e+00 0.00000000e+00
 0.00000000e+00 0.00000000e+00 0.00000000e+00 0.00000000e+00
 0.00000000e+00 0.00000000e+00 3.90210765e-08 2.31119062e-11
 0.00000000e+00 0.00000000e+00 0.00000000e+00 9.98212744e-03]","[[9.98147233e-06 2.22683865e-14 3.88971782e-11]
 [2.22683865e-14 9.98143453e-06 2.29182363e-14]
 [3.88971782e-11 2.29182363e-14 9.98222455e-06]]",[ 3.16925625e-12  1.24396436e-15 -1.55708425e-03],0.0,0.0
1786959659.817669,-3.4075731077918232e-12,-1.3856968275903636e-15,0.0014900753333755292,"[9.98117392e-03 2.30003599e-11 0.00000000e+00 0.00000000e+00
 0.00000000e+00 3.93876823e-08 2.30003599e-11 9.98113565e-03
 0.00000000e+00 0.00000000e+00 0.00000000e+00 2.36715711e-11
 0.00000000e+00 0.00000000e+00 0.00000000e+00 0.00000000e+00
 0.00000000e+00 0.00000000e+00 0.00000000e+00 0.00000000e+00
 0.00000000e+00 0.00000000e+00 0.00000000e+00 0.00000000e+00
 0.00000000e+00 0.00000000e+00 0.00000000e+00 0.00000000e+00
 0.00000000e+00 0.00000000e+00 3.93876823e-08 2.36715711e-11
 0.00000000e+00 0.00000000e+00 0.00000000e+00 9.98193563e-03]","[[9.98117392e-06 2.30003599e-14 3.93876823e-11]
 [2.30003599e-14 9.98113565e-06 2.36715711e-14]
 [3.93876823e-11 2.36715711e-14 9.98193563e-06]]",[ 3.34891533e-12  1.35043753e-15 -1.49009021e-03],0.0,0.0
1786959659.8666966,-3.523414107049045e-12,-1.4558058239926308e-15,0.0014550688065479989,"[9.98097493e-03 2.33753266e-11 0.00000000e+00 0.00000000e+00
 0.00000000e+00 3.96473719e-08 2.33753266e-11 9.98093641e-03
 0.00000000e+00 0.00000000e+00 0.00000000e+00 2.40574805e-11
 0.00000000e+00 0.00000000e+00 0.00000000e+00 0.00000000e+00
 0.00000000e+00 0.00000000e+00 0.00000000e+00 0.00000000e+00
 0.00000000e+00 0.00000000e+00 0.00000000e+00 0.00000000e+00
 0.00000000e+00 0.00000000e+00 0.00000000e+00 0.00000000e+00
 0.00000000e+00 0.00000000e+00 3.96473719e-08 2.40574805e-11
 0.00000000e+00 0.00000000e+00 0.00000000e+00 9.98174167e-03]","[[9.98097493e-06 2.33753266e-14 3.96473719e-11]
 [2.33753266e-14 9.98093641e-06 2.40574805e-14]
 [3.96473719e-11 2.40574805e-14 9.98174167e-06]]",[ 3.46575847e-12  1.42081437e-15 -1.45508333e-03],0.0,0.0
1786959659.9362304,-3.694335135234292e-12,-1.560682339299007e-15,0.0014127715249490078,"[9.98067654e-03 2.40266863e-11 0.00000000e+00 0.00000000e+00
 0.00000000e+00 4.01110649e-08 2.40266863e-11 9.98063756e-03
 0.00000000e+00 0.00000000e+00 0.00000000e+00 2.47278489e-11
 0.00000000e+00 0.00000000e+00 0.00000000e+00 0.00000000e+00
 0.00000000e+00 0.00000000e+00 0.00000000e+00 0.00000000e+00
 0.00000000e+00 0.00000000e+00 0.00000000e+00 0.00000000e+00
 0.00000000e+00 0.00000000e+00 0.00000000e+00 0.00000000e+00
 0.00000000e+00 0.00000000e+00 4.01110649e-08 2.47278489e-11
 0.00000000e+00 0.00000000e+00 0.00000000e+00 9.98145224e-03]","[[9.98067654e-06 2.40266863e-14 4.01110649e-11]
 [2.40266863e-14 9.98063756e-06 2.47278489e-14]
 [4.01110649e-11 2.47278489e-14 9.98145224e-06]]",[ 3.63770311e-12  1.52576242e-15 -1.41278563e-03],0.0,0.0
1786959659.9697328,-3.805905172787365e-12,-1.63041182740129e-15,0.0013731202800544295,"[9.98047774e-03 2.46279029e-11 0.00000000e+00 0.00000000e+00
 0.00000000e+00 4.05487161e-08 2.46279029e-11 9.98043834e-03
 0.00000000e+00 0.00000000e+00 0.00000000e+00 2.53466108e-11
 0.00000000e+00 0.00000000e+00 0.00000000e+00 0.00000000e+00
 0.00000000e+00 0.00000000e+00 0.00000000e+00 0.00000000e+00
 0.00000000e+00 0.00000000e+00 0.00000000e+00 0.00000000e+00
 0.00000000e+00 0.00000000e+00 0.00000000e+00 0.00000000e+00
 0.00000000e+00 0.00000000e+00 4.05487161e-08 2.53466108e-11
 0.00000000e+00 0.00000000e+00 0.00000000e+00 9.98126190e-03]","[[9.98047774e-06 2.46279029e-14 4.05487161e-11]
 [2.46279029e-14 9.98043834e-06 2.53466108e-14]
 [4.05487161e-11 2.53466108e-14 9.98126190e-06]]",[ 3.75026378e-12  1.59562346e-15 -1.37313399e-03],0.0,0.0
1786959660.0162983,-3.982225887737283e-12,-1.7416886483384088e-15,0.0014754650366914923,"[9.98017940e-03 2.52979201e-11 0.00000000e+00 0.00000000e+00
 0.00000000e+00 4.10367593e-08 2.52979201e-11 9.98013952e-03
 0.00000000e+00 0.00000000e+00 0.00000000e+00 2.60361811e-11
 0.00000000e+00 0.00000000e+00 0.00000000e+00 0.00000000e+00
 0.00000000e+00 0.00000000e+00 0.00000000e+00 0.00000000e+00
 0.00000000e+00 0.00000000e+00 0.00000000e+00 0.00000000e+00
 0.00000000e+00 0.00000000e+00 0.00000000e+00 0.00000000e+00
 0.00000000e+00 0.00000000e+00 4.10367593e-08 2.60361811e-11
 0.00000000e+00 0.00000000e+00 0.00000000e+00 9.98097300e-03]","[[9.98017940e-06 2.52979201e-14 4.10367593e-11]
 [2.52979201e-14 9.98013952e-06 2.60361811e-14]
 [4.10367593e-11 2.60361811e-14 9.98097300e-06]]",[ 3.92171612e-12  1.70328979e-15 -1.47547976e-03],0.0,0.0
1786959660.0666444,-4.180843879704924e-12,-1.868998729176492e-15,0.00167689235494084,"[9.97988101e-03 2.59334776e-11 0.00000000e+00 0.00000000e+00
 0.00000000e+00 4.14626602e-08 2.59334776e-11 9.97984072e-03
 0.00000000e+00 0.00000000e+00 0.00000000e+00 2.66902862e-11
 0.00000000e+00 0.00000000e+00 0.00000000e+00 0.00000000e+00
 0.00000000e+00 0.00000000e+00 0.00000000e+00 0.00000000e+00
 0.00000000e+00 0.00000000e+00 0.00000000e+00 0.00000000e+00
 0.00000000e+00 0.00000000e+00 0.00000000e+00 0.00000000e+00
 0.00000000e+00 0.00000000e+00 4.14626602e-08 2.66902862e-11
 0.00000000e+00 0.00000000e+00 0.00000000e+00 9.98068285e-03]","[[9.97988101e-06 2.59334776e-14 4.14626602e-11]
 [2.59334776e-14 9.97984072e-06 2.66902862e-14]
 [4.14626602e-11 2.66902862e-14 9.98068285e-06]]",[ 4.11135580e-12  1.82425975e-15 -1.67690909e-03],0.0,0.0
1786959660.116667,-4.333704012349449e-12,-1.9685362244598004e-15,0.0018706176379472694,"[9.97968215e-03 2.65032570e-11 0.00000000e+00 0.00000000e+00
 0.00000000e+00 4.18039315e-08 2.65032570e-11 9.97964153e-03
 0.00000000e+00 0.00000000e+00 0.00000000e+00 2.72766938e-11
 0.00000000e+00 0.00000000e+00 0.00000000e+00 0.00000000e+00
 0.00000000e+00 0.00000000e+00 0.00000000e+00 0.00000000e+00
 0.00000000e+00 0.00000000e+00 0.00000000e+00 0.00000000e+00
 0.00000000e+00 0.00000000e+00 0.00000000e+00 0.00000000e+00
 0.00000000e+00 0.00000000e+00 4.18039315e-08 2.72766938e-11
 0.00000000e+00 0.00000000e+00 0.00000000e+00 9.98049059e-03]","[[9.97968215e-06 2.65032570e-14 4.18039315e-11]
 [2.65032570e-14 9.97964153e-06 2.72766938e-14]
 [4.18039315e-11 2.72766938e-14 9.98049059e-06]]",[ 4.25554653e-12  1.91753059e-15 -1.87063631e-03],0.0,0.0
1786959660.166153,-4.576147519682362e-12,-2.128799542013496e-15,0.001943191272760103,"[9.97938380e-03 2.73090532e-11 0.00000000e+00 0.00000000e+00
 0.00000000e+00 4.22392244e-08 2.73090532e-11 9.97934276e-03
 0.00000000e+00 0.00000000e+00 0.00000000e+00 2.81060062e-11
 0.00000000e+00 0.00000000e+00 0.00000000e+00 0.00000000e+00
 0.00000000e+00 0.00000000e+00 0.00000000e+00 0.00000000e+00
 0.00000000e+00 0.00000000e+00 0.00000000e+00 0.00000000e+00
 0.00000000e+00 0.00000000e+00 0.00000000e+00 0.00000000e+00
 0.00000000e+00 0.00000000e+00 4.22392244e-08 2.81060062e-11
 0.00000000e+00 0.00000000e+00 0.00000000e+00 9.98020066e-03]","[[9.97938380e-06 2.73090532e-14 4.22392244e-11]
 [2.73090532e-14 9.97934276e-06 2.81060062e-14]
 [4.22392244e-11 2.81060062e-14 9.98020066e-06]]",[ 4.49411266e-12  2.07420435e-15 -1.94321067e-03],0.0,0.0
1786959660.2213936,-4.743743452696846e-12,-2.241594846369127e-15,0.0019832624114695108,"[9.97918495e-03 2.79279741e-11 0.00000000e+00 0.00000000e+00
 0.00000000e+00 4.25642641e-08 2.79279741e-11 9.97914359e-03
 0.00000000e+00 0.00000000e+00 0.00000000e+00 2.87429898e-11
 0.00000000e+00 0.00000000e+00 0.00000000e+00 0.00000000e+00
 0.00000000e+00 0.00000000e+00 0.00000000e+00 0.00000000e+00
 0.00000000e+00 0.00000000e+00 0.00000000e+00 0.00000000e+00
 0.00000000e+00 0.00000000e+00 0.00000000e+00 0.00000000e+00
 0.00000000e+00 0.00000000e+00 4.25642641e-08 2.87429898e-11
 0.00000000e+00 0.00000000e+00 0.00000000e+00 9.98000809e-03]","[[9.97918495e-06 2.79279741e-14 4.25642641e-11]
 [2.79279741e-14 9.97914359e-06 2.87429898e-14]
 [4.25642641e-11 2.87429898e-14 9.98000809e-06]]",[ 4.65937300e-12  2.18461119e-15 -1.98328220e-03],0.0,0.0
1786959660.266076,-4.990641908076257e-12,-2.4105731136303425e-15,0.001912060837868435,"[9.97888664e-03 2.87770200e-11 0.00000000e+00 0.00000000e+00
 0.00000000e+00 4.30117516e-08 2.87770200e-11 9.97884485e-03
 0.00000000e+00 0.00000000e+00 0.00000000e+00 2.96168142e-11
 0.00000000e+00 0.00000000e+00 0.00000000e+00 0.00000000e+00
 0.00000000e+00 0.00000000e+00 0.00000000e+00 0.00000000e+00
 0.00000000e+00 0.00000000e+00 0.00000000e+00 0.00000000e+00
 0.00000000e+00 0.00000000e+00 0.00000000e+00 0.00000000e+00
 0.00000000e+00 0.00000000e+00 4.30117516e-08 2.96168142e-11
 0.00000000e+00 0.00000000e+00 0.00000000e+00 9.97971844e-03]","[[9.97898609e-06 2.85308106e-14 4.28792752e-11]
 [2.85308106e-14 9.97894443e-06 2.93634194e-14]
 [4.28792752e-11 2.93634194e-14 9.97981532e-06]]",[ 4.82681692e-12  2.29805578e-15 -1.90488834e-03],0.0,0.0
1786959660.3163555,-5.156971539272327e-12,-2.5262656858311777e-15,0.0019280185526819869,"[9.97868781e-03 2.93871652e-11 0.00000000e+00 0.00000000e+00
 0.00000000e+00 4.33383661e-08 2.93871652e-11 9.97864570e-03
 0.00000000e+00 0.00000000e+00 0.00000000e+00 3.02447658e-11
 0.00000000e+00 0.00000000e+00 0.00000000e+00 0.00000000e+00
 0.00000000e+00 0.00000000e+00 0.00000000e+00 0.00000000e+00
 0.00000000e+00 0.00000000e+00 0.00000000e+00 0.00000000e+00
 0.00000000e+00 0.00000000e+00 0.00000000e+00 0.00000000e+00
 0.00000000e+00 0.00000000e+00 4.33383661e-08 3.02447658e-11
 0.00000000e+00 0.00000000e+00 0.00000000e+00 9.97952592e-03]","[[9.97868781e-06 2.93871652e-14 4.33383661e-11]
 [2.93871652e-14 9.97864570e-06 3.02447658e-14]
 [4.33383661e-11 3.02447658e-14 9.97952592e-06]]",[ 5.07346416e-12  2.46797726e-15 -1.92803779e-03],0.0,0.0
1786959660.3678036,-5.321529127632701e-12,-2.6420932456811247e-15,0.0018775940932629351,"[9.97848894e-03 2.99182142e-11 0.00000000e+00 0.00000000e+00
 0.00000000e+00 4.36226683e-08 2.99182142e-11 9.97844656e-03
 0.00000000e+00 0.00000000e+00 0.00000000e+00 3.07913129e-11
 0.00000000e+00 0.00000000e+00 0.00000000e+00 0.00000000e+00
 0.00000000e+00 0.00000000e+00 0.00000000e+00 0.00000000e+00
 0.00000000e+00 0.00000000e+00 0.00000000e+00 0.00000000e+00
 0.00000000e+00 0.00000000e+00 0.00000000e+00 0.00000000e+00
 0.00000000e+00 0.00000000e+00 4.36226683e-08 3.07913129e-11
 0.00000000e+00 0.00000000e+00 0.00000000e+00 9.97933255e-03]","[[9.97848894e-06 2.99182142e-14 4.36226683e-11]
 [2.99182142e-14 9.97844656e-06 3.07913129e-14]
 [4.36226683e-11 3.07913129e-14 9.97933255e-06]]",[ 5.23967493e-12  2.58430487e-15 -1.87761283e-03],0.0,0.0
1786959660.4163952,-5.558431074382615e-12,-2.81126633661344e-15,0.001759576993659362,"[9.97819069e-03 3.07504796e-11 0.00000000e+00 0.00000000e+00
 0.00000000e+00 4.40869669e-08 3.07504796e-11 9.97814786e-03
 0.00000000e+00 0.00000000e+00 0.00000000e+00 3.16478669e-11
 0.00000000e+00 0.00000000e+00 0.00000000e+00 0.00000000e+00
 0.00000000e+00 0.00000000e+00 0.00000000e+00 0.00000000e+00
 0.00000000e+00 0.00000000e+00 0.00000000e+00 0.00000000e+00
 0.00000000e+00 0.00000000e+00 0.00000000e+00 0.00000000e+00
 0.00000000e+00 0.00000000e+00 4.40869669e-08 3.16478669e-11
 0.00000000e+00 0.00000000e+00 0.00000000e+00 9.97904328e-03]","[[9.97819069e-06 3.07504796e-14 4.40869669e-11]
 [3.07504796e-14 9.97814786e-06 3.16478669e-14]
 [4.40869669e-11 3.16478669e-14 9.97904328e-06]]",[ 5.48091058e-12  2.75560642e-15 -1.75959455e-03],0.0,0.0
1786959660.4667983,-5.793499263890444e-12,-2.9818435252388554e-15,0.001749578890839487,"[9.97789246e-03 3.15486286e-11 0.00000000e+00 0.00000000e+00
 0.00000000e+00 4.45499789e-08 3.15486286e-11 9.97784917e-03
 0.00000000e+00 0.00000000e+00 0.00000000e+00 3.24693088e-11
 0.00000000e+00 0.00000000e+00 0.00000000e+00 0.00000000e+00
 0.00000000e+00 0.00000000e+00 0.00000000e+00 0.00000000e+00
 0.00000000e+00 0.00000000e+00 0.00000000e+00 0.00000000e+00
 0.00000000e+00 0.00000000e+00 0.00000000e+00 0.00000000e+00
 0.00000000e+00 0.00000000e+00 4.45499789e-08 3.24693088e-11
 0.00000000e+00 0.00000000e+00 0.00000000e+00 9.97875400e-03]","[[9.97789246e-06 3.15486286e-14 4.45499789e-11]
 [3.15486286e-14 9.97784917e-06 3.24693088e-14]
 [4.45499789e-11 3.24693088e-14 9.97875400e-06]]",[ 5.71561181e-12  2.92506453e-15 -1.74959635e-03],0.0,0.0
1786959660.516326,-5.94586685989628e-12,-3.093712875515855e-15,0.0016868745758222836,"[9.97769365e-03 3.20686535e-11 0.00000000e+00 0.00000000e+00
 0.00000000e+00 4.48576229e-08 3.20686535e-11 9.97765006e-03
 0.00000000e+00 0.00000000e+00 0.00000000e+00 3.30045099e-11
 0.00000000e+00 0.00000000e+00 0.00000000e+00 0.00000000e+00
 0.00000000e+00 0.00000000e+00 0.00000000e+00 0.00000000e+00
 0.00000000e+00 0.00000000e+00 0.00000000e+00 0.00000000e+00
 0.00000000e+00 0.00000000e+00 0.00000000e+00 0.00000000e+00
 0.00000000e+00 0.00000000e+00 4.48576229e-08 3.30045099e-11
 0.00000000e+00 0.00000000e+00 0.00000000e+00 9.97856114e-03]","[[9.97769365e-06 3.20686535e-14 4.48576229e-11]
 [3.20686535e-14 9.97765006e-06 3.30045099e-14]
 [4.48576229e-11 3.30045099e-14 9.97856114e-06]]",[ 5.87025549e-12  3.03806816e-15 -1.68689141e-03],0.0,0.0
1786959660.5662842,-6.176897738016919e-12,-3.265265858836885e-15,0.001721450134325675,"[9.97739544e-03 3.28199548e-11 0.00000000e+00 0.00000000e+00
 0.00000000e+00 4.53124524e-08 3.28199548e-11 9.97735141e-03
 0.00000000e+00 0.00000000e+00 0.00000000e+00 3.37777367e-11
 0.00000000e+00 0.00000000e+00 0.00000000e+00 0.00000000e+00
 0.00000000e+00 0.00000000e+00 0.00000000e+00 0.00000000e+00
 0.00000000e+00 0.00000000e+00 0.00000000e+00 0.00000000e+00
 0.00000000e+00 0.00000000e+00 0.00000000e+00 0.00000000e+00
 0.00000000e+00 0.00000000e+00 4.53124524e-08 3.37777367e-11
 0.00000000e+00 0.00000000e+00 0.00000000e+00 9.97827173e-03]","[[9.97739544e-06 3.28199548e-14 4.53124524e-11]
 [3.28199548e-14 9.97735141e-06 3.37777367e-14]
 [4.53124524e-11 3.37777367e-14 9.97827173e-06]]",[ 6.09895468e-12  3.20715059e-15 -1.72146731e-03],0.0,0.0
1786959660.6200674,-6.336603551567396e-12,-3.3852766245196905e-15,0.0017619806706559162,"[9.97719667e-03 3.33773015e-11 0.00000000e+00 0.00000000e+00
 0.00000000e+00 4.56430010e-08 3.33773015e-11 9.97715232e-03
 0.00000000e+00 0.00000000e+00 0.00000000e+00 3.43513488e-11
 0.00000000e+00 0.00000000e+00 0.00000000e+00 0.00000000e+00
 0.00000000e+00 0.00000000e+00 0.00000000e+00 0.00000000e+00
 0.00000000e+00 0.00000000e+00 0.00000000e+00 0.00000000e+00
 0.00000000e+00 0.00000000e+00 0.00000000e+00 0.00000000e+00
 0.00000000e+00 0.00000000e+00 4.56430010e-08 3.43513488e-11
 0.00000000e+00 0.00000000e+00 0.00000000e+00 9.97807935e-03]","[[9.97719667e-06 3.33773015e-14 4.56430010e-11]
 [3.33773015e-14 9.97715232e-06 3.43513488e-14]
 [4.56430010e-11 3.43513488e-14 9.97807935e-06]]",[ 6.25624308e-12  3.32478278e-15 -1.76199825e-03],0.0,0.0
1786959660.6664622,-6.589229916077727e-12,-3.577179474859942e-15,0.001856241672416381,"[9.97689849e-03 3.41722235e-11 0.00000000e+00 0.00000000e+00
 0.00000000e+00 4.60951455e-08 3.41722235e-11 9.97685370e-03
 0.00000000e+00 0.00000000e+00 0.00000000e+00 3.51694695e-11
 0.00000000e+00 0.00000000e+00 0.00000000e+00 0.00000000e+00
 0.00000000e+00 0.00000000e+00 0.00000000e+00 0.00000000e+00
 0.00000000e+00 0.00000000e+00 0.00000000e+00 0.00000000e+00
 0.00000000e+00 0.00000000e+00 0.00000000e+00 0.00000000e+00
 0.00000000e+00 0.00000000e+00 4.60951455e-08 3.51694695e-11
 0.00000000e+00 0.00000000e+00 0.00000000e+00 9.97778991e-03]","[[9.97699788e-06 3.38970881e-14 4.59420877e-11]
 [3.38970881e-14 9.97695324e-06 3.48863047e-14]
 [4.59420877e-11 3.48863047e-14 9.97788634e-06]]",[ 6.41909658e-12  3.44764971e-15 -1.84357499e-03],0.0,0.0
1786959660.7163117,-6.762868796985402e-12,-3.710656939226656e-15,0.0018819587904803647,"[9.97669972e-03 3.47437818e-11 0.00000000e+00 0.00000000e+00
 0.00000000e+00 4.64098429e-08 3.47437818e-11 9.97665463e-03
 0.00000000e+00 0.00000000e+00 0.00000000e+00 3.57577080e-11
 0.00000000e+00 0.00000000e+00 0.00000000e+00 0.00000000e+00
 0.00000000e+00 0.00000000e+00 0.00000000e+00 0.00000000e+00
 0.00000000e+00 0.00000000e+00 0.00000000e+00 0.00000000e+00
 0.00000000e+00 0.00000000e+00 0.00000000e+00 0.00000000e+00
 0.00000000e+00 0.00000000e+00 4.64098429e-08 3.57577080e-11
 0.00000000e+00 0.00000000e+00 0.00000000e+00 9.97759723e-03]","[[9.97669972e-06 3.47437818e-14 4.64098429e-11]
 [3.47437818e-14 9.97665463e-06 3.57577080e-14]
 [4.64098429e-11 3.57577080e-14 9.97759723e-06]]",[ 6.67559311e-12  3.64339808e-15 -1.88197757e-03],0.0,0.0
1786959660.7663846,-6.9427160251895745e-12,-3.850237023587843e-15,0.0019466405341783675,"[9.97650096e-03 3.53164982e-11 0.00000000e+00 0.00000000e+00
 0.00000000e+00 4.67191584e-08 3.53164982e-11 9.97645556e-03
 0.00000000e+00 0.00000000e+00 0.00000000e+00 3.63471385e-11
 0.00000000e+00 0.00000000e+00 0.00000000e+00 0.00000000e+00
 0.00000000e+00 0.00000000e+00 0.00000000e+00 0.00000000e+00
 0.00000000e+00 0.00000000e+00 0.00000000e+00 0.00000000e+00
 0.00000000e+00 0.00000000e+00 0.00000000e+00 0.00000000e+00
 0.00000000e+00 0.00000000e+00 4.67191584e-08 3.63471385e-11
 0.00000000e+00 0.00000000e+00 0.00000000e+00 9.97740445e-03]","[[9.97650096e-06 3.53164982e-14 4.67191584e-11]
 [3.53164982e-14 9.97645556e-06 3.63471385e-14]
 [4.67191584e-11 3.63471385e-14 9.97740445e-06]]",[ 6.85183807e-12  3.77951921e-15 -1.94665996e-03],0.0,0.0
1786959660.8161888,-7.214440433019637e-12,-4.0636781317724105e-15,0.001958636765487576,"[9.97620282e-03 3.61625048e-11 0.00000000e+00 0.00000000e+00
 0.00000000e+00 4.71702059e-08 3.61625048e-11 9.97615698e-03
 0.00000000e+00 0.00000000e+00 0.00000000e+00 3.72178349e-11
 0.00000000e+00 0.00000000e+00 0.00000000e+00 0.00000000e+00
 0.00000000e+00 0.00000000e+00 0.00000000e+00 0.00000000e+00
 0.00000000e+00 0.00000000e+00 0.00000000e+00 0.00000000e+00
 0.00000000e+00 0.00000000e+00 0.00000000e+00 0.00000000e+00
 0.00000000e+00 0.00000000e+00 4.71702059e-08 3.72178349e-11
 0.00000000e+00 0.00000000e+00 0.00000000e+00 9.97711503e-03]","[[9.97620282e-06 3.61625048e-14 4.71702059e-11]
 [3.61625048e-14 9.97615698e-06 3.72178349e-14]
 [4.71702059e-11 3.72178349e-14 9.97711503e-06]]",[ 7.12212126e-12  3.99082100e-15 -1.95865631e-03],0.0,0.0
1786959660.8664708,-7.507533578407327e-12,-4.2973204708812634e-15,0.002093374499708478,"[9.97590471e-03 3.70785016e-11 0.00000000e+00 0.00000000e+00
 0.00000000e+00 4.76365145e-08 3.70785016e-11 9.97585842e-03
 0.00000000e+00 0.00000000e+00 0.00000000e+00 3.81605642e-11
 0.00000000e+00 0.00000000e+00 0.00000000e+00 0.00000000e+00
 0.00000000e+00 0.00000000e+00 0.00000000e+00 0.00000000e+00
 0.00000000e+00 0.00000000e+00 0.00000000e+00 0.00000000e+00
 0.00000000e+00 0.00000000e+00 0.00000000e+00 0.00000000e+00
 0.00000000e+00 0.00000000e+00 4.76365145e-08 3.81605642e-11
 0.00000000e+00 0.00000000e+00 0.00000000e+00 9.97682594e-03]","[[9.97600407e-06 3.67433548e-14 4.74702999e-11]
 [3.67433548e-14 9.97595794e-06 3.78156364e-14]
 [4.74702999e-11 3.78156364e-14 9.97692208e-06]]",[ 7.30979120e-12  4.13931710e-15 -2.06796978e-03],0.0,0.0
1786959660.9169407,-7.711264292099486e-12,-4.4618269578294405e-15,0.002141411160176965,"[9.97570597e-03 3.76878844e-11 0.00000000e+00 0.00000000e+00
 0.00000000e+00 4.79332797e-08 3.76878844e-11 9.97565939e-03
 0.00000000e+00 0.00000000e+00 0.00000000e+00 3.87877314e-11
 0.00000000e+00 0.00000000e+00 0.00000000e+00 0.00000000e+00
 0.00000000e+00 0.00000000e+00 0.00000000e+00 0.00000000e+00
 0.00000000e+00 0.00000000e+00 0.00000000e+00 0.00000000e+00
 0.00000000e+00 0.00000000e+00 0.00000000e+00 0.00000000e+00
 0.00000000e+00 0.00000000e+00 4.79332797e-08 3.87877314e-11
 0.00000000e+00 0.00000000e+00 0.00000000e+00 9.97663294e-03]","[[9.97570597e-06 3.76878844e-14 4.79332797e-11]
 [3.76878844e-14 9.97565939e-06 3.87877314e-14]
 [4.79332797e-11 3.87877314e-14 9.97663294e-06]]",[ 7.60869431e-12  4.37880933e-15 -2.14143252e-03],0.0,0.0
1786959660.9663908,-8.027049320208806e-12,-4.720139713341594e-15,0.002186310803232505,"[9.97540788e-03 3.86585469e-11 0.00000000e+00 0.00000000e+00
 0.00000000e+00 4.83921184e-08 3.86585469e-11 9.97536086e-03
 0.00000000e+00 0.00000000e+00 0.00000000e+00 3.97867221e-11
 0.00000000e+00 0.00000000e+00 0.00000000e+00 0.00000000e+00
 0.00000000e+00 0.00000000e+00 0.00000000e+00 0.00000000e+00
 0.00000000e+00 0.00000000e+00 0.00000000e+00 0.00000000e+00
 0.00000000e+00 0.00000000e+00 0.00000000e+00 0.00000000e+00
 0.00000000e+00 0.00000000e+00 4.83921184e-08 3.97867221e-11
 0.00000000e+00 0.00000000e+00 0.00000000e+00 9.97634372e-03]","[[9.97550724e-06 3.83265379e-14 4.82371089e-11]
 [3.83265379e-14 9.97546037e-06 3.94450236e-14]
 [4.82371089e-11 3.94450236e-14 9.97644008e-06]]",[ 7.81548439e-12  4.54662959e-15 -2.19583313e-03],0.0,0.0
1786959661.0168946,-8.238139144442956e-12,-4.895180232636514e-15,0.0021665084924964435,"[9.97520920e-03 3.93773290e-11 0.00000000e+00 0.00000000e+00
 0.00000000e+00 4.87300796e-08 3.93773290e-11 9.97516185e-03
 0.00000000e+00 0.00000000e+00 0.00000000e+00 4.05264814e-11
 0.00000000e+00 0.00000000e+00 0.00000000e+00 0.00000000e+00
 0.00000000e+00 0.00000000e+00 0.00000000e+00 0.00000000e+00
 0.00000000e+00 0.00000000e+00 0.00000000e+00 0.00000000e+00
 0.00000000e+00 0.00000000e+00 0.00000000e+00 0.00000000e+00
 0.00000000e+00 0.00000000e+00 4.87300796e-08 4.05264814e-11
 0.00000000e+00 0.00000000e+00 0.00000000e+00 9.97615158e-03]","[[9.97520920e-06 3.93773290e-14 4.87300796e-11]
 [3.93773290e-14 9.97516185e-06 4.05264814e-14]
 [4.87300796e-11 4.05264814e-14 9.97615158e-06]]",[ 8.13264508e-12  4.80742635e-15 -2.16653011e-03],0.0,0.0
1786959661.0665052,-8.550320580126842e-12,-5.1573738526230845e-15,0.0021003706008211336,"[9.97491111e-03 4.02839257e-11 0.00000000e+00 0.00000000e+00
 0.00000000e+00 4.91627808e-08 4.02839257e-11 9.97486334e-03
 0.00000000e+00 0.00000000e+00 0.00000000e+00 4.14595366e-11
 0.00000000e+00 0.00000000e+00 0.00000000e+00 0.00000000e+00
 0.00000000e+00 0.00000000e+00 0.00000000e+00 0.00000000e+00
 0.00000000e+00 0.00000000e+00 0.00000000e+00 0.00000000e+00
 0.00000000e+00 0.00000000e+00 0.00000000e+00 0.00000000e+00
 0.00000000e+00 0.00000000e+00 4.91627808e-08 4.14595366e-11
 0.00000000e+00 0.00000000e+00 0.00000000e+00 9.97586186e-03]","[[9.97491111e-06 4.02839257e-14 4.91627808e-11]
 [4.02839257e-14 9.97486334e-06 4.14595366e-14]
 [4.91627808e-11 4.14595366e-14 9.97586186e-06]]",[ 8.44714375e-12  5.07034317e-15 -2.10039155e-03],0.0,0.0
1786959661.117457,-8.754530707438537e-12,-5.330823108894214e-15,0.002065527453023463,"[9.97471242e-03 4.08994310e-11 0.00000000e+00 0.00000000e+00
 0.00000000e+00 4.94651479e-08 4.08994310e-11 9.97466435e-03
 0.00000000e+00 0.00000000e+00 0.00000000e+00 4.20930049e-11
 0.00000000e+00 0.00000000e+00 0.00000000e+00 0.00000000e+00
 0.00000000e+00 0.00000000e+00 0.00000000e+00 0.00000000e+00
 0.00000000e+00 0.00000000e+00 0.00000000e+00 0.00000000e+00
 0.00000000e+00 0.00000000e+00 0.00000000e+00 0.00000000e+00
 0.00000000e+00 0.00000000e+00 4.94651479e-08 4.20930049e-11
 0.00000000e+00 0.00000000e+00 0.00000000e+00 9.97566901e-03]","[[9.97471242e-06 4.08994310e-14 4.94651479e-11]
 [4.08994310e-14 9.97466435e-06 4.20930049e-14]
 [4.94651479e-11 4.20930049e-14 9.97566901e-06]]",[ 8.65244437e-12  5.24393029e-15 -2.06554806e-03],0.0,0.0
1786959661.1689878,-8.958662782145563e-12,-5.505864703077036e-15,0.0020504429057077718,"[9.97451378e-03 4.16199850e-11 0.00000000e+00 0.00000000e+00
 0.00000000e+00 4.98237087e-08 4.16199850e-11 9.97446537e-03
 0.00000000e+00 0.00000000e+00 0.00000000e+00 4.28345877e-11
 0.00000000e+00 0.00000000e+00 0.00000000e+00 0.00000000e+00
 0.00000000e+00 0.00000000e+00 0.00000000e+00 0.00000000e+00
 0.00000000e+00 0.00000000e+00 0.00000000e+00 0.00000000e+00
 0.00000000e+00 0.00000000e+00 0.00000000e+00 0.00000000e+00
 0.00000000e+00 0.00000000e+00 4.98237087e-08 4.28345877e-11
 0.00000000e+00 0.00000000e+00 0.00000000e+00 9.97547731e-03]","[[9.97451378e-06 4.16199850e-14 4.98237087e-11]
 [4.16199850e-14 9.97446537e-06 4.28345877e-14]
 [4.98237087e-11 4.28345877e-14 9.97547731e-06]]",[ 8.85658943e-12  5.41808799e-15 -2.05046336e-03],0.0,0.0
1786959661.2166524,-9.262766725510798e-12,-5.769309910994407e-15,0.002043452397405776,"[9.97421573e-03 4.24496953e-11 0.00000000e+00 0.00000000e+00
 0.00000000e+00 5.02434846e-08 4.24496953e-11 9.97416691e-03
 0.00000000e+00 0.00000000e+00 0.00000000e+00 4.36885124e-11
 0.00000000e+00 0.00000000e+00 0.00000000e+00 0.00000000e+00
 0.00000000e+00 0.00000000e+00 0.00000000e+00 0.00000000e+00
 0.00000000e+00 0.00000000e+00 0.00000000e+00 0.00000000e+00
 0.00000000e+00 0.00000000e+00 0.00000000e+00 0.00000000e+00
 0.00000000e+00 0.00000000e+00 5.02434846e-08 4.36885124e-11
 0.00000000e+00 0.00000000e+00 0.00000000e+00 9.97518738e-03]","[[9.97421573e-06 4.24496953e-14 5.02434846e-11]
 [4.24496953e-14 9.97416691e-06 4.36885124e-14]
 [5.02434846e-11 4.36885124e-14 9.97518738e-06]]",[ 9.16018690e-12  5.68009028e-15 -2.04347278e-03],0.0,0.0
1786959661.26644,-9.475177783892106e-12,-5.9552903089221475e-15,0.0021234072254885383,"[9.97401706e-03 4.30686365e-11 0.00000000e+00 0.00000000e+00
 0.00000000e+00 5.05513702e-08 4.30686365e-11 9.97396794e-03
 0.00000000e+00 0.00000000e+00 0.00000000e+00 4.43255168e-11
 0.00000000e+00 0.00000000e+00 0.00000000e+00 0.00000000e+00
 0.00000000e+00 0.00000000e+00 0.00000000e+00 0.00000000e+00
 0.00000000e+00 0.00000000e+00 0.00000000e+00 0.00000000e+00
 0.00000000e+00 0.00000000e+00 0.00000000e+00 0.00000000e+00
 0.00000000e+00 0.00000000e+00 5.05513702e-08 4.43255168e-11
 0.00000000e+00 0.00000000e+00 0.00000000e+00 9.97499466e-03]","[[9.97401706e-06 4.30686365e-14 5.05513702e-11]
 [4.30686365e-14 9.97396794e-06 4.43255168e-14]
 [5.05513702e-11 4.43255168e-14 9.97499466e-06]]",[ 9.36792900e-12  5.86122671e-15 -2.12342841e-03],0.0,0.0
1786959661.3171473,-9.801397070461652e-12,-6.2438723251140304e-15,0.0021483078385227125,"[9.97371907e-03 4.40170437e-11 0.00000000e+00 0.00000000e+00
 0.00000000e+00 5.10074818e-08 4.40170437e-11 9.97366951e-03
 0.00000000e+00 0.00000000e+00 0.00000000e+00 4.53016026e-11
 0.00000000e+00 0.00000000e+00 0.00000000e+00 0.00000000e+00
 0.00000000e+00 0.00000000e+00 0.00000000e+00 0.00000000e+00
 0.00000000e+00 0.00000000e+00 0.00000000e+00 0.00000000e+00
 0.00000000e+00 0.00000000e+00 0.00000000e+00 0.00000000e+00
 0.00000000e+00 0.00000000e+00 5.10074818e-08 4.53016026e-11
 0.00000000e+00 0.00000000e+00 0.00000000e+00 9.97470550e-03]","[[9.97371907e-06 4.40170437e-14 5.10074818e-11]
 [4.40170437e-14 9.97366951e-06 4.53016026e-14]
 [5.10074818e-11 4.53016026e-14 9.97470550e-06]]",[ 9.69191287e-12  6.14661087e-15 -2.14832927e-03],0.0,0.0
1786959661.3677137,-1.0151639843289221e-11,-6.557887978395041e-15,0.0023148093336002873,"[9.97342111e-03 4.50141665e-11 0.00000000e+00 0.00000000e+00
 0.00000000e+00 5.14689426e-08 4.50141665e-11 9.97337110e-03
 0.00000000e+00 0.00000000e+00 0.00000000e+00 4.63278260e-11
 0.00000000e+00 0.00000000e+00 0.00000000e+00 0.00000000e+00
 0.00000000e+00 0.00000000e+00 0.00000000e+00 0.00000000e+00
 0.00000000e+00 0.00000000e+00 0.00000000e+00 0.00000000e+00
 0.00000000e+00 0.00000000e+00 0.00000000e+00 0.00000000e+00
 0.00000000e+00 0.00000000e+00 5.14689426e-08 4.63278260e-11
 0.00000000e+00 0.00000000e+00 0.00000000e+00 9.97441646e-03]","[[9.97342111e-06 4.50141665e-14 5.14689426e-11]
 [4.50141665e-14 9.97337110e-06 4.63278260e-14]
 [5.14689426e-11 4.63278260e-14 9.97441646e-06]]",[ 1.00325979e-11  6.45071116e-15 -2.31483242e-03],0.0,0.0
1786959661.4163945,-1.0393717499596101e-11,-6.777467306597505e-15,0.00234232361492559,"[9.97322248e-03 4.57131425e-11 0.00000000e+00 0.00000000e+00
 0.00000000e+00 5.17768793e-08 4.57131425e-11 9.97317217e-03
 0.00000000e+00 0.00000000e+00 0.00000000e+00 4.70472014e-11
 0.00000000e+00 0.00000000e+00 0.00000000e+00 0.00000000e+00
 0.00000000e+00 0.00000000e+00 0.00000000e+00 0.00000000e+00
 0.00000000e+00 0.00000000e+00 0.00000000e+00 0.00000000e+00
 0.00000000e+00 0.00000000e+00 0.00000000e+00 0.00000000e+00
 0.00000000e+00 0.00000000e+00 5.17768793e-08 4.70472014e-11
 0.00000000e+00 0.00000000e+00 0.00000000e+00 9.97422378e-03]","[[9.97322248e-06 4.57131425e-14 5.17768793e-11]
 [4.57131425e-14 9.97317217e-06 4.70472014e-14]
 [5.17768793e-11 4.70472014e-14 9.97422378e-06]]",[ 1.02725405e-11  6.66733293e-15 -2.34234698e-03],0.0,0.0
1786959661.4664505,-1.0759801793751544e-11,-7.11333949640187e-15,0.002351261254831094,"[9.97292454e-03 4.67668444e-11 0.00000000e+00 0.00000000e+00
 0.00000000e+00 5.22380702e-08 4.67668444e-11 9.97287378e-03
 0.00000000e+00 0.00000000e+00 0.00000000e+00 4.81316554e-11
 0.00000000e+00 0.00000000e+00 0.00000000e+00 0.00000000e+00
 0.00000000e+00 0.00000000e+00 0.00000000e+00 0.00000000e+00
 0.00000000e+00 0.00000000e+00 0.00000000e+00 0.00000000e+00
 0.00000000e+00 0.00000000e+00 0.00000000e+00 0.00000000e+00
 0.00000000e+00 0.00000000e+00 5.22380702e-08 4.81316554e-11
 0.00000000e+00 0.00000000e+00 0.00000000e+00 9.97393476e-03]","[[9.97292454e-06 4.67668444e-14 5.22380702e-11]
 [4.67668444e-14 9.97287378e-06 4.81316554e-14]
 [5.22380702e-11 4.81316554e-14 9.97393476e-06]]",[ 1.06370813e-11  7.00023808e-15 -2.35128471e-03],0.0,0.0
1786959661.5164511,-1.1008088458302208e-11,-7.34387684910588e-15,0.002372289882850876,"[9.97272595e-03 4.75219977e-11 0.00000000e+00 0.00000000e+00
 0.00000000e+00 5.25666256e-08 4.75219977e-11 9.97267487e-03
 0.00000000e+00 0.00000000e+00 0.00000000e+00 4.89088477e-11
 0.00000000e+00 0.00000000e+00 0.00000000e+00 0.00000000e+00
 0.00000000e+00 0.00000000e+00 0.00000000e+00 0.00000000e+00
 0.00000000e+00 0.00000000e+00 0.00000000e+00 0.00000000e+00
 0.00000000e+00 0.00000000e+00 0.00000000e+00 0.00000000e+00
 0.00000000e+00 0.00000000e+00 5.25666256e-08 4.89088477e-11
 0.00000000e+00 0.00000000e+00 0.00000000e+00 9.97374252e-03]","[[9.97272595e-06 4.75219977e-14 5.25666256e-11]
 [4.75219977e-14 9.97267487e-06 4.89088477e-14]
 [5.25666256e-11 4.89088477e-14 9.97374252e-06]]",[ 1.08834925e-11  7.22792181e-15 -2.37231354e-03],0.0,0.0
1786959661.567393,-1.1255419313378975e-11,-7.575504383312502e-15,0.0023357632343601335,"[9.97252732e-03 4.81895008e-11 0.00000000e+00 0.00000000e+00
 0.00000000e+00 5.28560830e-08 4.81895008e-11 9.97247597e-03
 0.00000000e+00 0.00000000e+00 0.00000000e+00 4.95958317e-11
 0.00000000e+00 0.00000000e+00 0.00000000e+00 0.00000000e+00
 0.00000000e+00 0.00000000e+00 0.00000000e+00 0.00000000e+00
 0.00000000e+00 0.00000000e+00 0.00000000e+00 0.00000000e+00
 0.00000000e+00 0.00000000e+00 0.00000000e+00 0.00000000e+00
 0.00000000e+00 0.00000000e+00 5.28560830e-08 4.95958317e-11
 0.00000000e+00 0.00000000e+00 0.00000000e+00 9.97354950e-03]","[[9.97252732e-06 4.81895008e-14 5.28560830e-11]
 [4.81895008e-14 9.97247597e-06 4.95958317e-14]
 [5.28560830e-11 4.95958317e-14 9.97354950e-06]]",[ 1.11320698e-11  7.45973350e-15 -2.33578653e-03],0.0,0.0
1786959661.6171393,-1.1619772647071589e-11,-7.920418068232035e-15,0.0022623816931668372,"[9.97222943e-03 4.92240277e-11 0.00000000e+00 0.00000000e+00
 0.00000000e+00 5.33147952e-08 4.92240277e-11 9.97217762e-03
 0.00000000e+00 0.00000000e+00 0.00000000e+00 5.06605511e-11
 0.00000000e+00 0.00000000e+00 0.00000000e+00 0.00000000e+00
 0.00000000e+00 0.00000000e+00 0.00000000e+00 0.00000000e+00
 0.00000000e+00 0.00000000e+00 0.00000000e+00 0.00000000e+00
 0.00000000e+00 0.00000000e+00 0.00000000e+00 0.00000000e+00
 0.00000000e+00 0.00000000e+00 5.33147952e-08 5.06605511e-11
 0.00000000e+00 0.00000000e+00 0.00000000e+00 9.97326047e-03]","[[9.97222943e-06 4.92240277e-14 5.33147952e-11]
 [4.92240277e-14 9.97217762e-06 5.06605511e-14]
 [5.33147952e-11 5.06605511e-14 9.97326047e-06]]",[ 1.14992677e-11  7.80588126e-15 -2.26240426e-03],0.0,0.0
1786959661.6669292,-1.1975925501057897e-11,-8.261612625089864e-15,0.0022097862485837005,"[9.97193155e-03 5.02297866e-11 0.00000000e+00 0.00000000e+00
 0.00000000e+00 5.37763023e-08 5.02297866e-11 9.97187930e-03
 0.00000000e+00 0.00000000e+00 0.00000000e+00 5.16956625e-11
 0.00000000e+00 0.00000000e+00 0.00000000e+00 0.00000000e+00
 0.00000000e+00 0.00000000e+00 0.00000000e+00 0.00000000e+00
 0.00000000e+00 0.00000000e+00 0.00000000e+00 0.00000000e+00
 0.00000000e+00 0.00000000e+00 0.00000000e+00 0.00000000e+00
 0.00000000e+00 0.00000000e+00 5.37763023e-08 5.16956625e-11
 0.00000000e+00 0.00000000e+00 0.00000000e+00 9.97297152e-03]","[[9.97193155e-06 5.02297866e-14 5.37763023e-11]
 [5.02297866e-14 9.97187930e-06 5.16956625e-14]
 [5.37763023e-11 5.16956625e-14 9.97297152e-06]]",[ 1.18572084e-11  8.14745637e-15 -2.20980829e-03],0.0,0.0
1786959661.7184126,-1.2215261963951287e-11,-8.493074194828167e-15,0.0022205101928300937,"[9.97173299e-03 5.09227542e-11 0.00000000e+00 0.00000000e+00
 0.00000000e+00 5.40974297e-08 5.09227542e-11 9.97168043e-03
 0.00000000e+00 0.00000000e+00 0.00000000e+00 5.24088540e-11
 0.00000000e+00 0.00000000e+00 0.00000000e+00 0.00000000e+00
 0.00000000e+00 0.00000000e+00 0.00000000e+00 0.00000000e+00
 0.00000000e+00 0.00000000e+00 0.00000000e+00 0.00000000e+00
 0.00000000e+00 0.00000000e+00 0.00000000e+00 0.00000000e+00
 0.00000000e+00 0.00000000e+00 5.40974297e-08 5.24088540e-11
 0.00000000e+00 0.00000000e+00 0.00000000e+00 9.97277917e-03]","[[9.97173299e-06 5.09227542e-14 5.40974297e-11]
 [5.09227542e-14 9.97168043e-06 5.24088540e-14]
 [5.40974297e-11 5.24088540e-14 9.97277917e-06]]",[ 1.20952575e-11  8.37678217e-15 -2.22053234e-03],0.0,0.0
1786959661.7659264,-1.2589941019217013e-11,-8.858792061862845e-15,0.0023400787933485216,"[9.97143513e-03 5.19122035e-11 0.00000000e+00 0.00000000e+00
 0.00000000e+00 5.45462551e-08 5.19122035e-11 9.97138213e-03
 0.00000000e+00 0.00000000e+00 0.00000000e+00 5.34271799e-11
 0.00000000e+00 0.00000000e+00 0.00000000e+00 0.00000000e+00
 0.00000000e+00 0.00000000e+00 0.00000000e+00 0.00000000e+00
 0.00000000e+00 0.00000000e+00 0.00000000e+00 0.00000000e+00
 0.00000000e+00 0.00000000e+00 0.00000000e+00 0.00000000e+00
 0.00000000e+00 0.00000000e+00 5.45462551e-08 5.34271799e-11
 0.00000000e+00 0.00000000e+00 0.00000000e+00 9.97248999e-03]","[[9.97153442e-06 5.15758296e-14 5.43961978e-11]
 [5.15758296e-14 9.97148156e-06 5.30809891e-14]
 [5.43961978e-11 5.30809891e-14 9.97258637e-06]]",[ 1.23375681e-11  8.61198528e-15 -2.29752094e-03],0.0,0.0
1786959661.8168857,-1.2853034981438294e-11,-9.11806314470359e-15,0.002425603132701681,"[9.97123657e-03 5.26098114e-11 0.00000000e+00 0.00000000e+00
 0.00000000e+00 5.48489869e-08 5.26098114e-11 9.97118328e-03
 0.00000000e+00 0.00000000e+00 0.00000000e+00 5.41451475e-11
 0.00000000e+00 0.00000000e+00 0.00000000e+00 0.00000000e+00
 0.00000000e+00 0.00000000e+00 0.00000000e+00 0.00000000e+00
 0.00000000e+00 0.00000000e+00 0.00000000e+00 0.00000000e+00
 0.00000000e+00 0.00000000e+00 0.00000000e+00 0.00000000e+00
 0.00000000e+00 0.00000000e+00 5.48489869e-08 5.41451475e-11
 0.00000000e+00 0.00000000e+00 0.00000000e+00 9.97229729e-03]","[[9.97123657e-06 5.26098114e-14 5.48489869e-11]
 [5.26098114e-14 9.97118328e-06 5.41451475e-14]
 [5.48489869e-11 5.41451475e-14 9.97229729e-06]]",[ 1.27201186e-11  8.98681681e-15 -2.42562732e-03],0.0,0.0
1786959661.8665075,-1.3125606182073037e-11,-9.389098778005595e-15,0.0024931838671506945,"[9.97103808e-03 5.34737658e-11 0.00000000e+00 0.00000000e+00
 0.00000000e+00 5.52115897e-08 5.34737658e-11 9.97098444e-03
 0.00000000e+00 0.00000000e+00 0.00000000e+00 5.50343164e-11
 0.00000000e+00 0.00000000e+00 0.00000000e+00 0.00000000e+00
 0.00000000e+00 0.00000000e+00 0.00000000e+00 0.00000000e+00
 0.00000000e+00 0.00000000e+00 0.00000000e+00 0.00000000e+00
 0.00000000e+00 0.00000000e+00 0.00000000e+00 0.00000000e+00
 0.00000000e+00 0.00000000e+00 5.52115897e-08 5.50343164e-11
 0.00000000e+00 0.00000000e+00 0.00000000e+00 9.97210581e-03]","[[9.97103808e-06 5.34737658e-14 5.52115897e-11]
 [5.34737658e-14 9.97098444e-06 5.50343164e-14]
 [5.52115897e-11 5.50343164e-14 9.97210581e-06]]",[ 1.29880817e-11  9.25197899e-15 -2.49320873e-03],0.0,0.0
1786959661.9182022,-1.354521478825161e-11,-9.810493791792154e-15,0.0025402399371148303,"[9.97074023e-03 5.44918540e-11 0.00000000e+00 0.00000000e+00
 0.00000000e+00 5.56271089e-08 5.44918540e-11 9.97068618e-03
 0.00000000e+00 0.00000000e+00 0.00000000e+00 5.60821177e-11
 0.00000000e+00 0.00000000e+00 0.00000000e+00 0.00000000e+00
 0.00000000e+00 0.00000000e+00 0.00000000e+00 0.00000000e+00
 0.00000000e+00 0.00000000e+00 0.00000000e+00 0.00000000e+00
 0.00000000e+00 0.00000000e+00 0.00000000e+00 0.00000000e+00
 0.00000000e+00 0.00000000e+00 5.56271089e-08 5.60821177e-11
 0.00000000e+00 0.00000000e+00 0.00000000e+00 9.97181599e-03]","[[9.97074023e-06 5.44918540e-14 5.56271089e-11]
 [5.44918540e-14 9.97068618e-06 5.60821177e-14]
 [5.56271089e-11 5.60821177e-14 9.97181599e-06]]",[ 1.34040408e-11  9.66812673e-15 -2.54026527e-03],0.0,0.0
1786959661.9660676,-1.3980663378987814e-11,-1.0253326777113305e-14,0.002616094748068232,"[9.97044244e-03 5.56349097e-11 0.00000000e+00 0.00000000e+00
 0.00000000e+00 5.60824136e-08 5.56349097e-11 9.97038795e-03
 0.00000000e+00 0.00000000e+00 0.00000000e+00 5.72585338e-11
 0.00000000e+00 0.00000000e+00 0.00000000e+00 0.00000000e+00
 0.00000000e+00 0.00000000e+00 0.00000000e+00 0.00000000e+00
 0.00000000e+00 0.00000000e+00 0.00000000e+00 0.00000000e+00
 0.00000000e+00 0.00000000e+00 0.00000000e+00 0.00000000e+00
 0.00000000e+00 0.00000000e+00 5.60824136e-08 5.72585338e-11
 0.00000000e+00 0.00000000e+00 0.00000000e+00 9.97152701e-03]","[[9.97044244e-06 5.56349097e-14 5.60824136e-11]
 [5.56349097e-14 9.97038795e-06 5.72585338e-14]
 [5.60824136e-11 5.72585338e-14 9.97152701e-06]]",[ 1.38340829e-11  1.01036323e-14 -2.61612083e-03],0.0,0.0
1786959662.0163555,-1.4274854732698941e-11,-1.0555834154478493e-14,0.002599429072027704,"[9.97024394e-03 5.64549062e-11 0.00000000e+00 0.00000000e+00
 0.00000000e+00 5.64029375e-08 5.64549062e-11 9.97018913e-03
 0.00000000e+00 0.00000000e+00 0.00000000e+00 5.81024623e-11
 0.00000000e+00 0.00000000e+00 0.00000000e+00 0.00000000e+00
 0.00000000e+00 0.00000000e+00 0.00000000e+00 0.00000000e+00
 0.00000000e+00 0.00000000e+00 0.00000000e+00 0.00000000e+00
 0.00000000e+00 0.00000000e+00 0.00000000e+00 0.00000000e+00
 0.00000000e+00 0.00000000e+00 5.64029375e-08 5.81024623e-11
 0.00000000e+00 0.00000000e+00 0.00000000e+00 9.97133470e-03]","[[9.97024394e-06 5.64549062e-14 5.64029375e-11]
 [5.64549062e-14 9.97018913e-06 5.81024623e-14]
 [5.64029375e-11 5.81024623e-14 9.97133470e-06]]",[ 1.41283787e-11  1.04049032e-14 -2.59945499e-03],0.0,0.0
1786959662.0662796,-1.456408754119532e-11,-1.0855614167664804e-14,0.00254220655320081,"[9.97004542e-03 5.71927769e-11 0.00000000e+00 0.00000000e+00
 0.00000000e+00 5.66953571e-08 5.71927769e-11 9.96999033e-03
 0.00000000e+00 0.00000000e+00 0.00000000e+00 5.88618680e-11
 0.00000000e+00 0.00000000e+00 0.00000000e+00 0.00000000e+00
 0.00000000e+00 0.00000000e+00 0.00000000e+00 0.00000000e+00
 0.00000000e+00 0.00000000e+00 0.00000000e+00 0.00000000e+00
 0.00000000e+00 0.00000000e+00 0.00000000e+00 0.00000000e+00
 0.00000000e+00 0.00000000e+00 5.66953571e-08 5.88618680e-11
 0.00000000e+00 0.00000000e+00 0.00000000e+00 9.97114184e-03]","[[9.97004542e-06 5.71927769e-14 5.66953571e-11]
 [5.71927769e-14 9.96999033e-06 5.88618680e-14]
 [5.66953571e-11 5.88618680e-14 9.97114184e-06]]",[ 1.44200986e-11  1.07060804e-14 -2.54223190e-03],0.0,0.0
1786959662.1217873,-1.484572223687283e-11,-1.1152189108291181e-14,0.002418934743734891,"[9.96984757e-03 5.95924148e-11 0.00000000e+00 0.00000000e+00
 0.00000000e+00 5.76776377e-08 5.95924148e-11 9.96979153e-03
 0.00000000e+00 0.00000000e+00 0.00000000e+00 6.13315401e-11
 0.00000000e+00 0.00000000e+00 0.00000000e+00 0.00000000e+00
 0.00000000e+00 0.00000000e+00 0.00000000e+00 0.00000000e+00
 0.00000000e+00 0.00000000e+00 0.00000000e+00 0.00000000e+00
 0.00000000e+00 0.00000000e+00 0.00000000e+00 0.00000000e+00
 0.00000000e+00 0.00000000e+00 5.76776377e-08 6.13315401e-11
 0.00000000e+00 0.00000000e+00 0.00000000e+00 9.97096299e-03]","[[9.96984757e-06 5.95924148e-14 5.76776377e-11]
 [5.95924148e-14 9.96979153e-06 6.13315401e-14]
 [5.76776377e-11 6.13315401e-14 9.97096299e-06]]",[ 1.47063490e-11  1.10039403e-14 -2.41895886e-03],0.0,0.0
1786959662.167582,-1.5259629797715108e-11,-1.159465619737757e-14,0.0023857255724917263,"[9.96954975e-03 6.04501998e-11 0.00000000e+00 0.00000000e+00
 0.00000000e+00 5.80445884e-08 6.04501998e-11 9.96949335e-03
 0.00000000e+00 0.00000000e+00 0.00000000e+00 6.22143594e-11
 0.00000000e+00 0.00000000e+00 0.00000000e+00 0.00000000e+00
 0.00000000e+00 0.00000000e+00 0.00000000e+00 0.00000000e+00
 0.00000000e+00 0.00000000e+00 0.00000000e+00 0.00000000e+00
 0.00000000e+00 0.00000000e+00 0.00000000e+00 0.00000000e+00
 0.00000000e+00 0.00000000e+00 5.80445884e-08 6.22143594e-11
 0.00000000e+00 0.00000000e+00 0.00000000e+00 9.97067226e-03]","[[9.96964901e-06 6.01404368e-14 5.79107854e-11]
 [6.01404368e-14 9.96959274e-06 6.18955561e-14]
 [5.79107854e-11 6.18955561e-14 9.97076894e-06]]",[ 1.49841199e-11  1.12996754e-14 -2.37140953e-03],0.0,0.0
1786959662.2166276,-1.5539218200723166e-11,-1.1896081611204129e-14,0.00239878668621607,"[9.96935131e-03 6.12743766e-11 0.00000000e+00 0.00000000e+00
 0.00000000e+00 5.83976003e-08 6.12743766e-11 9.96929457e-03
 0.00000000e+00 0.00000000e+00 0.00000000e+00 6.30625897e-11
 0.00000000e+00 0.00000000e+00 0.00000000e+00 0.00000000e+00
 0.00000000e+00 0.00000000e+00 0.00000000e+00 0.00000000e+00
 0.00000000e+00 0.00000000e+00 0.00000000e+00 0.00000000e+00
 0.00000000e+00 0.00000000e+00 0.00000000e+00 0.00000000e+00
 0.00000000e+00 0.00000000e+00 5.83976003e-08 6.30625897e-11
 0.00000000e+00 0.00000000e+00 0.00000000e+00 9.97048065e-03]","[[9.96935131e-06 6.12743766e-14 5.83976003e-11]
 [6.12743766e-14 9.96929457e-06 6.30625897e-14]
 [5.83976003e-11 6.30625897e-14 9.97048065e-06]]",[ 1.53992869e-11  1.17449235e-14 -2.39881060e-03],0.0,0.0
1786959662.2665002,-1.5819635659142693e-11,-1.2200334781711236e-14,0.0023936096687888764,"[9.96915282e-03 6.19483335e-11 0.00000000e+00 0.00000000e+00
 0.00000000e+00 5.86856390e-08 6.19483335e-11 9.96909580e-03
 0.00000000e+00 0.00000000e+00 0.00000000e+00 6.37562159e-11
 0.00000000e+00 0.00000000e+00 0.00000000e+00 0.00000000e+00
 0.00000000e+00 0.00000000e+00 0.00000000e+00 0.00000000e+00
 0.00000000e+00 0.00000000e+00 0.00000000e+00 0.00000000e+00
 0.00000000e+00 0.00000000e+00 0.00000000e+00 0.00000000e+00
 0.00000000e+00 0.00000000e+00 5.86856390e-08 6.37562159e-11
 0.00000000e+00 0.00000000e+00 0.00000000e+00 9.97028773e-03]","[[9.96915282e-06 6.19483335e-14 5.86856390e-11]
 [6.19483335e-14 9.96909580e-06 6.37562159e-14]
 [5.86856390e-11 6.37562159e-14 9.97028773e-06]]",[ 1.56793201e-11  1.20478459e-14 -2.39363353e-03],0.0,0.0
1786959662.3164995,-1.626791044147681e-11,-1.2690626633761502e-14,0.0025807108783042487,"[9.96885513e-03 6.30540072e-11 0.00000000e+00 0.00000000e+00
 0.00000000e+00 5.91429935e-08 6.30540072e-11 9.96879766e-03
 0.00000000e+00 0.00000000e+00 0.00000000e+00 6.48941588e-11
 0.00000000e+00 0.00000000e+00 0.00000000e+00 0.00000000e+00
 0.00000000e+00 0.00000000e+00 0.00000000e+00 0.00000000e+00
 0.00000000e+00 0.00000000e+00 0.00000000e+00 0.00000000e+00
 0.00000000e+00 0.00000000e+00 0.00000000e+00 0.00000000e+00
 0.00000000e+00 0.00000000e+00 5.91429935e-08 6.48941588e-11
 0.00000000e+00 0.00000000e+00 0.00000000e+00 9.96999888e-03]","[[9.96885513e-06 6.30540072e-14 5.91429935e-11]
 [6.30540072e-14 9.96879766e-06 6.48941588e-14]
 [5.91429935e-11 6.48941588e-14 9.96999888e-06]]",[ 1.61154386e-11  1.25232767e-14 -2.58073661e-03],0.0,0.0
1786959662.3661559,-1.6734819354175984e-11,-1.3206543278362245e-14,0.00262996867572296,"[9.96855743e-03 6.41667355e-11 0.00000000e+00 0.00000000e+00
 0.00000000e+00 5.95805103e-08 6.41667355e-11 9.96849954e-03
 0.00000000e+00 0.00000000e+00 0.00000000e+00 6.60393625e-11
 0.00000000e+00 0.00000000e+00 0.00000000e+00 0.00000000e+00
 0.00000000e+00 0.00000000e+00 0.00000000e+00 0.00000000e+00
 0.00000000e+00 0.00000000e+00 0.00000000e+00 0.00000000e+00
 0.00000000e+00 0.00000000e+00 0.00000000e+00 0.00000000e+00
 0.00000000e+00 0.00000000e+00 5.95805103e-08 6.60393625e-11
 0.00000000e+00 0.00000000e+00 0.00000000e+00 9.96970965e-03]","[[9.96855743e-06 6.41667355e-14 5.95805103e-11]
 [6.41667355e-14 9.96849954e-06 6.60393625e-14]
 [5.95805103e-11 6.60393625e-14 9.96970965e-06]]",[ 1.65782882e-11  1.30329900e-14 -2.62999490e-03],0.0,0.0
1786959662.4172206,-1.7049234004249565e-11,-1.3557220729098095e-14,0.002630018058920491,"[9.96835902e-03 6.50148014e-11 0.00000000e+00 0.00000000e+00
 0.00000000e+00 5.99110071e-08 6.50148014e-11 9.96830080e-03
 0.00000000e+00 0.00000000e+00 0.00000000e+00 6.69121796e-11
 0.00000000e+00 0.00000000e+00 0.00000000e+00 0.00000000e+00
 0.00000000e+00 0.00000000e+00 0.00000000e+00 0.00000000e+00
 0.00000000e+00 0.00000000e+00 0.00000000e+00 0.00000000e+00
 0.00000000e+00 0.00000000e+00 0.00000000e+00 0.00000000e+00
 0.00000000e+00 0.00000000e+00 5.99110071e-08 6.69121796e-11
 0.00000000e+00 0.00000000e+00 0.00000000e+00 9.96951762e-03]","[[9.96835902e-06 6.50148014e-14 5.99110071e-11]
 [6.50148014e-14 9.96830080e-06 6.69121796e-14]
 [5.99110071e-11 6.69121796e-14 9.96951762e-06]]",[ 1.68918338e-11  1.33813721e-14 -2.63004428e-03],0.0,0.0
1786959662.4672756,-1.7531533487704128e-11,-1.4099641276811705e-14,0.0026998092330967616,"[9.96806135e-03 6.61467712e-11 0.00000000e+00 0.00000000e+00
 0.00000000e+00 6.03485332e-08 6.61467712e-11 9.96800271e-03
 0.00000000e+00 0.00000000e+00 0.00000000e+00 6.80771866e-11
 0.00000000e+00 0.00000000e+00 0.00000000e+00 0.00000000e+00
 0.00000000e+00 0.00000000e+00 0.00000000e+00 0.00000000e+00
 0.00000000e+00 0.00000000e+00 0.00000000e+00 0.00000000e+00
 0.00000000e+00 0.00000000e+00 0.00000000e+00 0.00000000e+00
 0.00000000e+00 0.00000000e+00 6.03485332e-08 6.80771866e-11
 0.00000000e+00 0.00000000e+00 0.00000000e+00 9.96922842e-03]","[[9.96806135e-06 6.61467712e-14 6.03485332e-11]
 [6.61467712e-14 9.96800271e-06 6.80771866e-14]
 [6.03485332e-11 6.80771866e-14 9.96922842e-06]]",[ 1.73687755e-11  1.39159827e-14 -2.69983615e-03],0.0,0.0
1786959662.5170727,-1.7864175816078808e-11,-1.4477180299488873e-14,0.002761883446920965,"[9.96786294e-03 6.69846122e-11 0.00000000e+00 0.00000000e+00
 0.00000000e+00 6.06648469e-08 6.69846122e-11 9.96780399e-03
 0.00000000e+00 0.00000000e+00 0.00000000e+00 6.89394805e-11
 0.00000000e+00 0.00000000e+00 0.00000000e+00 0.00000000e+00
 0.00000000e+00 0.00000000e+00 0.00000000e+00 0.00000000e+00
 0.00000000e+00 0.00000000e+00 0.00000000e+00 0.00000000e+00
 0.00000000e+00 0.00000000e+00 0.00000000e+00 0.00000000e+00
 0.00000000e+00 0.00000000e+00 6.06648469e-08 6.89394805e-11
 0.00000000e+00 0.00000000e+00 0.00000000e+00 9.96903612e-03]","[[9.96786294e-06 6.69846122e-14 6.06648469e-11]
 [6.69846122e-14 9.96780399e-06 6.89394805e-14]
 [6.06648469e-11 6.89394805e-14 9.96903612e-06]]",[ 1.76968013e-11  1.42869180e-14 -2.76191098e-03],0.0,0.0
1786959662.5663698,-1.8193914513671478e-11,-1.4853960559080338e-14,0.00269345530463827,"[9.96766452e-03 6.77818770e-11 0.00000000e+00 0.00000000e+00
 0.00000000e+00 6.09623931e-08 6.77818770e-11 9.96760528e-03
 0.00000000e+00 0.00000000e+00 0.00000000e+00 6.97600142e-11
 0.00000000e+00 0.00000000e+00 0.00000000e+00 0.00000000e+00
 0.00000000e+00 0.00000000e+00 0.00000000e+00 0.00000000e+00
 0.00000000e+00 0.00000000e+00 0.00000000e+00 0.00000000e+00
 0.00000000e+00 0.00000000e+00 0.00000000e+00 0.00000000e+00
 0.00000000e+00 0.00000000e+00 6.09623931e-08 6.97600142e-11
 0.00000000e+00 0.00000000e+00 0.00000000e+00 9.96884346e-03]","[[9.96766452e-06 6.77818770e-14 6.09623931e-11]
 [6.77818770e-14 9.96760528e-06 6.97600142e-14]
 [6.09623931e-11 6.97600142e-14 9.96884346e-06]]",[ 1.80298931e-11  1.46662094e-14 -2.69348216e-03],0.0,0.0
1786959662.6203249,-1.868337187496822e-11,-1.541818880638458e-14,0.0026519826894295666,"[9.96736692e-03 6.89907913e-11 0.00000000e+00 0.00000000e+00
 0.00000000e+00 6.14245250e-08 6.89907913e-11 9.96730723e-03
 0.00000000e+00 0.00000000e+00 0.00000000e+00 7.10042113e-11
 0.00000000e+00 0.00000000e+00 0.00000000e+00 0.00000000e+00
 0.00000000e+00 0.00000000e+00 0.00000000e+00 0.00000000e+00
 0.00000000e+00 0.00000000e+00 0.00000000e+00 0.00000000e+00
 0.00000000e+00 0.00000000e+00 0.00000000e+00 0.00000000e+00
 0.00000000e+00 0.00000000e+00 6.14245250e-08 7.10042113e-11
 0.00000000e+00 0.00000000e+00 0.00000000e+00 9.96855479e-03]","[[9.96736692e-06 6.89907913e-14 6.14245250e-11]
 [6.89907913e-14 9.96730723e-06 7.10042113e-14]
 [6.14245250e-11 7.10042113e-14 9.96855479e-06]]",[ 1.85206581e-11  1.52300368e-14 -2.65200913e-03],0.0,0.0
1786959662.6659899,-1.9167557937887078e-11,-1.5981996114007092e-14,0.002606815047882183,"[9.96706933e-03 7.01863872e-11 0.00000000e+00 0.00000000e+00
 0.00000000e+00 6.18895009e-08 7.01863872e-11 9.96700920e-03
 0.00000000e+00 0.00000000e+00 0.00000000e+00 7.22347012e-11
 0.00000000e+00 0.00000000e+00 0.00000000e+00 0.00000000e+00
 0.00000000e+00 0.00000000e+00 0.00000000e+00 0.00000000e+00
 0.00000000e+00 0.00000000e+00 0.00000000e+00 0.00000000e+00
 0.00000000e+00 0.00000000e+00 0.00000000e+00 0.00000000e+00
 0.00000000e+00 0.00000000e+00 6.18895009e-08 7.22347012e-11
 0.00000000e+00 0.00000000e+00 0.00000000e+00 9.96826620e-03]","[[9.96716857e-06 6.99190083e-14 6.17847799e-11]
 [6.99190083e-14 9.96710854e-06 7.19595188e-14]
 [6.17847799e-11 7.19595188e-14 9.96836342e-06]]",[ 1.88452926e-11  1.56061342e-14 -2.61078012e-03],0.0,0.0
1786959662.7167745,-1.9490487941613327e-11,-1.6361390559696858e-14,0.002597272736204914,"[9.96687099e-03 7.10662692e-11 0.00000000e+00 0.00000000e+00
 0.00000000e+00 6.22356842e-08 7.10662692e-11 9.96681052e-03
 0.00000000e+00 0.00000000e+00 0.00000000e+00 7.31402629e-11
 0.00000000e+00 0.00000000e+00 0.00000000e+00 0.00000000e+00
 0.00000000e+00 0.00000000e+00 0.00000000e+00 0.00000000e+00
 0.00000000e+00 0.00000000e+00 0.00000000e+00 0.00000000e+00
 0.00000000e+00 0.00000000e+00 0.00000000e+00 0.00000000e+00
 0.00000000e+00 0.00000000e+00 6.22356842e-08 7.31402629e-11
 0.00000000e+00 0.00000000e+00 0.00000000e+00 9.96807456e-03]","[[9.96687099e-06 7.10662692e-14 6.22356842e-11]
 [7.10662692e-14 9.96681052e-06 7.31402629e-14]
 [6.22356842e-11 7.31402629e-14 9.96807456e-06]]",[ 1.93290359e-11  1.61715846e-14 -2.59729863e-03],0.0,0.0
1786959662.7666376,-1.998971687105776e-11,-1.6951935393515158e-14,0.002722519202214446,"[9.96657344e-03 7.22457738e-11 0.00000000e+00 0.00000000e+00
 0.00000000e+00 6.26968132e-08 7.22457738e-11 9.96651252e-03
 0.00000000e+00 0.00000000e+00 0.00000000e+00 7.43541918e-11
 0.00000000e+00 0.00000000e+00 0.00000000e+00 0.00000000e+00
 0.00000000e+00 0.00000000e+00 0.00000000e+00 0.00000000e+00
 0.00000000e+00 0.00000000e+00 0.00000000e+00 0.00000000e+00
 0.00000000e+00 0.00000000e+00 0.00000000e+00 0.00000000e+00
 0.00000000e+00 0.00000000e+00 6.26968132e-08 7.43541918e-11
 0.00000000e+00 0.00000000e+00 0.00000000e+00 9.96778592e-03]","[[9.96657344e-06 7.22457738e-14 6.26968132e-11]
 [7.22457738e-14 9.96651252e-06 7.43541918e-14]
 [6.26968132e-11 7.43541918e-14 9.96778592e-06]]",[ 1.98192194e-11  1.67496696e-14 -2.72254634e-03],0.0,0.0
1786959662.8192506,-2.0347354983448e-11,-1.7378347714791715e-14,0.002883365486555434,"[9.96637508e-03 7.30841324e-11 0.00000000e+00 0.00000000e+00
 0.00000000e+00 6.30078490e-08 7.30841324e-11 9.96631386e-03
 0.00000000e+00 0.00000000e+00 0.00000000e+00 7.52170187e-11
 0.00000000e+00 0.00000000e+00 0.00000000e+00 0.00000000e+00
 0.00000000e+00 0.00000000e+00 0.00000000e+00 0.00000000e+00
 0.00000000e+00 0.00000000e+00 0.00000000e+00 0.00000000e+00
 0.00000000e+00 0.00000000e+00 0.00000000e+00 0.00000000e+00
 0.00000000e+00 0.00000000e+00 6.30078490e-08 7.52170187e-11
 0.00000000e+00 0.00000000e+00 0.00000000e+00 9.96759358e-03]","[[9.96637508e-06 7.30841324e-14 6.30078490e-11]
 [7.30841324e-14 9.96631386e-06 7.52170187e-14]
 [6.30078490e-11 7.52170187e-14 9.96759358e-06]]",[ 2.01658795e-11  1.71616384e-14 -2.88339423e-03],0.0,0.0
1786959662.8665283,-2.0720827551136083e-11,-1.7826585639122223e-14,0.0029811792636138534,"[9.96617672e-03 7.39279203e-11 0.00000000e+00 0.00000000e+00
 0.00000000e+00 6.33049913e-08 7.39279203e-11 9.96611521e-03
 0.00000000e+00 0.00000000e+00 0.00000000e+00 7.60854335e-11
 0.00000000e+00 0.00000000e+00 0.00000000e+00 0.00000000e+00
 0.00000000e+00 0.00000000e+00 0.00000000e+00 0.00000000e+00
 0.00000000e+00 0.00000000e+00 0.00000000e+00 0.00000000e+00
 0.00000000e+00 0.00000000e+00 0.00000000e+00 0.00000000e+00
 0.00000000e+00 0.00000000e+00 6.33049913e-08 7.60854335e-11
 0.00000000e+00 0.00000000e+00 0.00000000e+00 9.96740096e-03]","[[9.96617672e-06 7.39279203e-14 6.33049913e-11]
