time,x,y,yaw,cov_prop,K_gain,innovation,v_ekf,omega_ekf
1787209707.9736712,1.494430987115661,1.4018759350037464,1.9128006544511333,"[ 7.04369151e-05  5.19639322e-06  0.00000000e+00  0.00000000e+00
  0.00000000e+00 -5.63974472e-06  5.19639322e-06  5.08459362e-05
  0.00000000e+00  0.00000000e+00  0.00000000e+00 -2.31246591e-06
  0.00000000e+00  0.00000000e+00  0.00000000e+00  0.00000000e+00
  0.00000000e+00  0.00000000e+00  0.00000000e+00  0.00000000e+00
  0.00000000e+00  0.00000000e+00  0.00000000e+00  0.00000000e+00
  0.00000000e+00  0.00000000e+00  0.00000000e+00  0.00000000e+00
  0.00000000e+00  0.00000000e+00 -5.63974472e-06 -2.31246591e-06
  0.00000000e+00  0.00000000e+00  0.00000000e+00  4.42195871e-06]","[[-0.00055158  0.06992815]
 [-0.00126487 -0.00271835]]",[],0.0,0.0
1787209708.0230448,1.494430987115661,1.4018759350037464,1.9128006544511333,"[ 7.04369151e-05  5.19639322e-06  0.00000000e+00  0.00000000e+00
  0.00000000e+00 -5.63974472e-06  5.19639322e-06  5.08459362e-05
  0.00000000e+00  0.00000000e+00  0.00000000e+00 -2.31246591e-06
  0.00000000e+00  0.00000000e+00  0.00000000e+00  0.00000000e+00
  0.00000000e+00  0.00000000e+00  0.00000000e+00  0.00000000e+00
  0.00000000e+00  0.00000000e+00  0.00000000e+00  0.00000000e+00
  0.00000000e+00  0.00000000e+00  0.00000000e+00  0.00000000e+00
  0.00000000e+00  0.00000000e+00 -5.63974472e-06 -2.31246591e-06
  0.00000000e+00  0.00000000e+00  0.00000000e+00  4.42195871e-06]","[[-0.00055158  0.06992815]
 [-0.00126487 -0.00271835]]",[],0.0,0.0
1787209708.0730937,1.494430987115661,1.4018759350037464,1.9128006544511333,"[ 7.04369151e-05  5.19639322e-06  0.00000000e+00  0.00000000e+00
  0.00000000e+00 -5.63974472e-06  5.19639322e-06  5.08459362e-05
  0.00000000e+00  0.00000000e+00  0.00000000e+00 -2.31246591e-06
  0.00000000e+00  0.00000000e+00  0.00000000e+00  0.00000000e+00
  0.00000000e+00  0.00000000e+00  0.00000000e+00  0.00000000e+00
  0.00000000e+00  0.00000000e+00  0.00000000e+00  0.00000000e+00
  0.00000000e+00  0.00000000e+00  0.00000000e+00  0.00000000e+00
  0.00000000e+00  0.00000000e+00 -5.63974472e-06 -2.31246591e-06
  0.00000000e+00  0.00000000e+00  0.00000000e+00  4.42195871e-06]","[[-0.00055158  0.06992815]
 [-0.00126487 -0.00271835]]",[],0.0,0.0
1787209708.1638167,1.494430987115661,1.4018759350037464,1.9128006544511333,"[ 7.04369151e-05  5.19639322e-06  0.00000000e+00  0.00000000e+00
  0.00000000e+00 -5.63974472e-06  5.19639322e-06  5.08459362e-05
  0.00000000e+00  0.00000000e+00  0.00000000e+00 -2.31246591e-06
  0.00000000e+00  0.00000000e+00  0.00000000e+00  0.00000000e+00
  0.00000000e+00  0.00000000e+00  0.00000000e+00  0.00000000e+00
  0.00000000e+00  0.00000000e+00  0.00000000e+00  0.00000000e+00
  0.00000000e+00  0.00000000e+00  0.00000000e+00  0.00000000e+00
  0.00000000e+00  0.00000000e+00 -5.63974472e-06 -2.31246591e-06
  0.00000000e+00  0.00000000e+00  0.00000000e+00  4.42195871e-06]","[[-0.00055158  0.06992815]
 [-0.00126487 -0.00271835]]",[],0.0,0.0
1787209708.1736083,1.494430987115661,1.4018759350037464,1.9128006544511333,"[ 7.04369151e-05  5.19639322e-06  0.00000000e+00  0.00000000e+00
  0.00000000e+00 -5.63974472e-06  5.19639322e-06  5.08459362e-05
  0.00000000e+00  0.00000000e+00  0.00000000e+00 -2.31246591e-06
  0.00000000e+00  0.00000000e+00  0.00000000e+00  0.00000000e+00
  0.00000000e+00  0.00000000e+00  0.00000000e+00  0.00000000e+00
  0.00000000e+00  0.00000000e+00  0.00000000e+00  0.00000000e+00
  0.00000000e+00  0.00000000e+00  0.00000000e+00  0.00000000e+00
  0.00000000e+00  0.00000000e+00 -5.63974472e-06 -2.31246591e-06
  0.00000000e+00  0.00000000e+00  0.00000000e+00  4.42195871e-06]","[[-0.00055158  0.06992815]
 [-0.00126487 -0.00271835]]",[],0.0,0.0
1787209708.2317288,1.494430987115661,1.4018759350037464,1.9128006544511333,"[ 7.04369151e-05  5.19639322e-06  0.00000000e+00  0.00000000e+00
  0.00000000e+00 -5.63974472e-06  5.19639322e-06  5.08459362e-05
  0.00000000e+00  0.00000000e+00  0.00000000e+00 -2.31246591e-06
  0.00000000e+00  0.00000000e+00  0.00000000e+00  0.00000000e+00
  0.00000000e+00  0.00000000e+00  0.00000000e+00  0.00000000e+00
  0.00000000e+00  0.00000000e+00  0.00000000e+00  0.00000000e+00
  0.00000000e+00  0.00000000e+00  0.00000000e+00  0.00000000e+00
  0.00000000e+00  0.00000000e+00 -5.63974472e-06 -2.31246591e-06
  0.00000000e+00  0.00000000e+00  0.00000000e+00  4.42195871e-06]","[[-0.00055158  0.06992815]
 [-0.00126487 -0.00271835]]",[],0.0,0.0
1787209708.285606,1.494430987115661,1.4018759350037464,1.9128006544511333,"[ 7.04369151e-05  5.19639322e-06  0.00000000e+00  0.00000000e+00
  0.00000000e+00 -5.63974472e-06  5.19639322e-06  5.08459362e-05
  0.00000000e+00  0.00000000e+00  0.00000000e+00 -2.31246591e-06
  0.00000000e+00  0.00000000e+00  0.00000000e+00  0.00000000e+00
  0.00000000e+00  0.00000000e+00  0.00000000e+00  0.00000000e+00
  0.00000000e+00  0.00000000e+00  0.00000000e+00  0.00000000e+00
  0.00000000e+00  0.00000000e+00  0.00000000e+00  0.00000000e+00
  0.00000000e+00  0.00000000e+00 -5.63974472e-06 -2.31246591e-06
  0.00000000e+00  0.00000000e+00  0.00000000e+00  4.42195871e-06]","[[-0.00055158  0.06992815]
 [-0.00126487 -0.00271835]]",[],0.0,0.0
1787209708.3346407,1.494430987115661,1.4018759350037464,1.9128006544511333,"[ 7.04369151e-05  5.19639322e-06  0.00000000e+00  0.00000000e+00
  0.00000000e+00 -5.63974472e-06  5.19639322e-06  5.08459362e-05
  0.00000000e+00  0.00000000e+00  0.00000000e+00 -2.31246591e-06
  0.00000000e+00  0.00000000e+00  0.00000000e+00  0.00000000e+00
  0.00000000e+00  0.00000000e+00  0.00000000e+00  0.00000000e+00
  0.00000000e+00  0.00000000e+00  0.00000000e+00  0.00000000e+00
  0.00000000e+00  0.00000000e+00  0.00000000e+00  0.00000000e+00
  0.00000000e+00  0.00000000e+00 -5.63974472e-06 -2.31246591e-06
  0.00000000e+00  0.00000000e+00  0.00000000e+00  4.42195871e-06]","[[-0.00055158  0.06992815]
 [-0.00126487 -0.00271835]]",[],0.0,0.0
1787209708.3735816,1.494430987115661,1.4018759350037464,1.9128006544511333,"[ 7.04369151e-05  5.19639322e-06  0.00000000e+00  0.00000000e+00
  0.00000000e+00 -5.63974472e-06  5.19639322e-06  5.08459362e-05
  0.00000000e+00  0.00000000e+00  0.00000000e+00 -2.31246591e-06
  0.00000000e+00  0.00000000e+00  0.00000000e+00  0.00000000e+00
  0.00000000e+00  0.00000000e+00  0.00000000e+00  0.00000000e+00
  0.00000000e+00  0.00000000e+00  0.00000000e+00  0.00000000e+00
  0.00000000e+00  0.00000000e+00  0.00000000e+00  0.00000000e+00
  0.00000000e+00  0.00000000e+00 -5.63974472e-06 -2.31246591e-06
  0.00000000e+00  0.00000000e+00  0.00000000e+00  4.42195871e-06]","[[-0.00055158  0.06992815]
 [-0.00126487 -0.00271835]]",[],0.0,0.0
1787209708.4263701,1.494430987115661,1.4018759350037464,1.9128006544511333,"[ 7.04369151e-05  5.19639322e-06  0.00000000e+00  0.00000000e+00
  0.00000000e+00 -5.63974472e-06  5.19639322e-06  5.08459362e-05
  0.00000000e+00  0.00000000e+00  0.00000000e+00 -2.31246591e-06
  0.00000000e+00  0.00000000e+00  0.00000000e+00  0.00000000e+00
  0.00000000e+00  0.00000000e+00  0.00000000e+00  0.00000000e+00
  0.00000000e+00  0.00000000e+00  0.00000000e+00  0.00000000e+00
  0.00000000e+00  0.00000000e+00  0.00000000e+00  0.00000000e+00
  0.00000000e+00  0.00000000e+00 -5.63974472e-06 -2.31246591e-06
  0.00000000e+00  0.00000000e+00  0.00000000e+00  4.42195871e-06]","[[-0.00055158  0.06992815]
 [-0.00126487 -0.00271835]]",[],0.0,0.0
1787209708.4734359,1.494430987115661,1.4018759350037464,1.9128006544511333,"[ 7.04369151e-05  5.19639322e-06  0.00000000e+00  0.00000000e+00
  0.00000000e+00 -5.63974472e-06  5.19639322e-06  5.08459362e-05
  0.00000000e+00  0.00000000e+00  0.00000000e+00 -2.31246591e-06
  0.00000000e+00  0.00000000e+00  0.00000000e+00  0.00000000e+00
  0.00000000e+00  0.00000000e+00  0.00000000e+00  0.00000000e+00
  0.00000000e+00  0.00000000e+00  0.00000000e+00  0.00000000e+00
  0.00000000e+00  0.00000000e+00  0.00000000e+00  0.00000000e+00
  0.00000000e+00  0.00000000e+00 -5.63974472e-06 -2.31246591e-06
  0.00000000e+00  0.00000000e+00  0.00000000e+00  4.42195871e-06]","[[-0.00055158  0.06992815]
 [-0.00126487 -0.00271835]]",[],0.0,0.0
1787209708.5230045,1.494430987115661,1.4018759350037464,1.9128006544511333,"[ 7.04369151e-05  5.19639322e-06  0.00000000e+00  0.00000000e+00
  0.00000000e+00 -5.63974472e-06  5.19639322e-06  5.08459362e-05
  0.00000000e+00  0.00000000e+00  0.00000000e+00 -2.31246591e-06
  0.00000000e+00  0.00000000e+00  0.00000000e+00  0.00000000e+00
  0.00000000e+00  0.00000000e+00  0.00000000e+00  0.00000000e+00
  0.00000000e+00  0.00000000e+00  0.00000000e+00  0.00000000e+00
  0.00000000e+00  0.00000000e+00  0.00000000e+00  0.00000000e+00
  0.00000000e+00  0.00000000e+00 -5.63974472e-06 -2.31246591e-06
  0.00000000e+00  0.00000000e+00  0.00000000e+00  4.42195871e-06]","[[-0.00055158  0.06992815]
 [-0.00126487 -0.00271835]]",[],0.0,0.0
1787209708.5730536,1.494430987115661,1.4018759350037464,1.9128006544511333,"[ 7.04369151e-05  5.19639322e-06  0.00000000e+00  0.00000000e+00
  0.00000000e+00 -5.63974472e-06  5.19639322e-06  5.08459362e-05
  0.00000000e+00  0.00000000e+00  0.00000000e+00 -2.31246591e-06
  0.00000000e+00  0.00000000e+00  0.00000000e+00  0.00000000e+00
  0.00000000e+00  0.00000000e+00  0.00000000e+00  0.00000000e+00
  0.00000000e+00  0.00000000e+00  0.00000000e+00  0.00000000e+00
  0.00000000e+00  0.00000000e+00  0.00000000e+00  0.00000000e+00
  0.00000000e+00  0.00000000e+00 -5.63974472e-06 -2.31246591e-06
  0.00000000e+00  0.00000000e+00  0.00000000e+00  4.42195871e-06]","[[-0.00055158  0.06992815]
 [-0.00126487 -0.00271835]]",[],0.0,0.0
1787209708.6666963,1.494430987115661,1.4018759350037464,1.9128006544511333,"[ 7.04369151e-05  5.19639322e-06  0.00000000e+00  0.00000000e+00
  0.00000000e+00 -5.63974472e-06  5.19639322e-06  5.08459362e-05
  0.00000000e+00  0.00000000e+00  0.00000000e+00 -2.31246591e-06
  0.00000000e+00  0.00000000e+00  0.00000000e+00  0.00000000e+00
  0.00000000e+00  0.00000000e+00  0.00000000e+00  0.00000000e+00
  0.00000000e+00  0.00000000e+00  0.00000000e+00  0.00000000e+00
  0.00000000e+00  0.00000000e+00  0.00000000e+00  0.00000000e+00
  0.00000000e+00  0.00000000e+00 -5.63974472e-06 -2.31246591e-06
  0.00000000e+00  0.00000000e+00  0.00000000e+00  4.42195871e-06]","[[-0.00055158  0.06992815]
 [-0.00126487 -0.00271835]]",[],0.0,0.0
1787209708.6727412,1.494430987115661,1.4018759350037464,1.9128006544511333,"[ 7.04369151e-05  5.19639322e-06  0.00000000e+00  0.00000000e+00
  0.00000000e+00 -5.63974472e-06  5.19639322e-06  5.08459362e-05
  0.00000000e+00  0.00000000e+00  0.00000000e+00 -2.31246591e-06
  0.00000000e+00  0.00000000e+00  0.00000000e+00  0.00000000e+00
  0.00000000e+00  0.00000000e+00  0.00000000e+00  0.00000000e+00
  0.00000000e+00  0.00000000e+00  0.00000000e+00  0.00000000e+00
  0.00000000e+00  0.00000000e+00  0.00000000e+00  0.00000000e+00
  0.00000000e+00  0.00000000e+00 -5.63974472e-06 -2.31246591e-06
  0.00000000e+00  0.00000000e+00  0.00000000e+00  4.42195871e-06]","[[-0.00055158  0.06992815]
 [-0.00126487 -0.00271835]]",[],0.0,0.0
1787209708.7250502,1.494430987115661,1.4018759350037464,1.9128006544511333,"[ 7.04369151e-05  5.19639322e-06  0.00000000e+00  0.00000000e+00
  0.00000000e+00 -5.63974472e-06  5.19639322e-06  5.08459362e-05
  0.00000000e+00  0.00000000e+00  0.00000000e+00 -2.31246591e-06
  0.00000000e+00  0.00000000e+00  0.00000000e+00  0.00000000e+00
  0.00000000e+00  0.00000000e+00  0.00000000e+00  0.00000000e+00
  0.00000000e+00  0.00000000e+00  0.00000000e+00  0.00000000e+00
  0.00000000e+00  0.00000000e+00  0.00000000e+00  0.00000000e+00
  0.00000000e+00  0.00000000e+00 -5.63974472e-06 -2.31246591e-06
  0.00000000e+00  0.00000000e+00  0.00000000e+00  4.42195871e-06]","[[-0.00055158  0.06992815]
 [-0.00126487 -0.00271835]]",[],0.0,0.0
1787209708.7727582,1.5555107285393714,1.396241902750752,1.930245134322754,"[ 3.49696291e-05  3.17293921e-06  0.00000000e+00  0.00000000e+00
  0.00000000e+00 -4.07606452e-06  3.17293921e-06  2.67791923e-05
  0.00000000e+00  0.00000000e+00  0.00000000e+00 -1.53164353e-06
  0.00000000e+00  0.00000000e+00  0.00000000e+00  0.00000000e+00
  0.00000000e+00  0.00000000e+00  0.00000000e+00  0.00000000e+00
  0.00000000e+00  0.00000000e+00  0.00000000e+00  0.00000000e+00
  0.00000000e+00  0.00000000e+00  0.00000000e+00  0.00000000e+00
  0.00000000e+00  0.00000000e+00 -4.07606452e-06 -1.53164353e-06
  0.00000000e+00  0.00000000e+00  0.00000000e+00  4.15254549e-06]","[[-0.00022217  0.04437445]
 [-0.0006734   0.00111618]]",[],0.0,0.0
1787209708.8337293,1.5555107285393714,1.396241902750752,1.930245134322754,"[ 3.49696291e-05  3.17293921e-06  0.00000000e+00  0.00000000e+00
  0.00000000e+00 -4.07606452e-06  3.17293921e-06  2.67791923e-05
  0.00000000e+00  0.00000000e+00  0.00000000e+00 -1.53164353e-06
  0.00000000e+00  0.00000000e+00  0.00000000e+00  0.00000000e+00
  0.00000000e+00  0.00000000e+00  0.00000000e+00  0.00000000e+00
  0.00000000e+00  0.00000000e+00  0.00000000e+00  0.00000000e+00
  0.00000000e+00  0.00000000e+00  0.00000000e+00  0.00000000e+00
  0.00000000e+00  0.00000000e+00 -4.07606452e-06 -1.53164353e-06
  0.00000000e+00  0.00000000e+00  0.00000000e+00  4.15254549e-06]","[[-0.00022217  0.04437445]
 [-0.0006734   0.00111618]]",[],0.0,0.0
1787209708.8744993,1.5555107285393714,1.396241902750752,1.930245134322754,"[ 3.49696291e-05  3.17293921e-06  0.00000000e+00  0.00000000e+00
  0.00000000e+00 -4.07606452e-06  3.17293921e-06  2.67791923e-05
  0.00000000e+00  0.00000000e+00  0.00000000e+00 -1.53164353e-06
  0.00000000e+00  0.00000000e+00  0.00000000e+00  0.00000000e+00
  0.00000000e+00  0.00000000e+00  0.00000000e+00  0.00000000e+00
  0.00000000e+00  0.00000000e+00  0.00000000e+00  0.00000000e+00
  0.00000000e+00  0.00000000e+00  0.00000000e+00  0.00000000e+00
  0.00000000e+00  0.00000000e+00 -4.07606452e-06 -1.53164353e-06
  0.00000000e+00  0.00000000e+00  0.00000000e+00  4.15254549e-06]","[[-0.00022217  0.04437445]
 [-0.0006734   0.00111618]]",[],0.0,0.0
1787209708.923677,1.5555107285393714,1.396241902750752,1.930245134322754,"[ 3.49696291e-05  3.17293921e-06  0.00000000e+00  0.00000000e+00
  0.00000000e+00 -4.07606452e-06  3.17293921e-06  2.67791923e-05
  0.00000000e+00  0.00000000e+00  0.00000000e+00 -1.53164353e-06
  0.00000000e+00  0.00000000e+00  0.00000000e+00  0.00000000e+00
  0.00000000e+00  0.00000000e+00  0.00000000e+00  0.00000000e+00
  0.00000000e+00  0.00000000e+00  0.00000000e+00  0.00000000e+00
  0.00000000e+00  0.00000000e+00  0.00000000e+00  0.00000000e+00
  0.00000000e+00  0.00000000e+00 -4.07606452e-06 -1.53164353e-06
  0.00000000e+00  0.00000000e+00  0.00000000e+00  4.15254549e-06]","[[-0.00022217  0.04437445]
 [-0.0006734   0.00111618]]",[],0.0,0.0
1787209708.974091,1.5555107285393714,1.396241902750752,1.930245134322754,"[ 3.49696291e-05  3.17293921e-06  0.00000000e+00  0.00000000e+00
  0.00000000e+00 -4.07606452e-06  3.17293921e-06  2.67791923e-05
  0.00000000e+00  0.00000000e+00  0.00000000e+00 -1.53164353e-06
  0.00000000e+00  0.00000000e+00  0.00000000e+00  0.00000000e+00
  0.00000000e+00  0.00000000e+00  0.00000000e+00  0.00000000e+00
  0.00000000e+00  0.00000000e+00  0.00000000e+00  0.00000000e+00
  0.00000000e+00  0.00000000e+00  0.00000000e+00  0.00000000e+00
  0.00000000e+00  0.00000000e+00 -4.07606452e-06 -1.53164353e-06
  0.00000000e+00  0.00000000e+00  0.00000000e+00  4.15254549e-06]","[[-0.00022217  0.04437445]
 [-0.0006734   0.00111618]]",[],0.0,0.0
1787209709.026198,1.5555107285393714,1.396241902750752,1.930245134322754,"[ 3.49696291e-05  3.17293921e-06  0.00000000e+00  0.00000000e+00
  0.00000000e+00 -4.07606452e-06  3.17293921e-06  2.67791923e-05
  0.00000000e+00  0.00000000e+00  0.00000000e+00 -1.53164353e-06
  0.00000000e+00  0.00000000e+00  0.00000000e+00  0.00000000e+00
  0.00000000e+00  0.00000000e+00  0.00000000e+00  0.00000000e+00
  0.00000000e+00  0.00000000e+00  0.00000000e+00  0.00000000e+00
  0.00000000e+00  0.00000000e+00  0.00000000e+00  0.00000000e+00
  0.00000000e+00  0.00000000e+00 -4.07606452e-06 -1.53164353e-06
  0.00000000e+00  0.00000000e+00  0.00000000e+00  4.15254549e-06]","[[-0.00022217  0.04437445]
 [-0.0006734   0.00111618]]",[],0.0,0.0
1787209709.0839863,1.5555107285393714,1.396241902750752,1.930245134322754,"[ 3.49696291e-05  3.17293921e-06  0.00000000e+00  0.00000000e+00
  0.00000000e+00 -4.07606452e-06  3.17293921e-06  2.67791923e-05
  0.00000000e+00  0.00000000e+00  0.00000000e+00 -1.53164353e-06
  0.00000000e+00  0.00000000e+00  0.00000000e+00  0.00000000e+00
  0.00000000e+00  0.00000000e+00  0.00000000e+00  0.00000000e+00
  0.00000000e+00  0.00000000e+00  0.00000000e+00  0.00000000e+00
  0.00000000e+00  0.00000000e+00  0.00000000e+00  0.00000000e+00
  0.00000000e+00  0.00000000e+00 -4.07606452e-06 -1.53164353e-06
  0.00000000e+00  0.00000000e+00  0.00000000e+00  4.15254549e-06]","[[-0.00022217  0.04437445]
 [-0.0006734   0.00111618]]",[],0.0,0.0
1787209709.1269686,1.5555107285393714,1.396241902750752,1.930245134322754,"[ 3.49696291e-05  3.17293921e-06  0.00000000e+00  0.00000000e+00
  0.00000000e+00 -4.07606452e-06  3.17293921e-06  2.67791923e-05
  0.00000000e+00  0.00000000e+00  0.00000000e+00 -1.53164353e-06
  0.00000000e+00  0.00000000e+00  0.00000000e+00  0.00000000e+00
  0.00000000e+00  0.00000000e+00  0.00000000e+00  0.00000000e+00
  0.00000000e+00  0.00000000e+00  0.00000000e+00  0.00000000e+00
  0.00000000e+00  0.00000000e+00  0.00000000e+00  0.00000000e+00
  0.00000000e+00  0.00000000e+00 -4.07606452e-06 -1.53164353e-06
  0.00000000e+00  0.00000000e+00  0.00000000e+00  4.15254549e-06]","[[-0.00022217  0.04437445]
 [-0.0006734   0.00111618]]",[],0.0,0.0
1787209709.1769977,1.5555107285393714,1.396241902750752,1.930245134322754,"[ 3.49696291e-05  3.17293921e-06  0.00000000e+00  0.00000000e+00
  0.00000000e+00 -4.07606452e-06  3.17293921e-06  2.67791923e-05
  0.00000000e+00  0.00000000e+00  0.00000000e+00 -1.53164353e-06
  0.00000000e+00  0.00000000e+00  0.00000000e+00  0.00000000e+00
  0.00000000e+00  0.00000000e+00  0.00000000e+00  0.00000000e+00
  0.00000000e+00  0.00000000e+00  0.00000000e+00  0.00000000e+00
  0.00000000e+00  0.00000000e+00  0.00000000e+00  0.00000000e+00
  0.00000000e+00  0.00000000e+00 -4.07606452e-06 -1.53164353e-06
  0.00000000e+00  0.00000000e+00  0.00000000e+00  4.15254549e-06]","[[-0.00022217  0.04437445]
 [-0.0006734   0.00111618]]",[],0.0,0.0
1787209709.222944,1.5555107285393714,1.396241902750752,1.930245134322754,"[ 3.49696291e-05  3.17293921e-06  0.00000000e+00  0.00000000e+00
  0.00000000e+00 -4.07606452e-06  3.17293921e-06  2.67791923e-05
  0.00000000e+00  0.00000000e+00  0.00000000e+00 -1.53164353e-06
  0.00000000e+00  0.00000000e+00  0.00000000e+00  0.00000000e+00
  0.00000000e+00  0.00000000e+00  0.00000000e+00  0.00000000e+00
  0.00000000e+00  0.00000000e+00  0.00000000e+00  0.00000000e+00
  0.00000000e+00  0.00000000e+00  0.00000000e+00  0.00000000e+00
  0.00000000e+00  0.00000000e+00 -4.07606452e-06 -1.53164353e-06
  0.00000000e+00  0.00000000e+00  0.00000000e+00  4.15254549e-06]","[[-0.00022217  0.04437445]
 [-0.0006734   0.00111618]]",[],0.0,0.0
1787209709.2738032,1.5555107285393714,1.396241902750752,1.930245134322754,"[ 3.49696291e-05  3.17293921e-06  0.00000000e+00  0.00000000e+00
  0.00000000e+00 -4.07606452e-06  3.17293921e-06  2.67791923e-05
  0.00000000e+00  0.00000000e+00  0.00000000e+00 -1.53164353e-06
  0.00000000e+00  0.00000000e+00  0.00000000e+00  0.00000000e+00
  0.00000000e+00  0.00000000e+00  0.00000000e+00  0.00000000e+00
  0.00000000e+00  0.00000000e+00  0.00000000e+00  0.00000000e+00
  0.00000000e+00  0.00000000e+00  0.00000000e+00  0.00000000e+00
  0.00000000e+00  0.00000000e+00 -4.07606452e-06 -1.53164353e-06
  0.00000000e+00  0.00000000e+00  0.00000000e+00  4.15254549e-06]","[[-0.00022217  0.04437445]
 [-0.0006734   0.00111618]]",[],0.0,0.0
1787209709.326093,1.5555107285393714,1.396241902750752,1.930245134322754,"[ 3.49696291e-05  3.17293921e-06  0.00000000e+00  0.00000000e+00
  0.00000000e+00 -4.07606452e-06  3.17293921e-06  2.67791923e-05
  0.00000000e+00  0.00000000e+00  0.00000000e+00 -1.53164353e-06
  0.00000000e+00  0.00000000e+00  0.00000000e+00  0.00000000e+00
  0.00000000e+00  0.00000000e+00  0.00000000e+00  0.00000000e+00
  0.00000000e+00  0.00000000e+00  0.00000000e+00  0.00000000e+00
  0.00000000e+00  0.00000000e+00  0.00000000e+00  0.00000000e+00
  0.00000000e+00  0.00000000e+00 -4.07606452e-06 -1.53164353e-06
  0.00000000e+00  0.00000000e+00  0.00000000e+00  4.15254549e-06]","[[-0.00022217  0.04437445]
 [-0.0006734   0.00111618]]",[],0.0,0.0
1787209709.3745065,1.5555107285393714,1.396241902750752,1.930245134322754,"[ 3.49696291e-05  3.17293921e-06  0.00000000e+00  0.00000000e+00
  0.00000000e+00 -4.07606452e-06  3.17293921e-06  2.67791923e-05
  0.00000000e+00  0.00000000e+00  0.00000000e+00 -1.53164353e-06
  0.00000000e+00  0.00000000e+00  0.00000000e+00  0.00000000e+00
  0.00000000e+00  0.00000000e+00  0.00000000e+00  0.00000000e+00
  0.00000000e+00  0.00000000e+00  0.00000000e+00  0.00000000e+00
  0.00000000e+00  0.00000000e+00  0.00000000e+00  0.00000000e+00
  0.00000000e+00  0.00000000e+00 -4.07606452e-06 -1.53164353e-06
  0.00000000e+00  0.00000000e+00  0.00000000e+00  4.15254549e-06]","[[-0.00022217  0.04437445]
 [-0.0006734   0.00111618]]",[],0.0,0.0
1787209709.4324439,1.5555107285393714,1.396241902750752,1.930245134322754,"[ 3.49696291e-05  3.17293921e-06  0.00000000e+00  0.00000000e+00
  0.00000000e+00 -4.07606452e-06  3.17293921e-06  2.67791923e-05
  0.00000000e+00  0.00000000e+00  0.00000000e+00 -1.53164353e-06
  0.00000000e+00  0.00000000e+00  0.00000000e+00  0.00000000e+00
  0.00000000e+00  0.00000000e+00  0.00000000e+00  0.00000000e+00
  0.00000000e+00  0.00000000e+00  0.00000000e+00  0.00000000e+00
  0.00000000e+00  0.00000000e+00  0.00000000e+00  0.00000000e+00
  0.00000000e+00  0.00000000e+00 -4.07606452e-06 -1.53164353e-06
  0.00000000e+00  0.00000000e+00  0.00000000e+00  4.15254549e-06]","[[-0.00022217  0.04437445]
 [-0.0006734   0.00111618]]",[],0.0,0.0
1787209709.5049222,1.5555107285393714,1.396241902750752,1.930245134322754,"[ 3.49696291e-05  3.17293921e-06  0.00000000e+00  0.00000000e+00
  0.00000000e+00 -4.07606452e-06  3.17293921e-06  2.67791923e-05
  0.00000000e+00  0.00000000e+00  0.00000000e+00 -1.53164353e-06
  0.00000000e+00  0.00000000e+00  0.00000000e+00  0.00000000e+00
  0.00000000e+00  0.00000000e+00  0.00000000e+00  0.00000000e+00
  0.00000000e+00  0.00000000e+00  0.00000000e+00  0.00000000e+00
  0.00000000e+00  0.00000000e+00  0.00000000e+00  0.00000000e+00
  0.00000000e+00  0.00000000e+00 -4.07606452e-06 -1.53164353e-06
  0.00000000e+00  0.00000000e+00  0.00000000e+00  4.15254549e-06]","[[-0.00022217  0.04437445]
 [-0.0006734   0.00111618]]",[],0.0,0.0
1787209709.5306952,1.5555107285393714,1.396241902750752,1.930245134322754,"[ 3.49696291e-05  3.17293921e-06  0.00000000e+00  0.00000000e+00
  0.00000000e+00 -4.07606452e-06  3.17293921e-06  2.67791923e-05
  0.00000000e+00  0.00000000e+00  0.00000000e+00 -1.53164353e-06
  0.00000000e+00  0.00000000e+00  0.00000000e+00  0.00000000e+00
  0.00000000e+00  0.00000000e+00  0.00000000e+00  0.00000000e+00
  0.00000000e+00  0.00000000e+00  0.00000000e+00  0.00000000e+00
  0.00000000e+00  0.00000000e+00  0.00000000e+00  0.00000000e+00
  0.00000000e+00  0.00000000e+00 -4.07606452e-06 -1.53164353e-06
  0.00000000e+00  0.00000000e+00  0.00000000e+00  4.15254549e-06]","[[-0.00022217  0.04437445]
 [-0.0006734   0.00111618]]",[],0.0,0.0
1787209709.593185,1.5555107285393714,1.396241902750752,1.930245134322754,"[ 3.49696291e-05  3.17293921e-06  0.00000000e+00  0.00000000e+00
  0.00000000e+00 -4.07606452e-06  3.17293921e-06  2.67791923e-05
  0.00000000e+00  0.00000000e+00  0.00000000e+00 -1.53164353e-06
  0.00000000e+00  0.00000000e+00  0.00000000e+00  0.00000000e+00
  0.00000000e+00  0.00000000e+00  0.00000000e+00  0.00000000e+00
  0.00000000e+00  0.00000000e+00  0.00000000e+00  0.00000000e+00
  0.00000000e+00  0.00000000e+00  0.00000000e+00  0.00000000e+00
  0.00000000e+00  0.00000000e+00 -4.07606452e-06 -1.53164353e-06
  0.00000000e+00  0.00000000e+00  0.00000000e+00  4.15254549e-06]","[[-0.00022217  0.04437445]
 [-0.0006734   0.00111618]]",[],0.0,0.0
1787209709.6289134,1.5555107285393714,1.396241902750752,1.930245134322754,"[ 3.49696291e-05  3.17293921e-06  0.00000000e+00  0.00000000e+00
  0.00000000e+00 -4.07606452e-06  3.17293921e-06  2.67791923e-05
  0.00000000e+00  0.00000000e+00  0.00000000e+00 -1.53164353e-06
  0.00000000e+00  0.00000000e+00  0.00000000e+00  0.00000000e+00
  0.00000000e+00  0.00000000e+00  0.00000000e+00  0.00000000e+00
  0.00000000e+00  0.00000000e+00  0.00000000e+00  0.00000000e+00
  0.00000000e+00  0.00000000e+00  0.00000000e+00  0.00000000e+00
  0.00000000e+00  0.00000000e+00 -4.07606452e-06 -1.53164353e-06
  0.00000000e+00  0.00000000e+00  0.00000000e+00  4.15254549e-06]","[[-0.00022217  0.04437445]
 [-0.0006734   0.00111618]]",[],0.0,0.0
1787209709.6728845,1.5555107285393714,1.396241902750752,1.930245134322754,"[ 3.49696291e-05  3.17293921e-06  0.00000000e+00  0.00000000e+00
  0.00000000e+00 -4.07606452e-06  3.17293921e-06  2.67791923e-05
  0.00000000e+00  0.00000000e+00  0.00000000e+00 -1.53164353e-06
  0.00000000e+00  0.00000000e+00  0.00000000e+00  0.00000000e+00
  0.00000000e+00  0.00000000e+00  0.00000000e+00  0.00000000e+00
  0.00000000e+00  0.00000000e+00  0.00000000e+00  0.00000000e+00
  0.00000000e+00  0.00000000e+00  0.00000000e+00  0.00000000e+00
  0.00000000e+00  0.00000000e+00 -4.07606452e-06 -1.53164353e-06
  0.00000000e+00  0.00000000e+00  0.00000000e+00  4.15254549e-06]","[[-0.00022217  0.04437445]
 [-0.0006734   0.00111618]]",[],0.0,0.0
1787209709.7339768,1.5762848802763485,1.379066524788973,1.9530454877381942,"[ 2.40252259e-05  2.32847559e-06  0.00000000e+00  0.00000000e+00
  0.00000000e+00 -2.41773032e-06  2.32847559e-06  1.82829363e-05
  0.00000000e+00  0.00000000e+00  0.00000000e+00 -9.13505750e-07
  0.00000000e+00  0.00000000e+00  0.00000000e+00  0.00000000e+00
  0.00000000e+00  0.00000000e+00  0.00000000e+00  0.00000000e+00
  0.00000000e+00  0.00000000e+00  0.00000000e+00  0.00000000e+00
  0.00000000e+00  0.00000000e+00  0.00000000e+00  0.00000000e+00
  0.00000000e+00  0.00000000e+00 -2.41773032e-06 -9.13505750e-07
  0.00000000e+00  0.00000000e+00  0.00000000e+00  4.03996401e-06]","[[-0.00013224  0.03014604]
 [-0.00046076  0.00155921]]",[],0.0,0.0
1787209709.7738204,1.5762848802763485,1.379066524788973,1.9530454877381942,"[ 2.40252259e-05  2.32847559e-06  0.00000000e+00  0.00000000e+00
  0.00000000e+00 -2.41773032e-06  2.32847559e-06  1.82829363e-05
  0.00000000e+00  0.00000000e+00  0.00000000e+00 -9.13505750e-07
  0.00000000e+00  0.00000000e+00  0.00000000e+00  0.00000000e+00
  0.00000000e+00  0.00000000e+00  0.00000000e+00  0.00000000e+00
  0.00000000e+00  0.00000000e+00  0.00000000e+00  0.00000000e+00
  0.00000000e+00  0.00000000e+00  0.00000000e+00  0.00000000e+00
  0.00000000e+00  0.00000000e+00 -2.41773032e-06 -9.13505750e-07
  0.00000000e+00  0.00000000e+00  0.00000000e+00  4.03996401e-06]","[[-0.00013224  0.03014604]
 [-0.00046076  0.00155921]]",[],0.0,0.0
1787209709.8425436,1.5762848802763485,1.379066524788973,1.9530454877381942,"[ 2.40252259e-05  2.32847559e-06  0.00000000e+00  0.00000000e+00
  0.00000000e+00 -2.41773032e-06  2.32847559e-06  1.82829363e-05
  0.00000000e+00  0.00000000e+00  0.00000000e+00 -9.13505750e-07
  0.00000000e+00  0.00000000e+00  0.00000000e+00  0.00000000e+00
  0.00000000e+00  0.00000000e+00  0.00000000e+00  0.00000000e+00
  0.00000000e+00  0.00000000e+00  0.00000000e+00  0.00000000e+00
  0.00000000e+00  0.00000000e+00  0.00000000e+00  0.00000000e+00
  0.00000000e+00  0.00000000e+00 -2.41773032e-06 -9.13505750e-07
  0.00000000e+00  0.00000000e+00  0.00000000e+00  4.03996401e-06]","[[-0.00013224  0.03014604]
 [-0.00046076  0.00155921]]",[],0.0,0.0
1787209709.893156,1.5762848802763485,1.379066524788973,1.9530454877381942,"[ 2.40252259e-05  2.32847559e-06  0.00000000e+00  0.00000000e+00
  0.00000000e+00 -2.41773032e-06  2.32847559e-06  1.82829363e-05
  0.00000000e+00  0.00000000e+00  0.00000000e+00 -9.13505750e-07
  0.00000000e+00  0.00000000e+00  0.00000000e+00  0.00000000e+00
  0.00000000e+00  0.00000000e+00  0.00000000e+00  0.00000000e+00
  0.00000000e+00  0.00000000e+00  0.00000000e+00  0.00000000e+00
  0.00000000e+00  0.00000000e+00  0.00000000e+00  0.00000000e+00
  0.00000000e+00  0.00000000e+00 -2.41773032e-06 -9.13505750e-07
  0.00000000e+00  0.00000000e+00  0.00000000e+00  4.03996401e-06]","[[-0.00013224  0.03014604]
 [-0.00046076  0.00155921]]",[],0.0,0.0
1787209709.9239137,1.5762848802763485,1.379066524788973,1.9530454877381942,"[ 2.40252259e-05  2.32847559e-06  0.00000000e+00  0.00000000e+00
  0.00000000e+00 -2.41773032e-06  2.32847559e-06  1.82829363e-05
  0.00000000e+00  0.00000000e+00  0.00000000e+00 -9.13505750e-07
  0.00000000e+00  0.00000000e+00  0.00000000e+00  0.00000000e+00
  0.00000000e+00  0.00000000e+00  0.00000000e+00  0.00000000e+00
  0.00000000e+00  0.00000000e+00  0.00000000e+00  0.00000000e+00
  0.00000000e+00  0.00000000e+00  0.00000000e+00  0.00000000e+00
  0.00000000e+00  0.00000000e+00 -2.41773032e-06 -9.13505750e-07
  0.00000000e+00  0.00000000e+00  0.00000000e+00  4.03996401e-06]","[[-0.00013224  0.03014604]
 [-0.00046076  0.00155921]]",[],0.0,0.0
1787209709.9975376,1.5762848802763485,1.379066524788973,1.9530454877381942,"[ 2.40252259e-05  2.32847559e-06  0.00000000e+00  0.00000000e+00
  0.00000000e+00 -2.41773032e-06  2.32847559e-06  1.82829363e-05
  0.00000000e+00  0.00000000e+00  0.00000000e+00 -9.13505750e-07
  0.00000000e+00  0.00000000e+00  0.00000000e+00  0.00000000e+00
  0.00000000e+00  0.00000000e+00  0.00000000e+00  0.00000000e+00
  0.00000000e+00  0.00000000e+00  0.00000000e+00  0.00000000e+00
  0.00000000e+00  0.00000000e+00  0.00000000e+00  0.00000000e+00
  0.00000000e+00  0.00000000e+00 -2.41773032e-06 -9.13505750e-07
  0.00000000e+00  0.00000000e+00  0.00000000e+00  4.03996401e-06]","[[-0.00013224  0.03014604]
 [-0.00046076  0.00155921]]",[],0.0,0.0
1787209710.0231445,1.5762848802763485,1.379066524788973,1.9530454877381942,"[ 2.40252259e-05  2.32847559e-06  0.00000000e+00  0.00000000e+00
  0.00000000e+00 -2.41773032e-06  2.32847559e-06  1.82829363e-05
  0.00000000e+00  0.00000000e+00  0.00000000e+00 -9.13505750e-07
  0.00000000e+00  0.00000000e+00  0.00000000e+00  0.00000000e+00
  0.00000000e+00  0.00000000e+00  0.00000000e+00  0.00000000e+00
  0.00000000e+00  0.00000000e+00  0.00000000e+00  0.00000000e+00
  0.00000000e+00  0.00000000e+00  0.00000000e+00  0.00000000e+00
  0.00000000e+00  0.00000000e+00 -2.41773032e-06 -9.13505750e-07
  0.00000000e+00  0.00000000e+00  0.00000000e+00  4.03996401e-06]","[[-0.00013224  0.03014604]
 [-0.00046076  0.00155921]]",[],0.0,0.0
1787209710.1104007,1.5762848802763485,1.379066524788973,1.9530454877381942,"[ 2.40252259e-05  2.32847559e-06  0.00000000e+00  0.00000000e+00
  0.00000000e+00 -2.41773032e-06  2.32847559e-06  1.82829363e-05
  0.00000000e+00  0.00000000e+00  0.00000000e+00 -9.13505750e-07
  0.00000000e+00  0.00000000e+00  0.00000000e+00  0.00000000e+00
  0.00000000e+00  0.00000000e+00  0.00000000e+00  0.00000000e+00
  0.00000000e+00  0.00000000e+00  0.00000000e+00  0.00000000e+00
  0.00000000e+00  0.00000000e+00  0.00000000e+00  0.00000000e+00
  0.00000000e+00  0.00000000e+00 -2.41773032e-06 -9.13505750e-07
  0.00000000e+00  0.00000000e+00  0.00000000e+00  4.03996401e-06]","[[-0.00013224  0.03014604]
 [-0.00046076  0.00155921]]",[],0.0,0.0
1787209710.125833,1.5762848802763485,1.379066524788973,1.9530454877381942,"[ 2.40252259e-05  2.32847559e-06  0.00000000e+00  0.00000000e+00
  0.00000000e+00 -2.41773032e-06  2.32847559e-06  1.82829363e-05
  0.00000000e+00  0.00000000e+00  0.00000000e+00 -9.13505750e-07
  0.00000000e+00  0.00000000e+00  0.00000000e+00  0.00000000e+00
  0.00000000e+00  0.00000000e+00  0.00000000e+00  0.00000000e+00
  0.00000000e+00  0.00000000e+00  0.00000000e+00  0.00000000e+00
  0.00000000e+00  0.00000000e+00  0.00000000e+00  0.00000000e+00
  0.00000000e+00  0.00000000e+00 -2.41773032e-06 -9.13505750e-07
  0.00000000e+00  0.00000000e+00  0.00000000e+00  4.03996401e-06]","[[-0.00013224  0.03014604]
 [-0.00046076  0.00155921]]",[],0.0,0.0
1787209710.1731713,1.5762848802763485,1.379066524788973,1.9530454877381942,"[ 2.40252259e-05  2.32847559e-06  0.00000000e+00  0.00000000e+00
  0.00000000e+00 -2.41773032e-06  2.32847559e-06  1.82829363e-05
  0.00000000e+00  0.00000000e+00  0.00000000e+00 -9.13505750e-07
  0.00000000e+00  0.00000000e+00  0.00000000e+00  0.00000000e+00
  0.00000000e+00  0.00000000e+00  0.00000000e+00  0.00000000e+00
  0.00000000e+00  0.00000000e+00  0.00000000e+00  0.00000000e+00
  0.00000000e+00  0.00000000e+00  0.00000000e+00  0.00000000e+00
  0.00000000e+00  0.00000000e+00 -2.41773032e-06 -9.13505750e-07
  0.00000000e+00  0.00000000e+00  0.00000000e+00  4.03996401e-06]","[[-0.00013224  0.03014604]
 [-0.00046076  0.00155921]]",[],0.0,0.0
1787209710.2256768,1.5762848802763485,1.379066524788973,1.9530454877381942,"[ 2.40252259e-05  2.32847559e-06  0.00000000e+00  0.00000000e+00
  0.00000000e+00 -2.41773032e-06  2.32847559e-06  1.82829363e-05
  0.00000000e+00  0.00000000e+00  0.00000000e+00 -9.13505750e-07
  0.00000000e+00  0.00000000e+00  0.00000000e+00  0.00000000e+00
  0.00000000e+00  0.00000000e+00  0.00000000e+00  0.00000000e+00
  0.00000000e+00  0.00000000e+00  0.00000000e+00  0.00000000e+00
  0.00000000e+00  0.00000000e+00  0.00000000e+00  0.00000000e+00
  0.00000000e+00  0.00000000e+00 -2.41773032e-06 -9.13505750e-07
  0.00000000e+00  0.00000000e+00  0.00000000e+00  4.03996401e-06]","[[-0.00013224  0.03014604]
 [-0.00046076  0.00155921]]",[],0.0,0.0
1787209710.2782357,1.5762848802763485,1.379066524788973,1.9530454877381942,"[ 2.40252259e-05  2.32847559e-06  0.00000000e+00  0.00000000e+00
  0.00000000e+00 -2.41773032e-06  2.32847559e-06  1.82829363e-05
  0.00000000e+00  0.00000000e+00  0.00000000e+00 -9.13505750e-07
  0.00000000e+00  0.00000000e+00  0.00000000e+00  0.00000000e+00
  0.00000000e+00  0.00000000e+00  0.00000000e+00  0.00000000e+00
  0.00000000e+00  0.00000000e+00  0.00000000e+00  0.00000000e+00
  0.00000000e+00  0.00000000e+00  0.00000000e+00  0.00000000e+00
  0.00000000e+00  0.00000000e+00 -2.41773032e-06 -9.13505750e-07
  0.00000000e+00  0.00000000e+00  0.00000000e+00  4.03996401e-06]","[[-0.00013224  0.03014604]
 [-0.00046076  0.00155921]]",[],0.0,0.0
1787209710.3229787,1.5762848802763485,1.379066524788973,1.9530454877381942,"[ 2.40252259e-05  2.32847559e-06  0.00000000e+00  0.00000000e+00
  0.00000000e+00 -2.41773032e-06  2.32847559e-06  1.82829363e-05
  0.00000000e+00  0.00000000e+00  0.00000000e+00 -9.13505750e-07
  0.00000000e+00  0.00000000e+00  0.00000000e+00  0.00000000e+00
  0.00000000e+00  0.00000000e+00  0.00000000e+00  0.00000000e+00
  0.00000000e+00  0.00000000e+00  0.00000000e+00  0.00000000e+00
  0.00000000e+00  0.00000000e+00  0.00000000e+00  0.00000000e+00
  0.00000000e+00  0.00000000e+00 -2.41773032e-06 -9.13505750e-07
  0.00000000e+00  0.00000000e+00  0.00000000e+00  4.03996401e-06]","[[-0.00013224  0.03014604]
 [-0.00046076  0.00155921]]",[],0.0,0.0
1787209710.381268,1.5762848802763485,1.379066524788973,1.9530454877381942,"[ 2.40252259e-05  2.32847559e-06  0.00000000e+00  0.00000000e+00
  0.00000000e+00 -2.41773032e-06  2.32847559e-06  1.82829363e-05
  0.00000000e+00  0.00000000e+00  0.00000000e+00 -9.13505750e-07
  0.00000000e+00  0.00000000e+00  0.00000000e+00  0.00000000e+00
  0.00000000e+00  0.00000000e+00  0.00000000e+00  0.00000000e+00
  0.00000000e+00  0.00000000e+00  0.00000000e+00  0.00000000e+00
  0.00000000e+00  0.00000000e+00  0.00000000e+00  0.00000000e+00
  0.00000000e+00  0.00000000e+00 -2.41773032e-06 -9.13505750e-07
  0.00000000e+00  0.00000000e+00  0.00000000e+00  4.03996401e-06]","[[-0.00013224  0.03014604]
 [-0.00046076  0.00155921]]",[],0.0,0.0
1787209710.427082,1.5762848802763485,1.379066524788973,1.9530454877381942,"[ 2.40252259e-05  2.32847559e-06  0.00000000e+00  0.00000000e+00
  0.00000000e+00 -2.41773032e-06  2.32847559e-06  1.82829363e-05
  0.00000000e+00  0.00000000e+00  0.00000000e+00 -9.13505750e-07
  0.00000000e+00  0.00000000e+00  0.00000000e+00  0.00000000e+00
  0.00000000e+00  0.00000000e+00  0.00000000e+00  0.00000000e+00
  0.00000000e+00  0.00000000e+00  0.00000000e+00  0.00000000e+00
  0.00000000e+00  0.00000000e+00  0.00000000e+00  0.00000000e+00
  0.00000000e+00  0.00000000e+00 -2.41773032e-06 -9.13505750e-07
  0.00000000e+00  0.00000000e+00  0.00000000e+00  4.03996401e-06]","[[-0.00013224  0.03014604]
 [-0.00046076  0.00155921]]",[],0.0,0.0
1787209710.4748561,1.5762848802763485,1.379066524788973,1.9530454877381942,"[ 2.40252259e-05  2.32847559e-06  0.00000000e+00  0.00000000e+00
  0.00000000e+00 -2.41773032e-06  2.32847559e-06  1.82829363e-05
  0.00000000e+00  0.00000000e+00  0.00000000e+00 -9.13505750e-07
  0.00000000e+00  0.00000000e+00  0.00000000e+00  0.00000000e+00
  0.00000000e+00  0.00000000e+00  0.00000000e+00  0.00000000e+00
  0.00000000e+00  0.00000000e+00  0.00000000e+00  0.00000000e+00
  0.00000000e+00  0.00000000e+00  0.00000000e+00  0.00000000e+00
  0.00000000e+00  0.00000000e+00 -2.41773032e-06 -9.13505750e-07
  0.00000000e+00  0.00000000e+00  0.00000000e+00  4.03996401e-06]","[[-0.00013224  0.03014604]
 [-0.00046076  0.00155921]]",[],0.0,0.0
1787209710.5386639,1.5762848802763485,1.379066524788973,1.9530454877381942,"[ 2.40252259e-05  2.32847559e-06  0.00000000e+00  0.00000000e+00
  0.00000000e+00 -2.41773032e-06  2.32847559e-06  1.82829363e-05
  0.00000000e+00  0.00000000e+00  0.00000000e+00 -9.13505750e-07
  0.00000000e+00  0.00000000e+00  0.00000000e+00  0.00000000e+00
  0.00000000e+00  0.00000000e+00  0.00000000e+00  0.00000000e+00
  0.00000000e+00  0.00000000e+00  0.00000000e+00  0.00000000e+00
  0.00000000e+00  0.00000000e+00  0.00000000e+00  0.00000000e+00
  0.00000000e+00  0.00000000e+00 -2.41773032e-06 -9.13505750e-07
  0.00000000e+00  0.00000000e+00  0.00000000e+00  4.03996401e-06]","[[-0.00013224  0.03014604]
 [-0.00046076  0.00155921]]",[],0.0,0.0
1787209710.5727527,1.5761285825834233,1.360877246589842,1.9971294885086375,"[ 1.78858197e-05  1.72206216e-06  0.00000000e+00  0.00000000e+00
  0.00000000e+00 -1.92553678e-06  1.72206216e-06  1.37128577e-05
  0.00000000e+00  0.00000000e+00  0.00000000e+00 -7.28260485e-07
  0.00000000e+00  0.00000000e+00  0.00000000e+00  0.00000000e+00
  0.00000000e+00  0.00000000e+00  0.00000000e+00  0.00000000e+00
  0.00000000e+00  0.00000000e+00  0.00000000e+00  0.00000000e+00
  0.00000000e+00  0.00000000e+00  0.00000000e+00  0.00000000e+00
  0.00000000e+00  0.00000000e+00 -1.92553678e-06 -7.28260485e-07
  0.00000000e+00  0.00000000e+00  0.00000000e+00  3.79974648e-06]","[[-9.15253302e-05  2.25255198e-02]
 [-3.45471340e-04  1.44351471e-03]]",[],0.0,0.0
1787209710.6536994,1.5761285825834233,1.360877246589842,1.9971294885086375,"[ 1.78858197e-05  1.72206216e-06  0.00000000e+00  0.00000000e+00
  0.00000000e+00 -1.92553678e-06  1.72206216e-06  1.37128577e-05
  0.00000000e+00  0.00000000e+00  0.00000000e+00 -7.28260485e-07
  0.00000000e+00  0.00000000e+00  0.00000000e+00  0.00000000e+00
  0.00000000e+00  0.00000000e+00  0.00000000e+00  0.00000000e+00
  0.00000000e+00  0.00000000e+00  0.00000000e+00  0.00000000e+00
  0.00000000e+00  0.00000000e+00  0.00000000e+00  0.00000000e+00
  0.00000000e+00  0.00000000e+00 -1.92553678e-06 -7.28260485e-07
  0.00000000e+00  0.00000000e+00  0.00000000e+00  3.79974648e-06]","[[-9.15253302e-05  2.25255198e-02]
 [-3.45471340e-04  1.44351471e-03]]",[],0.0,0.0
1787209710.702257,1.5761285825834233,1.360877246589842,1.9971294885086375,"[ 1.78858197e-05  1.72206216e-06  0.00000000e+00  0.00000000e+00
  0.00000000e+00 -1.92553678e-06  1.72206216e-06  1.37128577e-05
  0.00000000e+00  0.00000000e+00  0.00000000e+00 -7.28260485e-07
  0.00000000e+00  0.00000000e+00  0.00000000e+00  0.00000000e+00
  0.00000000e+00  0.00000000e+00  0.00000000e+00  0.00000000e+00
  0.00000000e+00  0.00000000e+00  0.00000000e+00  0.00000000e+00
  0.00000000e+00  0.00000000e+00  0.00000000e+00  0.00000000e+00
  0.00000000e+00  0.00000000e+00 -1.92553678e-06 -7.28260485e-07
  0.00000000e+00  0.00000000e+00  0.00000000e+00  3.79974648e-06]","[[-9.15253302e-05  2.25255198e-02]
 [-3.45471340e-04  1.44351471e-03]]",[],0.0,0.0
1787209710.7524347,1.5761285825834233,1.360877246589842,1.9971294885086375,"[ 1.78858197e-05  1.72206216e-06  0.00000000e+00  0.00000000e+00
  0.00000000e+00 -1.92553678e-06  1.72206216e-06  1.37128577e-05
  0.00000000e+00  0.00000000e+00  0.00000000e+00 -7.28260485e-07
  0.00000000e+00  0.00000000e+00  0.00000000e+00  0.00000000e+00
  0.00000000e+00  0.00000000e+00  0.00000000e+00  0.00000000e+00
  0.00000000e+00  0.00000000e+00  0.00000000e+00  0.00000000e+00
  0.00000000e+00  0.00000000e+00  0.00000000e+00  0.00000000e+00
  0.00000000e+00  0.00000000e+00 -1.92553678e-06 -7.28260485e-07
  0.00000000e+00  0.00000000e+00  0.00000000e+00  3.79974648e-06]","[[-9.15253302e-05  2.25255198e-02]
 [-3.45471340e-04  1.44351471e-03]]",[],0.0,0.0
1787209710.7927256,1.5761285825834233,1.360877246589842,1.9971294885086375,"[ 1.78858197e-05  1.72206216e-06  0.00000000e+00  0.00000000e+00
  0.00000000e+00 -1.92553678e-06  1.72206216e-06  1.37128577e-05
  0.00000000e+00  0.00000000e+00  0.00000000e+00 -7.28260485e-07
  0.00000000e+00  0.00000000e+00  0.00000000e+00  0.00000000e+00
  0.00000000e+00  0.00000000e+00  0.00000000e+00  0.00000000e+00
  0.00000000e+00  0.00000000e+00  0.00000000e+00  0.00000000e+00
  0.00000000e+00  0.00000000e+00  0.00000000e+00  0.00000000e+00
  0.00000000e+00  0.00000000e+00 -1.92553678e-06 -7.28260485e-07
  0.00000000e+00  0.00000000e+00  0.00000000e+00  3.79974648e-06]","[[-9.15253302e-05  2.25255198e-02]
 [-3.45471340e-04  1.44351471e-03]]",[],0.0,0.0
1787209710.8556893,1.5761285825834233,1.360877246589842,1.9971294885086375,"[ 1.78858197e-05  1.72206216e-06  0.00000000e+00  0.00000000e+00
  0.00000000e+00 -1.92553678e-06  1.72206216e-06  1.37128577e-05
  0.00000000e+00  0.00000000e+00  0.00000000e+00 -7.28260485e-07
  0.00000000e+00  0.00000000e+00  0.00000000e+00  0.00000000e+00
  0.00000000e+00  0.00000000e+00  0.00000000e+00  0.00000000e+00
  0.00000000e+00  0.00000000e+00  0.00000000e+00  0.00000000e+00
  0.00000000e+00  0.00000000e+00  0.00000000e+00  0.00000000e+00
  0.00000000e+00  0.00000000e+00 -1.92553678e-06 -7.28260485e-07
  0.00000000e+00  0.00000000e+00  0.00000000e+00  3.79974648e-06]","[[-9.15253302e-05  2.25255198e-02]
 [-3.45471340e-04  1.44351471e-03]]",[],0.0,0.0
1787209710.9026568,1.5761285825834233,1.360877246589842,1.9971294885086375,"[ 1.78858197e-05  1.72206216e-06  0.00000000e+00  0.00000000e+00
  0.00000000e+00 -1.92553678e-06  1.72206216e-06  1.37128577e-05
  0.00000000e+00  0.00000000e+00  0.00000000e+00 -7.28260485e-07
  0.00000000e+00  0.00000000e+00  0.00000000e+00  0.00000000e+00
  0.00000000e+00  0.00000000e+00  0.00000000e+00  0.00000000e+00
  0.00000000e+00  0.00000000e+00  0.00000000e+00  0.00000000e+00
  0.00000000e+00  0.00000000e+00  0.00000000e+00  0.00000000e+00
  0.00000000e+00  0.00000000e+00 -1.92553678e-06 -7.28260485e-07
  0.00000000e+00  0.00000000e+00  0.00000000e+00  3.79974648e-06]","[[-9.15253302e-05  2.25255198e-02]
 [-3.45471340e-04  1.44351471e-03]]",[],0.0,0.0
1787209710.9494,1.5761285825834233,1.360877246589842,1.9971294885086375,"[ 1.78858197e-05  1.72206216e-06  0.00000000e+00  0.00000000e+00
  0.00000000e+00 -1.92553678e-06  1.72206216e-06  1.37128577e-05
  0.00000000e+00  0.00000000e+00  0.00000000e+00 -7.28260485e-07
  0.00000000e+00  0.00000000e+00  0.00000000e+00  0.00000000e+00
  0.00000000e+00  0.00000000e+00  0.00000000e+00  0.00000000e+00
  0.00000000e+00  0.00000000e+00  0.00000000e+00  0.00000000e+00
  0.00000000e+00  0.00000000e+00  0.00000000e+00  0.00000000e+00
  0.00000000e+00  0.00000000e+00 -1.92553678e-06 -7.28260485e-07
  0.00000000e+00  0.00000000e+00  0.00000000e+00  3.79974648e-06]","[[-9.15253302e-05  2.25255198e-02]
 [-3.45471340e-04  1.44351471e-03]]",[],0.0,0.0
1787209710.993594,1.5761285825834233,1.360877246589842,1.9971294885086375,"[ 1.78858197e-05  1.72206216e-06  0.00000000e+00  0.00000000e+00
  0.00000000e+00 -1.92553678e-06  1.72206216e-06  1.37128577e-05
  0.00000000e+00  0.00000000e+00  0.00000000e+00 -7.28260485e-07
  0.00000000e+00  0.00000000e+00  0.00000000e+00  0.00000000e+00
  0.00000000e+00  0.00000000e+00  0.00000000e+00  0.00000000e+00
  0.00000000e+00  0.00000000e+00  0.00000000e+00  0.00000000e+00
  0.00000000e+00  0.00000000e+00  0.00000000e+00  0.00000000e+00
  0.00000000e+00  0.00000000e+00 -1.92553678e-06 -7.28260485e-07
  0.00000000e+00  0.00000000e+00  0.00000000e+00  3.79974648e-06]","[[-9.15253302e-05  2.25255198e-02]
 [-3.45471340e-04  1.44351471e-03]]",[],0.0,0.0
1787209711.024526,1.5761285825834233,1.360877246589842,1.9971294885086375,"[ 1.78858197e-05  1.72206216e-06  0.00000000e+00  0.00000000e+00
  0.00000000e+00 -1.92553678e-06  1.72206216e-06  1.37128577e-05
  0.00000000e+00  0.00000000e+00  0.00000000e+00 -7.28260485e-07
  0.00000000e+00  0.00000000e+00  0.00000000e+00  0.00000000e+00
  0.00000000e+00  0.00000000e+00  0.00000000e+00  0.00000000e+00
  0.00000000e+00  0.00000000e+00  0.00000000e+00  0.00000000e+00
  0.00000000e+00  0.00000000e+00  0.00000000e+00  0.00000000e+00
  0.00000000e+00  0.00000000e+00 -1.92553678e-06 -7.28260485e-07
  0.00000000e+00  0.00000000e+00  0.00000000e+00  3.79974648e-06]","[[-9.15253302e-05  2.25255198e-02]
 [-3.45471340e-04  1.44351471e-03]]",[],0.0,0.0
1787209711.0731297,1.5761285825834233,1.360877246589842,1.9971294885086375,"[ 1.78858197e-05  1.72206216e-06  0.00000000e+00  0.00000000e+00
  0.00000000e+00 -1.92553678e-06  1.72206216e-06  1.37128577e-05
  0.00000000e+00  0.00000000e+00  0.00000000e+00 -7.28260485e-07
  0.00000000e+00  0.00000000e+00  0.00000000e+00  0.00000000e+00
  0.00000000e+00  0.00000000e+00  0.00000000e+00  0.00000000e+00
  0.00000000e+00  0.00000000e+00  0.00000000e+00  0.00000000e+00
  0.00000000e+00  0.00000000e+00  0.00000000e+00  0.00000000e+00
  0.00000000e+00  0.00000000e+00 -1.92553678e-06 -7.28260485e-07
  0.00000000e+00  0.00000000e+00  0.00000000e+00  3.79974648e-06]","[[-9.15253302e-05  2.25255198e-02]
 [-3.45471340e-04  1.44351471e-03]]",[],0.0,0.0
1787209711.1259382,1.5761285825834233,1.360877246589842,1.9971294885086375,"[ 1.78858197e-05  1.72206216e-06  0.00000000e+00  0.00000000e+00
  0.00000000e+00 -1.92553678e-06  1.72206216e-06  1.37128577e-05
  0.00000000e+00  0.00000000e+00  0.00000000e+00 -7.28260485e-07
  0.00000000e+00  0.00000000e+00  0.00000000e+00  0.00000000e+00
  0.00000000e+00  0.00000000e+00  0.00000000e+00  0.00000000e+00
  0.00000000e+00  0.00000000e+00  0.00000000e+00  0.00000000e+00
  0.00000000e+00  0.00000000e+00  0.00000000e+00  0.00000000e+00
  0.00000000e+00  0.00000000e+00 -1.92553678e-06 -7.28260485e-07
  0.00000000e+00  0.00000000e+00  0.00000000e+00  3.79974648e-06]","[[-9.15253302e-05  2.25255198e-02]
 [-3.45471340e-04  1.44351471e-03]]",[],0.0,0.0
1787209711.1729813,1.5761285825834233,1.360877246589842,1.9971294885086375,"[ 1.78858197e-05  1.72206216e-06  0.00000000e+00  0.00000000e+00
  0.00000000e+00 -1.92553678e-06  1.72206216e-06  1.37128577e-05
  0.00000000e+00  0.00000000e+00  0.00000000e+00 -7.28260485e-07
  0.00000000e+00  0.00000000e+00  0.00000000e+00  0.00000000e+00
  0.00000000e+00  0.00000000e+00  0.00000000e+00  0.00000000e+00
  0.00000000e+00  0.00000000e+00  0.00000000e+00  0.00000000e+00
  0.00000000e+00  0.00000000e+00  0.00000000e+00  0.00000000e+00
  0.00000000e+00  0.00000000e+00 -1.92553678e-06 -7.28260485e-07
  0.00000000e+00  0.00000000e+00  0.00000000e+00  3.79974648e-06]","[[-9.15253302e-05  2.25255198e-02]
 [-3.45471340e-04  1.44351471e-03]]",[],0.0,0.0
1787209711.2240193,1.5761285825834233,1.360877246589842,1.9971294885086375,"[ 1.78858197e-05  1.72206216e-06  0.00000000e+00  0.00000000e+00
  0.00000000e+00 -1.92553678e-06  1.72206216e-06  1.37128577e-05
  0.00000000e+00  0.00000000e+00  0.00000000e+00 -7.28260485e-07
  0.00000000e+00  0.00000000e+00  0.00000000e+00  0.00000000e+00
  0.00000000e+00  0.00000000e+00  0.00000000e+00  0.00000000e+00
  0.00000000e+00  0.00000000e+00  0.00000000e+00  0.00000000e+00
  0.00000000e+00  0.00000000e+00  0.00000000e+00  0.00000000e+00
  0.00000000e+00  0.00000000e+00 -1.92553678e-06 -7.28260485e-07
  0.00000000e+00  0.00000000e+00  0.00000000e+00  3.79974648e-06]","[[-9.15253302e-05  2.25255198e-02]
 [-3.45471340e-04  1.44351471e-03]]",[],0.0,0.0
1787209711.2745917,1.5761285825834233,1.360877246589842,1.9971294885086375,"[ 1.78858197e-05  1.72206216e-06  0.00000000e+00  0.00000000e+00
  0.00000000e+00 -1.92553678e-06  1.72206216e-06  1.37128577e-05
  0.00000000e+00  0.00000000e+00  0.00000000e+00 -7.28260485e-07
  0.00000000e+00  0.00000000e+00  0.00000000e+00  0.00000000e+00
  0.00000000e+00  0.00000000e+00  0.00000000e+00  0.00000000e+00
  0.00000000e+00  0.00000000e+00  0.00000000e+00  0.00000000e+00
  0.00000000e+00  0.00000000e+00  0.00000000e+00  0.00000000e+00
  0.00000000e+00  0.00000000e+00 -1.92553678e-06 -7.28260485e-07
  0.00000000e+00  0.00000000e+00  0.00000000e+00  3.79974648e-06]","[[-9.15253302e-05  2.25255198e-02]
 [-3.45471340e-04  1.44351471e-03]]",[],0.0,0.0
1787209711.3247747,1.5761285825834233,1.360877246589842,1.9971294885086375,"[ 1.78858197e-05  1.72206216e-06  0.00000000e+00  0.00000000e+00
  0.00000000e+00 -1.92553678e-06  1.72206216e-06  1.37128577e-05
  0.00000000e+00  0.00000000e+00  0.00000000e+00 -7.28260485e-07
  0.00000000e+00  0.00000000e+00  0.00000000e+00  0.00000000e+00
  0.00000000e+00  0.00000000e+00  0.00000000e+00  0.00000000e+00
  0.00000000e+00  0.00000000e+00  0.00000000e+00  0.00000000e+00
  0.00000000e+00  0.00000000e+00  0.00000000e+00  0.00000000e+00
  0.00000000e+00  0.00000000e+00 -1.92553678e-06 -7.28260485e-07
  0.00000000e+00  0.00000000e+00  0.00000000e+00  3.79974648e-06]","[[-9.15253302e-05  2.25255198e-02]
 [-3.45471340e-04  1.44351471e-03]]",[],0.0,0.0
1787209711.375004,1.5761285825834233,1.360877246589842,1.9971294885086375,"[ 1.78858197e-05  1.72206216e-06  0.00000000e+00  0.00000000e+00
  0.00000000e+00 -1.92553678e-06  1.72206216e-06  1.37128577e-05
  0.00000000e+00  0.00000000e+00  0.00000000e+00 -7.28260485e-07
  0.00000000e+00  0.00000000e+00  0.00000000e+00  0.00000000e+00
  0.00000000e+00  0.00000000e+00  0.00000000e+00  0.00000000e+00
  0.00000000e+00  0.00000000e+00  0.00000000e+00  0.00000000e+00
  0.00000000e+00  0.00000000e+00  0.00000000e+00  0.00000000e+00
  0.00000000e+00  0.00000000e+00 -1.92553678e-06 -7.28260485e-07
  0.00000000e+00  0.00000000e+00  0.00000000e+00  3.79974648e-06]","[[-9.15253302e-05  2.25255198e-02]
 [-3.45471340e-04  1.44351471e-03]]",[],0.0,0.0
1787209711.4272187,1.5761285825834233,1.360877246589842,1.9971294885086375,"[ 1.78858197e-05  1.72206216e-06  0.00000000e+00  0.00000000e+00
  0.00000000e+00 -1.92553678e-06  1.72206216e-06  1.37128577e-05
  0.00000000e+00  0.00000000e+00  0.00000000e+00 -7.28260485e-07
  0.00000000e+00  0.00000000e+00  0.00000000e+00  0.00000000e+00
  0.00000000e+00  0.00000000e+00  0.00000000e+00  0.00000000e+00
  0.00000000e+00  0.00000000e+00  0.00000000e+00  0.00000000e+00
  0.00000000e+00  0.00000000e+00  0.00000000e+00  0.00000000e+00
  0.00000000e+00  0.00000000e+00 -1.92553678e-06 -7.28260485e-07
  0.00000000e+00  0.00000000e+00  0.00000000e+00  3.79974648e-06]","[[-9.15253302e-05  2.25255198e-02]
 [-3.45471340e-04  1.44351471e-03]]",[],0.0,0.0
1787209711.4737988,1.573140168633359,1.3453195453192788,2.0427728728442336,"[ 1.45251587e-05  1.35388198e-06  0.00000000e+00  0.00000000e+00
  0.00000000e+00 -1.56908947e-06  1.35388198e-06  1.10216648e-05
  0.00000000e+00  0.00000000e+00  0.00000000e+00 -5.50295989e-07
  0.00000000e+00  0.00000000e+00  0.00000000e+00  0.00000000e+00
  0.00000000e+00  0.00000000e+00  0.00000000e+00  0.00000000e+00
  0.00000000e+00  0.00000000e+00  0.00000000e+00  0.00000000e+00
  0.00000000e+00  0.00000000e+00  0.00000000e+00  0.00000000e+00
  0.00000000e+00  0.00000000e+00 -1.56908947e-06 -5.50295989e-07
  0.00000000e+00  0.00000000e+00  0.00000000e+00  3.79797336e-06]","[[-0.0003062   0.00777369]
 [-0.00019709 -0.00420025]]",[],0.0,0.0
1787209711.5239677,1.573140168633359,1.3453195453192788,2.0427728728442336,"[ 1.45251587e-05  1.35388198e-06  0.00000000e+00  0.00000000e+00
  0.00000000e+00 -1.56908947e-06  1.35388198e-06  1.10216648e-05
  0.00000000e+00  0.00000000e+00  0.00000000e+00 -5.50295989e-07
  0.00000000e+00  0.00000000e+00  0.00000000e+00  0.00000000e+00
  0.00000000e+00  0.00000000e+00  0.00000000e+00  0.00000000e+00
  0.00000000e+00  0.00000000e+00  0.00000000e+00  0.00000000e+00
  0.00000000e+00  0.00000000e+00  0.00000000e+00  0.00000000e+00
  0.00000000e+00  0.00000000e+00 -1.56908947e-06 -5.50295989e-07
  0.00000000e+00  0.00000000e+00  0.00000000e+00  3.79797336e-06]","[[-0.0003062   0.00777369]
 [-0.00019709 -0.00420025]]",[],0.0,0.0
1787209711.5734951,1.573140168633359,1.3453195453192788,2.0427728728442336,"[ 1.45251587e-05  1.35388198e-06  0.00000000e+00  0.00000000e+00
  0.00000000e+00 -1.56908947e-06  1.35388198e-06  1.10216648e-05
  0.00000000e+00  0.00000000e+00  0.00000000e+00 -5.50295989e-07
  0.00000000e+00  0.00000000e+00  0.00000000e+00  0.00000000e+00
  0.00000000e+00  0.00000000e+00  0.00000000e+00  0.00000000e+00
  0.00000000e+00  0.00000000e+00  0.00000000e+00  0.00000000e+00
  0.00000000e+00  0.00000000e+00  0.00000000e+00  0.00000000e+00
  0.00000000e+00  0.00000000e+00 -1.56908947e-06 -5.50295989e-07
  0.00000000e+00  0.00000000e+00  0.00000000e+00  3.79797336e-06]","[[-0.0003062   0.00777369]
 [-0.00019709 -0.00420025]]",[],0.0,0.0
1787209711.6311445,1.573140168633359,1.3453195453192788,2.0427728728442336,"[ 1.45251587e-05  1.35388198e-06  0.00000000e+00  0.00000000e+00
  0.00000000e+00 -1.56908947e-06  1.35388198e-06  1.10216648e-05
  0.00000000e+00  0.00000000e+00  0.00000000e+00 -5.50295989e-07
  0.00000000e+00  0.00000000e+00  0.00000000e+00  0.00000000e+00
  0.00000000e+00  0.00000000e+00  0.00000000e+00  0.00000000e+00
  0.00000000e+00  0.00000000e+00  0.00000000e+00  0.00000000e+00
  0.00000000e+00  0.00000000e+00  0.00000000e+00  0.00000000e+00
  0.00000000e+00  0.00000000e+00 -1.56908947e-06 -5.50295989e-07
  0.00000000e+00  0.00000000e+00  0.00000000e+00  3.79797336e-06]","[[-0.0003062   0.00777369]
 [-0.00019709 -0.00420025]]",[],0.0,0.0
1787209711.6729167,1.573140168633359,1.3453195453192788,2.0427728728442336,"[ 1.45251587e-05  1.35388198e-06  0.00000000e+00  0.00000000e+00
  0.00000000e+00 -1.56908947e-06  1.35388198e-06  1.10216648e-05
  0.00000000e+00  0.00000000e+00  0.00000000e+00 -5.50295989e-07
  0.00000000e+00  0.00000000e+00  0.00000000e+00  0.00000000e+00
  0.00000000e+00  0.00000000e+00  0.00000000e+00  0.00000000e+00
  0.00000000e+00  0.00000000e+00  0.00000000e+00  0.00000000e+00
  0.00000000e+00  0.00000000e+00  0.00000000e+00  0.00000000e+00
  0.00000000e+00  0.00000000e+00 -1.56908947e-06 -5.50295989e-07
  0.00000000e+00  0.00000000e+00  0.00000000e+00  3.79797336e-06]","[[-0.0003062   0.00777369]
 [-0.00019709 -0.00420025]]",[],0.0,0.0
1787209711.7275753,1.573140168633359,1.3453195453192788,2.0427728728442336,"[ 1.45251587e-05  1.35388198e-06  0.00000000e+00  0.00000000e+00
  0.00000000e+00 -1.56908947e-06  1.35388198e-06  1.10216648e-05
  0.00000000e+00  0.00000000e+00  0.00000000e+00 -5.50295989e-07
  0.00000000e+00  0.00000000e+00  0.00000000e+00  0.00000000e+00
  0.00000000e+00  0.00000000e+00  0.00000000e+00  0.00000000e+00
  0.00000000e+00  0.00000000e+00  0.00000000e+00  0.00000000e+00
  0.00000000e+00  0.00000000e+00  0.00000000e+00  0.00000000e+00
  0.00000000e+00  0.00000000e+00 -1.56908947e-06 -5.50295989e-07
  0.00000000e+00  0.00000000e+00  0.00000000e+00  3.79797336e-06]","[[-0.0003062   0.00777369]
 [-0.00019709 -0.00420025]]",[],0.0,0.0
1787209711.7769713,1.573140168633359,1.3453195453192788,2.0427728728442336,"[ 1.45251587e-05  1.35388198e-06  0.00000000e+00  0.00000000e+00
  0.00000000e+00 -1.56908947e-06  1.35388198e-06  1.10216648e-05
  0.00000000e+00  0.00000000e+00  0.00000000e+00 -5.50295989e-07
  0.00000000e+00  0.00000000e+00  0.00000000e+00  0.00000000e+00
  0.00000000e+00  0.00000000e+00  0.00000000e+00  0.00000000e+00
  0.00000000e+00  0.00000000e+00  0.00000000e+00  0.00000000e+00
  0.00000000e+00  0.00000000e+00  0.00000000e+00  0.00000000e+00
  0.00000000e+00  0.00000000e+00 -1.56908947e-06 -5.50295989e-07
  0.00000000e+00  0.00000000e+00  0.00000000e+00  3.79797336e-06]","[[-0.0003062   0.00777369]
 [-0.00019709 -0.00420025]]",[],0.0,0.0
1787209711.831878,1.573140168633359,1.3453195453192788,2.0427728728442336,"[ 1.45251587e-05  1.35388198e-06  0.00000000e+00  0.00000000e+00
  0.00000000e+00 -1.56908947e-06  1.35388198e-06  1.10216648e-05
  0.00000000e+00  0.00000000e+00  0.00000000e+00 -5.50295989e-07
  0.00000000e+00  0.00000000e+00  0.00000000e+00  0.00000000e+00
  0.00000000e+00  0.00000000e+00  0.00000000e+00  0.00000000e+00
  0.00000000e+00  0.00000000e+00  0.00000000e+00  0.00000000e+00
  0.00000000e+00  0.00000000e+00  0.00000000e+00  0.00000000e+00
  0.00000000e+00  0.00000000e+00 -1.56908947e-06 -5.50295989e-07
  0.00000000e+00  0.00000000e+00  0.00000000e+00  3.79797336e-06]","[[-0.0003062   0.00777369]
 [-0.00019709 -0.00420025]]",[],0.0,0.0
1787209711.8769433,1.573140168633359,1.3453195453192788,2.0427728728442336,"[ 1.45251587e-05  1.35388198e-06  0.00000000e+00  0.00000000e+00
  0.00000000e+00 -1.56908947e-06  1.35388198e-06  1.10216648e-05
  0.00000000e+00  0.00000000e+00  0.00000000e+00 -5.50295989e-07
  0.00000000e+00  0.00000000e+00  0.00000000e+00  0.00000000e+00
  0.00000000e+00  0.00000000e+00  0.00000000e+00  0.00000000e+00
  0.00000000e+00  0.00000000e+00  0.00000000e+00  0.00000000e+00
  0.00000000e+00  0.00000000e+00  0.00000000e+00  0.00000000e+00
  0.00000000e+00  0.00000000e+00 -1.56908947e-06 -5.50295989e-07
  0.00000000e+00  0.00000000e+00  0.00000000e+00  3.79797336e-06]","[[-0.0003062   0.00777369]
 [-0.00019709 -0.00420025]]",[],0.0,0.0
1787209711.9360445,1.573140168633359,1.3453195453192788,2.0427728728442336,"[ 1.45251587e-05  1.35388198e-06  0.00000000e+00  0.00000000e+00
  0.00000000e+00 -1.56908947e-06  1.35388198e-06  1.10216648e-05
  0.00000000e+00  0.00000000e+00  0.00000000e+00 -5.50295989e-07
  0.00000000e+00  0.00000000e+00  0.00000000e+00  0.00000000e+00
  0.00000000e+00  0.00000000e+00  0.00000000e+00  0.00000000e+00
  0.00000000e+00  0.00000000e+00  0.00000000e+00  0.00000000e+00
  0.00000000e+00  0.00000000e+00  0.00000000e+00  0.00000000e+00
  0.00000000e+00  0.00000000e+00 -1.56908947e-06 -5.50295989e-07
  0.00000000e+00  0.00000000e+00  0.00000000e+00  3.79797336e-06]","[[-0.0003062   0.00777369]
 [-0.00019709 -0.00420025]]",[],0.0,0.0
1787209712.024826,1.573140168633359,1.3453195453192788,2.0427728728442336,"[ 1.45251587e-05  1.35388198e-06  0.00000000e+00  0.00000000e+00
  0.00000000e+00 -1.56908947e-06  1.35388198e-06  1.10216648e-05
  0.00000000e+00  0.00000000e+00  0.00000000e+00 -5.50295989e-07
  0.00000000e+00  0.00000000e+00  0.00000000e+00  0.00000000e+00
  0.00000000e+00  0.00000000e+00  0.00000000e+00  0.00000000e+00
  0.00000000e+00  0.00000000e+00  0.00000000e+00  0.00000000e+00
  0.00000000e+00  0.00000000e+00  0.00000000e+00  0.00000000e+00
  0.00000000e+00  0.00000000e+00 -1.56908947e-06 -5.50295989e-07
  0.00000000e+00  0.00000000e+00  0.00000000e+00  3.79797336e-06]","[[-0.0003062   0.00777369]
 [-0.00019709 -0.00420025]]",[],0.0,0.0
1787209712.1252365,1.573140168633359,1.3453195453192788,2.0427728728442336,"[ 1.45251587e-05  1.35388198e-06  0.00000000e+00  0.00000000e+00
  0.00000000e+00 -1.56908947e-06  1.35388198e-06  1.10216648e-05
  0.00000000e+00  0.00000000e+00  0.00000000e+00 -5.50295989e-07
  0.00000000e+00  0.00000000e+00  0.00000000e+00  0.00000000e+00
  0.00000000e+00  0.00000000e+00  0.00000000e+00  0.00000000e+00
  0.00000000e+00  0.00000000e+00  0.00000000e+00  0.00000000e+00
  0.00000000e+00  0.00000000e+00  0.00000000e+00  0.00000000e+00
  0.00000000e+00  0.00000000e+00 -1.56908947e-06 -5.50295989e-07
  0.00000000e+00  0.00000000e+00  0.00000000e+00  3.79797336e-06]","[[-0.0003062   0.00777369]
 [-0.00019709 -0.00420025]]",[],0.0,0.0
1787209712.175787,1.573140168633359,1.3453195453192788,2.0427728728442336,"[ 1.45251587e-05  1.35388198e-06  0.00000000e+00  0.00000000e+00
  0.00000000e+00 -1.56908947e-06  1.35388198e-06  1.10216648e-05
  0.00000000e+00  0.00000000e+00  0.00000000e+00 -5.50295989e-07
  0.00000000e+00  0.00000000e+00  0.00000000e+00  0.00000000e+00
  0.00000000e+00  0.00000000e+00  0.00000000e+00  0.00000000e+00
  0.00000000e+00  0.00000000e+00  0.00000000e+00  0.00000000e+00
  0.00000000e+00  0.00000000e+00  0.00000000e+00  0.00000000e+00
  0.00000000e+00  0.00000000e+00 -1.56908947e-06 -5.50295989e-07
  0.00000000e+00  0.00000000e+00  0.00000000e+00  3.79797336e-06]","[[-0.0003062   0.00777369]
 [-0.00019709 -0.00420025]]",[],0.0,0.0
1787209712.2255456,1.573140168633359,1.3453195453192788,2.0427728728442336,"[ 1.45251587e-05  1.35388198e-06  0.00000000e+00  0.00000000e+00
  0.00000000e+00 -1.56908947e-06  1.35388198e-06  1.10216648e-05
  0.00000000e+00  0.00000000e+00  0.00000000e+00 -5.50295989e-07
  0.00000000e+00  0.00000000e+00  0.00000000e+00  0.00000000e+00
  0.00000000e+00  0.00000000e+00  0.00000000e+00  0.00000000e+00
  0.00000000e+00  0.00000000e+00  0.00000000e+00  0.00000000e+00
  0.00000000e+00  0.00000000e+00  0.00000000e+00  0.00000000e+00
  0.00000000e+00  0.00000000e+00 -1.56908947e-06 -5.50295989e-07
  0.00000000e+00  0.00000000e+00  0.00000000e+00  3.79797336e-06]","[[-0.0003062   0.00777369]
 [-0.00019709 -0.00420025]]",[],0.0,0.0
1787209712.273356,1.573140168633359,1.3453195453192788,2.0427728728442336,"[ 1.45251587e-05  1.35388198e-06  0.00000000e+00  0.00000000e+00
  0.00000000e+00 -1.56908947e-06  1.35388198e-06  1.10216648e-05
  0.00000000e+00  0.00000000e+00  0.00000000e+00 -5.50295989e-07
  0.00000000e+00  0.00000000e+00  0.00000000e+00  0.00000000e+00
  0.00000000e+00  0.00000000e+00  0.00000000e+00  0.00000000e+00
  0.00000000e+00  0.00000000e+00  0.00000000e+00  0.00000000e+00
  0.00000000e+00  0.00000000e+00  0.00000000e+00  0.00000000e+00
  0.00000000e+00  0.00000000e+00 -1.56908947e-06 -5.50295989e-07
  0.00000000e+00  0.00000000e+00  0.00000000e+00  3.79797336e-06]","[[-0.0003062   0.00777369]
 [-0.00019709 -0.00420025]]",[],0.0,0.0
1787209712.3427835,1.5739606086895668,1.3305212216202469,2.0795602788126786,"[ 1.22223507e-05  1.12448198e-06  0.00000000e+00  0.00000000e+00
  0.00000000e+00 -1.25455943e-06  1.12448198e-06  9.37009138e-06
  0.00000000e+00  0.00000000e+00  0.00000000e+00 -3.98587680e-07
  0.00000000e+00  0.00000000e+00  0.00000000e+00  0.00000000e+00
  0.00000000e+00  0.00000000e+00  0.00000000e+00  0.00000000e+00
  0.00000000e+00  0.00000000e+00  0.00000000e+00  0.00000000e+00
  0.00000000e+00  0.00000000e+00  0.00000000e+00  0.00000000e+00
  0.00000000e+00  0.00000000e+00 -1.25455943e-06 -3.98587680e-07
  0.00000000e+00  0.00000000e+00  0.00000000e+00  3.76042661e-06]","[[-0.0002361   0.00814362]
 [-0.0001854  -0.00385871]]",[],0.0,0.0
1787209712.372949,1.5739606086895668,1.3305212216202469,2.0795602788126786,"[ 1.22223507e-05  1.12448198e-06  0.00000000e+00  0.00000000e+00
  0.00000000e+00 -1.25455943e-06  1.12448198e-06  9.37009138e-06
  0.00000000e+00  0.00000000e+00  0.00000000e+00 -3.98587680e-07
  0.00000000e+00  0.00000000e+00  0.00000000e+00  0.00000000e+00
  0.00000000e+00  0.00000000e+00  0.00000000e+00  0.00000000e+00
  0.00000000e+00  0.00000000e+00  0.00000000e+00  0.00000000e+00
  0.00000000e+00  0.00000000e+00  0.00000000e+00  0.00000000e+00
  0.00000000e+00  0.00000000e+00 -1.25455943e-06 -3.98587680e-07
  0.00000000e+00  0.00000000e+00  0.00000000e+00  3.76042661e-06]","[[-0.0002361   0.00814362]
 [-0.0001854  -0.00385871]]",[],0.0,0.0
1787209712.4450386,1.5739606086895668,1.3305212216202469,2.0795602788126786,"[ 1.22223507e-05  1.12448198e-06  0.00000000e+00  0.00000000e+00
  0.00000000e+00 -1.25455943e-06  1.12448198e-06  9.37009138e-06
  0.00000000e+00  0.00000000e+00  0.00000000e+00 -3.98587680e-07
  0.00000000e+00  0.00000000e+00  0.00000000e+00  0.00000000e+00
  0.00000000e+00  0.00000000e+00  0.00000000e+00  0.00000000e+00
  0.00000000e+00  0.00000000e+00  0.00000000e+00  0.00000000e+00
  0.00000000e+00  0.00000000e+00  0.00000000e+00  0.00000000e+00
  0.00000000e+00  0.00000000e+00 -1.25455943e-06 -3.98587680e-07
  0.00000000e+00  0.00000000e+00  0.00000000e+00  3.76042661e-06]","[[-0.0002361   0.00814362]
 [-0.0001854  -0.00385871]]",[],0.0,0.0
1787209712.4767098,1.5739606086895668,1.3305212216202469,2.0795602788126786,"[ 1.22223507e-05  1.12448198e-06  0.00000000e+00  0.00000000e+00
  0.00000000e+00 -1.25455943e-06  1.12448198e-06  9.37009138e-06
  0.00000000e+00  0.00000000e+00  0.00000000e+00 -3.98587680e-07
  0.00000000e+00  0.00000000e+00  0.00000000e+00  0.00000000e+00
  0.00000000e+00  0.00000000e+00  0.00000000e+00  0.00000000e+00
  0.00000000e+00  0.00000000e+00  0.00000000e+00  0.00000000e+00
  0.00000000e+00  0.00000000e+00  0.00000000e+00  0.00000000e+00
  0.00000000e+00  0.00000000e+00 -1.25455943e-06 -3.98587680e-07
  0.00000000e+00  0.00000000e+00  0.00000000e+00  3.76042661e-06]","[[-0.0002361   0.00814362]
 [-0.0001854  -0.00385871]]",[],0.0,0.0
1787209712.5479097,1.5739606086895668,1.3305212216202469,2.0795602788126786,"[ 1.22223507e-05  1.12448198e-06  0.00000000e+00  0.00000000e+00
  0.00000000e+00 -1.25455943e-06  1.12448198e-06  9.37009138e-06
  0.00000000e+00  0.00000000e+00  0.00000000e+00 -3.98587680e-07
  0.00000000e+00  0.00000000e+00  0.00000000e+00  0.00000000e+00
  0.00000000e+00  0.00000000e+00  0.00000000e+00  0.00000000e+00
  0.00000000e+00  0.00000000e+00  0.00000000e+00  0.00000000e+00
  0.00000000e+00  0.00000000e+00  0.00000000e+00  0.00000000e+00
  0.00000000e+00  0.00000000e+00 -1.25455943e-06 -3.98587680e-07
  0.00000000e+00  0.00000000e+00  0.00000000e+00  3.76042661e-06]","[[-0.0002361   0.00814362]
 [-0.0001854  -0.00385871]]",[],0.0,0.0
1787209712.5795488,1.5739606086895668,1.3305212216202469,2.0795602788126786,"[ 1.22223507e-05  1.12448198e-06  0.00000000e+00  0.00000000e+00
  0.00000000e+00 -1.25455943e-06  1.12448198e-06  9.37009138e-06
  0.00000000e+00  0.00000000e+00  0.00000000e+00 -3.98587680e-07
  0.00000000e+00  0.00000000e+00  0.00000000e+00  0.00000000e+00
  0.00000000e+00  0.00000000e+00  0.00000000e+00  0.00000000e+00
  0.00000000e+00  0.00000000e+00  0.00000000e+00  0.00000000e+00
  0.00000000e+00  0.00000000e+00  0.00000000e+00  0.00000000e+00
  0.00000000e+00  0.00000000e+00 -1.25455943e-06 -3.98587680e-07
  0.00000000e+00  0.00000000e+00  0.00000000e+00  3.76042661e-06]","[[-0.0002361   0.00814362]
 [-0.0001854  -0.00385871]]",[],0.0,0.0
1787209712.6229374,1.5739606086895668,1.3305212216202469,2.0795602788126786,"[ 1.22223507e-05  1.12448198e-06  0.00000000e+00  0.00000000e+00
  0.00000000e+00 -1.25455943e-06  1.12448198e-06  9.37009138e-06
  0.00000000e+00  0.00000000e+00  0.00000000e+00 -3.98587680e-07
  0.00000000e+00  0.00000000e+00  0.00000000e+00  0.00000000e+00
  0.00000000e+00  0.00000000e+00  0.00000000e+00  0.00000000e+00
  0.00000000e+00  0.00000000e+00  0.00000000e+00  0.00000000e+00
  0.00000000e+00  0.00000000e+00  0.00000000e+00  0.00000000e+00
  0.00000000e+00  0.00000000e+00 -1.25455943e-06 -3.98587680e-07
  0.00000000e+00  0.00000000e+00  0.00000000e+00  3.76042661e-06]","[[-0.0002361   0.00814362]
 [-0.0001854  -0.00385871]]",[],0.0,0.0
1787209712.6730368,1.5739606086895668,1.3305212216202469,2.0795602788126786,"[ 1.22223507e-05  1.12448198e-06  0.00000000e+00  0.00000000e+00
  0.00000000e+00 -1.25455943e-06  1.12448198e-06  9.37009138e-06
  0.00000000e+00  0.00000000e+00  0.00000000e+00 -3.98587680e-07
  0.00000000e+00  0.00000000e+00  0.00000000e+00  0.00000000e+00
  0.00000000e+00  0.00000000e+00  0.00000000e+00  0.00000000e+00
  0.00000000e+00  0.00000000e+00  0.00000000e+00  0.00000000e+00
  0.00000000e+00  0.00000000e+00  0.00000000e+00  0.00000000e+00
  0.00000000e+00  0.00000000e+00 -1.25455943e-06 -3.98587680e-07
  0.00000000e+00  0.00000000e+00  0.00000000e+00  3.76042661e-06]","[[-0.0002361   0.00814362]
 [-0.0001854  -0.00385871]]",[],0.0,0.0
1787209712.725414,1.5739606086895668,1.3305212216202469,2.0795602788126786,"[ 1.22223507e-05  1.12448198e-06  0.00000000e+00  0.00000000e+00
  0.00000000e+00 -1.25455943e-06  1.12448198e-06  9.37009138e-06
  0.00000000e+00  0.00000000e+00  0.00000000e+00 -3.98587680e-07
  0.00000000e+00  0.00000000e+00  0.00000000e+00  0.00000000e+00
  0.00000000e+00  0.00000000e+00  0.00000000e+00  0.00000000e+00
  0.00000000e+00  0.00000000e+00  0.00000000e+00  0.00000000e+00
  0.00000000e+00  0.00000000e+00  0.00000000e+00  0.00000000e+00
  0.00000000e+00  0.00000000e+00 -1.25455943e-06 -3.98587680e-07
  0.00000000e+00  0.00000000e+00  0.00000000e+00  3.76042661e-06]","[[-0.0002361   0.00814362]
 [-0.0001854  -0.00385871]]",[],0.0,0.0
1787209712.7730956,1.5739606086895668,1.3305212216202469,2.0795602788126786,"[ 1.22223507e-05  1.12448198e-06  0.00000000e+00  0.00000000e+00
  0.00000000e+00 -1.25455943e-06  1.12448198e-06  9.37009138e-06
  0.00000000e+00  0.00000000e+00  0.00000000e+00 -3.98587680e-07
  0.00000000e+00  0.00000000e+00  0.00000000e+00  0.00000000e+00
  0.00000000e+00  0.00000000e+00  0.00000000e+00  0.00000000e+00
  0.00000000e+00  0.00000000e+00  0.00000000e+00  0.00000000e+00
  0.00000000e+00  0.00000000e+00  0.00000000e+00  0.00000000e+00
  0.00000000e+00  0.00000000e+00 -1.25455943e-06 -3.98587680e-07
  0.00000000e+00  0.00000000e+00  0.00000000e+00  3.76042661e-06]","[[-0.0002361   0.00814362]
 [-0.0001854  -0.00385871]]",[],0.0,0.0
1787209712.8237002,1.5739606086895668,1.3305212216202469,2.0795602788126786,"[ 1.22223507e-05  1.12448198e-06  0.00000000e+00  0.00000000e+00
  0.00000000e+00 -1.25455943e-06  1.12448198e-06  9.37009138e-06
  0.00000000e+00  0.00000000e+00  0.00000000e+00 -3.98587680e-07
  0.00000000e+00  0.00000000e+00  0.00000000e+00  0.00000000e+00
  0.00000000e+00  0.00000000e+00  0.00000000e+00  0.00000000e+00
  0.00000000e+00  0.00000000e+00  0.00000000e+00  0.00000000e+00
  0.00000000e+00  0.00000000e+00  0.00000000e+00  0.00000000e+00
  0.00000000e+00  0.00000000e+00 -1.25455943e-06 -3.98587680e-07
  0.00000000e+00  0.00000000e+00  0.00000000e+00  3.76042661e-06]","[[-0.0002361   0.00814362]
 [-0.0001854  -0.00385871]]",[],0.0,0.0
1787209712.8738492,1.5739606086895668,1.3305212216202469,2.0795602788126786,"[ 1.22223507e-05  1.12448198e-06  0.00000000e+00  0.00000000e+00
  0.00000000e+00 -1.25455943e-06  1.12448198e-06  9.37009138e-06
  0.00000000e+00  0.00000000e+00  0.00000000e+00 -3.98587680e-07
  0.00000000e+00  0.00000000e+00  0.00000000e+00  0.00000000e+00
  0.00000000e+00  0.00000000e+00  0.00000000e+00  0.00000000e+00
  0.00000000e+00  0.00000000e+00  0.00000000e+00  0.00000000e+00
  0.00000000e+00  0.00000000e+00  0.00000000e+00  0.00000000e+00
  0.00000000e+00  0.00000000e+00 -1.25455943e-06 -3.98587680e-07
  0.00000000e+00  0.00000000e+00  0.00000000e+00  3.76042661e-06]","[[-0.0002361   0.00814362]
 [-0.0001854  -0.00385871]]",[],0.0,0.0
1787209712.9255598,1.5739606086895668,1.3305212216202469,2.0795602788126786,"[ 1.22223507e-05  1.12448198e-06  0.00000000e+00  0.00000000e+00
  0.00000000e+00 -1.25455943e-06  1.12448198e-06  9.37009138e-06
  0.00000000e+00  0.00000000e+00  0.00000000e+00 -3.98587680e-07
  0.00000000e+00  0.00000000e+00  0.00000000e+00  0.00000000e+00
  0.00000000e+00  0.00000000e+00  0.00000000e+00  0.00000000e+00
  0.00000000e+00  0.00000000e+00  0.00000000e+00  0.00000000e+00
  0.00000000e+00  0.00000000e+00  0.00000000e+00  0.00000000e+00
  0.00000000e+00  0.00000000e+00 -1.25455943e-06 -3.98587680e-07
  0.00000000e+00  0.00000000e+00  0.00000000e+00  3.76042661e-06]","[[-0.0002361   0.00814362]
 [-0.0001854  -0.00385871]]",[],0.0,0.0
1787209712.9732368,1.5739606086895668,1.3305212216202469,2.0795602788126786,"[ 1.22223507e-05  1.12448198e-06  0.00000000e+00  0.00000000e+00
  0.00000000e+00 -1.25455943e-06  1.12448198e-06  9.37009138e-06
  0.00000000e+00  0.00000000e+00  0.00000000e+00 -3.98587680e-07
  0.00000000e+00  0.00000000e+00  0.00000000e+00  0.00000000e+00
  0.00000000e+00  0.00000000e+00  0.00000000e+00  0.00000000e+00
  0.00000000e+00  0.00000000e+00  0.00000000e+00  0.00000000e+00
  0.00000000e+00  0.00000000e+00  0.00000000e+00  0.00000000e+00
  0.00000000e+00  0.00000000e+00 -1.25455943e-06 -3.98587680e-07
  0.00000000e+00  0.00000000e+00  0.00000000e+00  3.76042661e-06]","[[-0.0002361   0.00814362]
 [-0.0001854  -0.00385871]]",[],0.0,0.0
1787209713.0231013,1.5739606086895668,1.3305212216202469,2.0795602788126786,"[ 1.22223507e-05  1.12448198e-06  0.00000000e+00  0.00000000e+00
  0.00000000e+00 -1.25455943e-06  1.12448198e-06  9.37009138e-06
  0.00000000e+00  0.00000000e+00  0.00000000e+00 -3.98587680e-07
  0.00000000e+00  0.00000000e+00  0.00000000e+00  0.00000000e+00
  0.00000000e+00  0.00000000e+00  0.00000000e+00  0.00000000e+00
  0.00000000e+00  0.00000000e+00  0.00000000e+00  0.00000000e+00
  0.00000000e+00  0.00000000e+00  0.00000000e+00  0.00000000e+00
  0.00000000e+00  0.00000000e+00 -1.25455943e-06 -3.98587680e-07
  0.00000000e+00  0.00000000e+00  0.00000000e+00  3.76042661e-06]","[[-0.0002361   0.00814362]
 [-0.0001854  -0.00385871]]",[],0.0,0.0
1787209713.0729735,1.5739606086895668,1.3305212216202469,2.0795602788126786,"[ 1.22223507e-05  1.12448198e-06  0.00000000e+00  0.00000000e+00
  0.00000000e+00 -1.25455943e-06  1.12448198e-06  9.37009138e-06
  0.00000000e+00  0.00000000e+00  0.00000000e+00 -3.98587680e-07
  0.00000000e+00  0.00000000e+00  0.00000000e+00  0.00000000e+00
  0.00000000e+00  0.00000000e+00  0.00000000e+00  0.00000000e+00
  0.00000000e+00  0.00000000e+00  0.00000000e+00  0.00000000e+00
  0.00000000e+00  0.00000000e+00  0.00000000e+00  0.00000000e+00
  0.00000000e+00  0.00000000e+00 -1.25455943e-06 -3.98587680e-07
  0.00000000e+00  0.00000000e+00  0.00000000e+00  3.76042661e-06]","[[-0.0002361   0.00814362]
 [-0.0001854  -0.00385871]]",[],0.0,0.0
1787209713.124089,1.5739606086895668,1.3305212216202469,2.0795602788126786,"[ 1.22223507e-05  1.12448198e-06  0.00000000e+00  0.00000000e+00
  0.00000000e+00 -1.25455943e-06  1.12448198e-06  9.37009138e-06
  0.00000000e+00  0.00000000e+00  0.00000000e+00 -3.98587680e-07
  0.00000000e+00  0.00000000e+00  0.00000000e+00  0.00000000e+00
  0.00000000e+00  0.00000000e+00  0.00000000e+00  0.00000000e+00
  0.00000000e+00  0.00000000e+00  0.00000000e+00  0.00000000e+00
  0.00000000e+00  0.00000000e+00  0.00000000e+00  0.00000000e+00
  0.00000000e+00  0.00000000e+00 -1.25455943e-06 -3.98587680e-07
  0.00000000e+00  0.00000000e+00  0.00000000e+00  3.76042661e-06]","[[-0.0002361   0.00814362]
 [-0.0001854  -0.00385871]]",[],0.0,0.0
1787209713.1728332,1.5739606086895668,1.3305212216202469,2.0795602788126786,"[ 1.22223507e-05  1.12448198e-06  0.00000000e+00  0.00000000e+00
  0.00000000e+00 -1.25455943e-06  1.12448198e-06  9.37009138e-06
  0.00000000e+00  0.00000000e+00  0.00000000e+00 -3.98587680e-07
  0.00000000e+00  0.00000000e+00  0.00000000e+00  0.00000000e+00
  0.00000000e+00  0.00000000e+00  0.00000000e+00  0.00000000e+00
  0.00000000e+00  0.00000000e+00  0.00000000e+00  0.00000000e+00
  0.00000000e+00  0.00000000e+00  0.00000000e+00  0.00000000e+00
  0.00000000e+00  0.00000000e+00 -1.25455943e-06 -3.98587680e-07
  0.00000000e+00  0.00000000e+00  0.00000000e+00  3.76042661e-06]","[[-0.0002361   0.00814362]
 [-0.0001854  -0.00385871]]",[],0.0,0.0
1787209713.2415717,1.5682531516286033,1.3173883425949588,2.133678270276676,"[ 1.04538227e-05  9.28461462e-07  0.00000000e+00  0.00000000e+00
  0.00000000e+00 -1.06680917e-06  9.28461462e-07  8.09776158e-06
  0.00000000e+00  0.00000000e+00  0.00000000e+00 -3.66071709e-07
  0.00000000e+00  0.00000000e+00  0.00000000e+00  0.00000000e+00
  0.00000000e+00  0.00000000e+00  0.00000000e+00  0.00000000e+00
  0.00000000e+00  0.00000000e+00  0.00000000e+00  0.00000000e+00
  0.00000000e+00  0.00000000e+00  0.00000000e+00  0.00000000e+00
  0.00000000e+00  0.00000000e+00 -1.06680917e-06 -3.66071709e-07
  0.00000000e+00  0.00000000e+00  0.00000000e+00  3.67333439e-06]","[[-0.00020048  0.00698108]
 [-0.00016011 -0.00327924]]",[],0.0,0.0
1787209713.2738507,1.5682531516286033,1.3173883425949588,2.133678270276676,"[ 1.04538227e-05  9.28461462e-07  0.00000000e+00  0.00000000e+00
  0.00000000e+00 -1.06680917e-06  9.28461462e-07  8.09776158e-06
  0.00000000e+00  0.00000000e+00  0.00000000e+00 -3.66071709e-07
  0.00000000e+00  0.00000000e+00  0.00000000e+00  0.00000000e+00
  0.00000000e+00  0.00000000e+00  0.00000000e+00  0.00000000e+00
  0.00000000e+00  0.00000000e+00  0.00000000e+00  0.00000000e+00
  0.00000000e+00  0.00000000e+00  0.00000000e+00  0.00000000e+00
  0.00000000e+00  0.00000000e+00 -1.06680917e-06 -3.66071709e-07
  0.00000000e+00  0.00000000e+00  0.00000000e+00  3.67333439e-06]","[[-0.00020048  0.00698108]
 [-0.00016011 -0.00327924]]",[],0.0,0.0
1787209713.322964,1.5682531516286033,1.3173883425949588,2.133678270276676,"[ 1.04538227e-05  9.28461462e-07  0.00000000e+00  0.00000000e+00
  0.00000000e+00 -1.06680917e-06  9.28461462e-07  8.09776158e-06
  0.00000000e+00  0.00000000e+00  0.00000000e+00 -3.66071709e-07
  0.00000000e+00  0.00000000e+00  0.00000000e+00  0.00000000e+00
  0.00000000e+00  0.00000000e+00  0.00000000e+00  0.00000000e+00
  0.00000000e+00  0.00000000e+00  0.00000000e+00  0.00000000e+00
  0.00000000e+00  0.00000000e+00  0.00000000e+00  0.00000000e+00
  0.00000000e+00  0.00000000e+00 -1.06680917e-06 -3.66071709e-07
  0.00000000e+00  0.00000000e+00  0.00000000e+00  3.67333439e-06]","[[-0.00020048  0.00698108]
 [-0.00016011 -0.00327924]]",[],0.0,0.0
1787209713.3730738,1.5682531516286033,1.3173883425949588,2.133678270276676,"[ 1.04538227e-05  9.28461462e-07  0.00000000e+00  0.00000000e+00
  0.00000000e+00 -1.06680917e-06  9.28461462e-07  8.09776158e-06
  0.00000000e+00  0.00000000e+00  0.00000000e+00 -3.66071709e-07
  0.00000000e+00  0.00000000e+00  0.00000000e+00  0.00000000e+00
  0.00000000e+00  0.00000000e+00  0.00000000e+00  0.00000000e+00
  0.00000000e+00  0.00000000e+00  0.00000000e+00  0.00000000e+00
  0.00000000e+00  0.00000000e+00  0.00000000e+00  0.00000000e+00
  0.00000000e+00  0.00000000e+00 -1.06680917e-06 -3.66071709e-07
  0.00000000e+00  0.00000000e+00  0.00000000e+00  3.67333439e-06]","[[-0.00020048  0.00698108]
 [-0.00016011 -0.00327924]]",[],0.0,0.0
1787209713.434369,1.5682531516286033,1.3173883425949588,2.133678270276676,"[ 1.04538227e-05  9.28461462e-07  0.00000000e+00  0.00000000e+00
  0.00000000e+00 -1.06680917e-06  9.28461462e-07  8.09776158e-06
  0.00000000e+00  0.00000000e+00  0.00000000e+00 -3.66071709e-07
  0.00000000e+00  0.00000000e+00  0.00000000e+00  0.00000000e+00
  0.00000000e+00  0.00000000e+00  0.00000000e+00  0.00000000e+00
  0.00000000e+00  0.00000000e+00  0.00000000e+00  0.00000000e+00
  0.00000000e+00  0.00000000e+00  0.00000000e+00  0.00000000e+00
  0.00000000e+00  0.00000000e+00 -1.06680917e-06 -3.66071709e-07
  0.00000000e+00  0.00000000e+00  0.00000000e+00  3.67333439e-06]","[[-0.00020048  0.00698108]
 [-0.00016011 -0.00327924]]",[],0.0,0.0
1787209713.4762456,1.5682531516286033,1.3173883425949588,2.133678270276676,"[ 1.04538227e-05  9.28461462e-07  0.00000000e+00  0.00000000e+00
  0.00000000e+00 -1.06680917e-06  9.28461462e-07  8.09776158e-06
  0.00000000e+00  0.00000000e+00  0.00000000e+00 -3.66071709e-07
  0.00000000e+00  0.00000000e+00  0.00000000e+00  0.00000000e+00
  0.00000000e+00  0.00000000e+00  0.00000000e+00  0.00000000e+00
  0.00000000e+00  0.00000000e+00  0.00000000e+00  0.00000000e+00
  0.00000000e+00  0.00000000e+00  0.00000000e+00  0.00000000e+00
  0.00000000e+00  0.00000000e+00 -1.06680917e-06 -3.66071709e-07
  0.00000000e+00  0.00000000e+00  0.00000000e+00  3.67333439e-06]","[[-0.00020048  0.00698108]
 [-0.00016011 -0.00327924]]",[],0.0,0.0
1787209713.5543866,1.5682531516286033,1.3173883425949588,2.133678270276676,"[ 1.04538227e-05  9.28461462e-07  0.00000000e+00  0.00000000e+00
  0.00000000e+00 -1.06680917e-06  9.28461462e-07  8.09776158e-06
  0.00000000e+00  0.00000000e+00  0.00000000e+00 -3.66071709e-07
  0.00000000e+00  0.00000000e+00  0.00000000e+00  0.00000000e+00
  0.00000000e+00  0.00000000e+00  0.00000000e+00  0.00000000e+00
  0.00000000e+00  0.00000000e+00  0.00000000e+00  0.00000000e+00
  0.00000000e+00  0.00000000e+00  0.00000000e+00  0.00000000e+00
  0.00000000e+00  0.00000000e+00 -1.06680917e-06 -3.66071709e-07
  0.00000000e+00  0.00000000e+00  0.00000000e+00  3.67333439e-06]","[[-0.00020048  0.00698108]
 [-0.00016011 -0.00327924]]",[],0.0,0.0
1787209713.5729723,1.5682531516286033,1.3173883425949588,2.133678270276676,"[ 1.04538227e-05  9.28461462e-07  0.00000000e+00  0.00000000e+00
  0.00000000e+00 -1.06680917e-06  9.28461462e-07  8.09776158e-06
  0.00000000e+00  0.00000000e+00  0.00000000e+00 -3.66071709e-07
  0.00000000e+00  0.00000000e+00  0.00000000e+00  0.00000000e+00
  0.00000000e+00  0.00000000e+00  0.00000000e+00  0.00000000e+00
  0.00000000e+00  0.00000000e+00  0.00000000e+00  0.00000000e+00
  0.00000000e+00  0.00000000e+00  0.00000000e+00  0.00000000e+00
  0.00000000e+00  0.00000000e+00 -1.06680917e-06 -3.66071709e-07
  0.00000000e+00  0.00000000e+00  0.00000000e+00  3.67333439e-06]","[[-0.00020048  0.00698108]
 [-0.00016011 -0.00327924]]",[],0.0,0.0
1787209713.6290164,1.5682531516286033,1.3173883425949588,2.133678270276676,"[ 1.04538227e-05  9.28461462e-07  0.00000000e+00  0.00000000e+00
  0.00000000e+00 -1.06680917e-06  9.28461462e-07  8.09776158e-06
  0.00000000e+00  0.00000000e+00  0.00000000e+00 -3.66071709e-07
  0.00000000e+00  0.00000000e+00  0.00000000e+00  0.00000000e+00
  0.00000000e+00  0.00000000e+00  0.00000000e+00  0.00000000e+00
  0.00000000e+00  0.00000000e+00  0.00000000e+00  0.00000000e+00
  0.00000000e+00  0.00000000e+00  0.00000000e+00  0.00000000e+00
  0.00000000e+00  0.00000000e+00 -1.06680917e-06 -3.66071709e-07
  0.00000000e+00  0.00000000e+00  0.00000000e+00  3.67333439e-06]","[[-0.00020048  0.00698108]
 [-0.00016011 -0.00327924]]",[],0.0,0.0
1787209713.6732638,1.5682531516286033,1.3173883425949588,2.133678270276676,"[ 1.04538227e-05  9.28461462e-07  0.00000000e+00  0.00000000e+00
  0.00000000e+00 -1.06680917e-06  9.28461462e-07  8.09776158e-06
  0.00000000e+00  0.00000000e+00  0.00000000e+00 -3.66071709e-07
  0.00000000e+00  0.00000000e+00  0.00000000e+00  0.00000000e+00
  0.00000000e+00  0.00000000e+00  0.00000000e+00  0.00000000e+00
  0.00000000e+00  0.00000000e+00  0.00000000e+00  0.00000000e+00
  0.00000000e+00  0.00000000e+00  0.00000000e+00  0.00000000e+00
  0.00000000e+00  0.00000000e+00 -1.06680917e-06 -3.66071709e-07
  0.00000000e+00  0.00000000e+00  0.00000000e+00  3.67333439e-06]","[[-0.00020048  0.00698108]
 [-0.00016011 -0.00327924]]",[],0.0,0.0
1787209713.7233737,1.5682531516286033,1.3173883425949588,2.133678270276676,"[ 1.04538227e-05  9.28461462e-07  0.00000000e+00  0.00000000e+00
  0.00000000e+00 -1.06680917e-06  9.28461462e-07  8.09776158e-06
  0.00000000e+00  0.00000000e+00  0.00000000e+00 -3.66071709e-07
  0.00000000e+00  0.00000000e+00  0.00000000e+00  0.00000000e+00
  0.00000000e+00  0.00000000e+00  0.00000000e+00  0.00000000e+00
  0.00000000e+00  0.00000000e+00  0.00000000e+00  0.00000000e+00
  0.00000000e+00  0.00000000e+00  0.00000000e+00  0.00000000e+00
  0.00000000e+00  0.00000000e+00 -1.06680917e-06 -3.66071709e-07
  0.00000000e+00  0.00000000e+00  0.00000000e+00  3.67333439e-06]","[[-0.00020048  0.00698108]
 [-0.00016011 -0.00327924]]",[],0.0,0.0
1787209713.7730007,1.5682531516286033,1.3173883425949588,2.133678270276676,"[ 1.04538227e-05  9.28461462e-07  0.00000000e+00  0.00000000e+00
  0.00000000e+00 -1.06680917e-06  9.28461462e-07  8.09776158e-06
  0.00000000e+00  0.00000000e+00  0.00000000e+00 -3.66071709e-07
  0.00000000e+00  0.00000000e+00  0.00000000e+00  0.00000000e+00
  0.00000000e+00  0.00000000e+00  0.00000000e+00  0.00000000e+00
  0.00000000e+00  0.00000000e+00  0.00000000e+00  0.00000000e+00
  0.00000000e+00  0.00000000e+00  0.00000000e+00  0.00000000e+00
  0.00000000e+00  0.00000000e+00 -1.06680917e-06 -3.66071709e-07
  0.00000000e+00  0.00000000e+00  0.00000000e+00  3.67333439e-06]","[[-0.00020048  0.00698108]
 [-0.00016011 -0.00327924]]",[],0.0,0.0
1787209713.829725,1.5682531516286033,1.3173883425949588,2.133678270276676,"[ 1.04538227e-05  9.28461462e-07  0.00000000e+00  0.00000000e+00
  0.00000000e+00 -1.06680917e-06  9.28461462e-07  8.09776158e-06
  0.00000000e+00  0.00000000e+00  0.00000000e+00 -3.66071709e-07
  0.00000000e+00  0.00000000e+00  0.00000000e+00  0.00000000e+00
  0.00000000e+00  0.00000000e+00  0.00000000e+00  0.00000000e+00
  0.00000000e+00  0.00000000e+00  0.00000000e+00  0.00000000e+00
  0.00000000e+00  0.00000000e+00  0.00000000e+00  0.00000000e+00
  0.00000000e+00  0.00000000e+00 -1.06680917e-06 -3.66071709e-07
  0.00000000e+00  0.00000000e+00  0.00000000e+00  3.67333439e-06]","[[-0.00020048  0.00698108]
 [-0.00016011 -0.00327924]]",[],0.0,0.0
1787209713.8827991,1.5682531516286033,1.3173883425949588,2.133678270276676,"[ 1.04538227e-05  9.28461462e-07  0.00000000e+00  0.00000000e+00
  0.00000000e+00 -1.06680917e-06  9.28461462e-07  8.09776158e-06
  0.00000000e+00  0.00000000e+00  0.00000000e+00 -3.66071709e-07
  0.00000000e+00  0.00000000e+00  0.00000000e+00  0.00000000e+00
  0.00000000e+00  0.00000000e+00  0.00000000e+00  0.00000000e+00
  0.00000000e+00  0.00000000e+00  0.00000000e+00  0.00000000e+00
  0.00000000e+00  0.00000000e+00  0.00000000e+00  0.00000000e+00
  0.00000000e+00  0.00000000e+00 -1.06680917e-06 -3.66071709e-07
  0.00000000e+00  0.00000000e+00  0.00000000e+00  3.67333439e-06]","[[-0.00020048  0.00698108]
 [-0.00016011 -0.00327924]]",[],0.0,0.0
1787209713.9229207,1.5682531516286033,1.3173883425949588,2.133678270276676,"[ 1.04538227e-05  9.28461462e-07  0.00000000e+00  0.00000000e+00
  0.00000000e+00 -1.06680917e-06  9.28461462e-07  8.09776158e-06
  0.00000000e+00  0.00000000e+00  0.00000000e+00 -3.66071709e-07
  0.00000000e+00  0.00000000e+00  0.00000000e+00  0.00000000e+00
  0.00000000e+00  0.00000000e+00  0.00000000e+00  0.00000000e+00
  0.00000000e+00  0.00000000e+00  0.00000000e+00  0.00000000e+00
  0.00000000e+00  0.00000000e+00  0.00000000e+00  0.00000000e+00
  0.00000000e+00  0.00000000e+00 -1.06680917e-06 -3.66071709e-07
  0.00000000e+00  0.00000000e+00  0.00000000e+00  3.67333439e-06]","[[-0.00020048  0.00698108]
 [-0.00016011 -0.00327924]]",[],0.0,0.0
1787209713.9861708,1.5682531516286033,1.3173883425949588,2.133678270276676,"[ 1.04538227e-05  9.28461462e-07  0.00000000e+00  0.00000000e+00
  0.00000000e+00 -1.06680917e-06  9.28461462e-07  8.09776158e-06
  0.00000000e+00  0.00000000e+00  0.00000000e+00 -3.66071709e-07
  0.00000000e+00  0.00000000e+00  0.00000000e+00  0.00000000e+00
  0.00000000e+00  0.00000000e+00  0.00000000e+00  0.00000000e+00
  0.00000000e+00  0.00000000e+00  0.00000000e+00  0.00000000e+00
  0.00000000e+00  0.00000000e+00  0.00000000e+00  0.00000000e+00
  0.00000000e+00  0.00000000e+00 -1.06680917e-06 -3.66071709e-07
  0.00000000e+00  0.00000000e+00  0.00000000e+00  3.67333439e-06]","[[-0.00020048  0.00698108]
 [-0.00016011 -0.00327924]]",[],0.0,0.0
1787209714.0634549,1.5682531516286033,1.3173883425949588,2.133678270276676,"[ 1.04538227e-05  9.28461462e-07  0.00000000e+00  0.00000000e+00
  0.00000000e+00 -1.06680917e-06  9.28461462e-07  8.09776158e-06
  0.00000000e+00  0.00000000e+00  0.00000000e+00 -3.66071709e-07
  0.00000000e+00  0.00000000e+00  0.00000000e+00  0.00000000e+00
  0.00000000e+00  0.00000000e+00  0.00000000e+00  0.00000000e+00
  0.00000000e+00  0.00000000e+00  0.00000000e+00  0.00000000e+00
  0.00000000e+00  0.00000000e+00  0.00000000e+00  0.00000000e+00
  0.00000000e+00  0.00000000e+00 -1.06680917e-06 -3.66071709e-07
  0.00000000e+00  0.00000000e+00  0.00000000e+00  3.67333439e-06]","[[-0.00020048  0.00698108]
 [-0.00016011 -0.00327924]]",[],0.0,0.0
1787209714.075482,1.5745979683366298,1.30590627844676,2.2002635774014268,"[ 9.13211507e-06  7.29682236e-07  0.00000000e+00  0.00000000e+00
  0.00000000e+00 -8.01201409e-07  7.29682236e-07  7.16913430e-06
  0.00000000e+00  0.00000000e+00  0.00000000e+00 -3.49064517e-07
  0.00000000e+00  0.00000000e+00  0.00000000e+00  0.00000000e+00
  0.00000000e+00  0.00000000e+00  0.00000000e+00  0.00000000e+00
  0.00000000e+00  0.00000000e+00  0.00000000e+00  0.00000000e+00
  0.00000000e+00  0.00000000e+00  0.00000000e+00  0.00000000e+00
  0.00000000e+00  0.00000000e+00 -8.01201409e-07 -3.49064517e-07
  0.00000000e+00  0.00000000e+00  0.00000000e+00  3.71256389e-06]","[[ 7.40579336e-05  1.02321790e-02]
 [-1.57190237e-04  4.19461695e-03]]",[],0.0,0.0
1787209714.1232123,1.5745979683366298,1.30590627844676,2.2002635774014268,"[ 9.13211507e-06  7.29682236e-07  0.00000000e+00  0.00000000e+00
  0.00000000e+00 -8.01201409e-07  7.29682236e-07  7.16913430e-06
  0.00000000e+00  0.00000000e+00  0.00000000e+00 -3.49064517e-07
  0.00000000e+00  0.00000000e+00  0.00000000e+00  0.00000000e+00
  0.00000000e+00  0.00000000e+00  0.00000000e+00  0.00000000e+00
  0.00000000e+00  0.00000000e+00  0.00000000e+00  0.00000000e+00
  0.00000000e+00  0.00000000e+00  0.00000000e+00  0.00000000e+00
  0.00000000e+00  0.00000000e+00 -8.01201409e-07 -3.49064517e-07
  0.00000000e+00  0.00000000e+00  0.00000000e+00  3.71256389e-06]","[[ 7.40579336e-05  1.02321790e-02]
 [-1.57190237e-04  4.19461695e-03]]",[],0.0,0.0
1787209714.1914008,1.5745979683366298,1.30590627844676,2.2002635774014268,"[ 9.13211507e-06  7.29682236e-07  0.00000000e+00  0.00000000e+00
  0.00000000e+00 -8.01201409e-07  7.29682236e-07  7.16913430e-06
  0.00000000e+00  0.00000000e+00  0.00000000e+00 -3.49064517e-07
  0.00000000e+00  0.00000000e+00  0.00000000e+00  0.00000000e+00
  0.00000000e+00  0.00000000e+00  0.00000000e+00  0.00000000e+00
  0.00000000e+00  0.00000000e+00  0.00000000e+00  0.00000000e+00
  0.00000000e+00  0.00000000e+00  0.00000000e+00  0.00000000e+00
  0.00000000e+00  0.00000000e+00 -8.01201409e-07 -3.49064517e-07
  0.00000000e+00  0.00000000e+00  0.00000000e+00  3.71256389e-06]","[[ 7.40579336e-05  1.02321790e-02]
 [-1.57190237e-04  4.19461695e-03]]",[],0.0,0.0
1787209714.2486026,1.5745979683366298,1.30590627844676,2.2002635774014268,"[ 9.13211507e-06  7.29682236e-07  0.00000000e+00  0.00000000e+00
  0.00000000e+00 -8.01201409e-07  7.29682236e-07  7.16913430e-06
  0.00000000e+00  0.00000000e+00  0.00000000e+00 -3.49064517e-07
  0.00000000e+00  0.00000000e+00  0.00000000e+00  0.00000000e+00
  0.00000000e+00  0.00000000e+00  0.00000000e+00  0.00000000e+00
  0.00000000e+00  0.00000000e+00  0.00000000e+00  0.00000000e+00
  0.00000000e+00  0.00000000e+00  0.00000000e+00  0.00000000e+00
  0.00000000e+00  0.00000000e+00 -8.01201409e-07 -3.49064517e-07
  0.00000000e+00  0.00000000e+00  0.00000000e+00  3.71256389e-06]","[[ 7.40579336e-05  1.02321790e-02]
 [-1.57190237e-04  4.19461695e-03]]",[],0.0,0.0
1787209714.2909904,1.5745979683366298,1.30590627844676,2.2002635774014268,"[ 9.13211507e-06  7.29682236e-07  0.00000000e+00  0.00000000e+00
  0.00000000e+00 -8.01201409e-07  7.29682236e-07  7.16913430e-06
  0.00000000e+00  0.00000000e+00  0.00000000e+00 -3.49064517e-07
  0.00000000e+00  0.00000000e+00  0.00000000e+00  0.00000000e+00
  0.00000000e+00  0.00000000e+00  0.00000000e+00  0.00000000e+00
  0.00000000e+00  0.00000000e+00  0.00000000e+00  0.00000000e+00
  0.00000000e+00  0.00000000e+00  0.00000000e+00  0.00000000e+00
  0.00000000e+00  0.00000000e+00 -8.01201409e-07 -3.49064517e-07
  0.00000000e+00  0.00000000e+00  0.00000000e+00  3.71256389e-06]","[[ 7.40579336e-05  1.02321790e-02]
 [-1.57190237e-04  4.19461695e-03]]",[],0.0,0.0
1787209714.3278472,1.5745979683366298,1.30590627844676,2.2002635774014268,"[ 9.13211507e-06  7.29682236e-07  0.00000000e+00  0.00000000e+00
  0.00000000e+00 -8.01201409e-07  7.29682236e-07  7.16913430e-06
  0.00000000e+00  0.00000000e+00  0.00000000e+00 -3.49064517e-07
  0.00000000e+00  0.00000000e+00  0.00000000e+00  0.00000000e+00
  0.00000000e+00  0.00000000e+00  0.00000000e+00  0.00000000e+00
  0.00000000e+00  0.00000000e+00  0.00000000e+00  0.00000000e+00
  0.00000000e+00  0.00000000e+00  0.00000000e+00  0.00000000e+00
  0.00000000e+00  0.00000000e+00 -8.01201409e-07 -3.49064517e-07
  0.00000000e+00  0.00000000e+00  0.00000000e+00  3.71256389e-06]","[[ 7.40579336e-05  1.02321790e-02]
 [-1.57190237e-04  4.19461695e-03]]",[],0.0,0.0
1787209714.3757622,1.5745979683366298,1.30590627844676,2.2002635774014268,"[ 9.13211507e-06  7.29682236e-07  0.00000000e+00  0.00000000e+00
  0.00000000e+00 -8.01201409e-07  7.29682236e-07  7.16913430e-06
  0.00000000e+00  0.00000000e+00  0.00000000e+00 -3.49064517e-07
  0.00000000e+00  0.00000000e+00  0.00000000e+00  0.00000000e+00
  0.00000000e+00  0.00000000e+00  0.00000000e+00  0.00000000e+00
  0.00000000e+00  0.00000000e+00  0.00000000e+00  0.00000000e+00
  0.00000000e+00  0.00000000e+00  0.00000000e+00  0.00000000e+00
  0.00000000e+00  0.00000000e+00 -8.01201409e-07 -3.49064517e-07
  0.00000000e+00  0.00000000e+00  0.00000000e+00  3.71256389e-06]","[[ 7.40579336e-05  1.02321790e-02]
 [-1.57190237e-04  4.19461695e-03]]",[],0.0,0.0
1787209714.4711185,1.5745979683366298,1.30590627844676,2.2002635774014268,"[ 9.13211507e-06  7.29682236e-07  0.00000000e+00  0.00000000e+00
  0.00000000e+00 -8.01201409e-07  7.29682236e-07  7.16913430e-06
  0.00000000e+00  0.00000000e+00  0.00000000e+00 -3.49064517e-07
  0.00000000e+00  0.00000000e+00  0.00000000e+00  0.00000000e+00
  0.00000000e+00  0.00000000e+00  0.00000000e+00  0.00000000e+00
  0.00000000e+00  0.00000000e+00  0.00000000e+00  0.00000000e+00
  0.00000000e+00  0.00000000e+00  0.00000000e+00  0.00000000e+00
  0.00000000e+00  0.00000000e+00 -8.01201409e-07 -3.49064517e-07
  0.00000000e+00  0.00000000e+00  0.00000000e+00  3.71256389e-06]","[[ 7.40579336e-05  1.02321790e-02]
 [-1.57190237e-04  4.19461695e-03]]",[],0.0,0.0
1787209714.4756107,1.5745979683366298,1.30590627844676,2.2002635774014268,"[ 9.13211507e-06  7.29682236e-07  0.00000000e+00  0.00000000e+00
  0.00000000e+00 -8.01201409e-07  7.29682236e-07  7.16913430e-06
  0.00000000e+00  0.00000000e+00  0.00000000e+00 -3.49064517e-07
  0.00000000e+00  0.00000000e+00  0.00000000e+00  0.00000000e+00
  0.00000000e+00  0.00000000e+00  0.00000000e+00  0.00000000e+00
  0.00000000e+00  0.00000000e+00  0.00000000e+00  0.00000000e+00
  0.00000000e+00  0.00000000e+00  0.00000000e+00  0.00000000e+00
  0.00000000e+00  0.00000000e+00 -8.01201409e-07 -3.49064517e-07
  0.00000000e+00  0.00000000e+00  0.00000000e+00  3.71256389e-06]","[[ 7.40579336e-05  1.02321790e-02]
 [-1.57190237e-04  4.19461695e-03]]",[],0.0,0.0
1787209714.5847487,1.5745979683366298,1.30590627844676,2.2002635774014268,"[ 9.13211507e-06  7.29682236e-07  0.00000000e+00  0.00000000e+00
  0.00000000e+00 -8.01201409e-07  7.29682236e-07  7.16913430e-06
  0.00000000e+00  0.00000000e+00  0.00000000e+00 -3.49064517e-07
  0.00000000e+00  0.00000000e+00  0.00000000e+00  0.00000000e+00
  0.00000000e+00  0.00000000e+00  0.00000000e+00  0.00000000e+00
  0.00000000e+00  0.00000000e+00  0.00000000e+00  0.00000000e+00
  0.00000000e+00  0.00000000e+00  0.00000000e+00  0.00000000e+00
  0.00000000e+00  0.00000000e+00 -8.01201409e-07 -3.49064517e-07
  0.00000000e+00  0.00000000e+00  0.00000000e+00  3.71256389e-06]","[[ 7.40579336e-05  1.02321790e-02]
 [-1.57190237e-04  4.19461695e-03]]",[],0.0,0.0
1787209714.6299648,1.5745979683366298,1.30590627844676,2.2002635774014268,"[ 9.13211507e-06  7.29682236e-07  0.00000000e+00  0.00000000e+00
  0.00000000e+00 -8.01201409e-07  7.29682236e-07  7.16913430e-06
  0.00000000e+00  0.00000000e+00  0.00000000e+00 -3.49064517e-07
  0.00000000e+00  0.00000000e+00  0.00000000e+00  0.00000000e+00
  0.00000000e+00  0.00000000e+00  0.00000000e+00  0.00000000e+00
  0.00000000e+00  0.00000000e+00  0.00000000e+00  0.00000000e+00
  0.00000000e+00  0.00000000e+00  0.00000000e+00  0.00000000e+00
  0.00000000e+00  0.00000000e+00 -8.01201409e-07 -3.49064517e-07
  0.00000000e+00  0.00000000e+00  0.00000000e+00  3.71256389e-06]","[[ 7.40579336e-05  1.02321790e-02]
 [-1.57190237e-04  4.19461695e-03]]",[],0.0,0.0
1787209714.6891654,1.5745979683366298,1.30590627844676,2.2002635774014268,"[ 9.13211507e-06  7.29682236e-07  0.00000000e+00  0.00000000e+00
  0.00000000e+00 -8.01201409e-07  7.29682236e-07  7.16913430e-06
  0.00000000e+00  0.00000000e+00  0.00000000e+00 -3.49064517e-07
  0.00000000e+00  0.00000000e+00  0.00000000e+00  0.00000000e+00
  0.00000000e+00  0.00000000e+00  0.00000000e+00  0.00000000e+00
  0.00000000e+00  0.00000000e+00  0.00000000e+00  0.00000000e+00
  0.00000000e+00  0.00000000e+00  0.00000000e+00  0.00000000e+00
  0.00000000e+00  0.00000000e+00 -8.01201409e-07 -3.49064517e-07
  0.00000000e+00  0.00000000e+00  0.00000000e+00  3.71256389e-06]","[[ 7.40579336e-05  1.02321790e-02]
 [-1.57190237e-04  4.19461695e-03]]",[],0.0,0.0
1787209714.7289786,1.5745979683366298,1.30590627844676,2.2002635774014268,"[ 9.13211507e-06  7.29682236e-07  0.00000000e+00  0.00000000e+00
  0.00000000e+00 -8.01201409e-07  7.29682236e-07  7.16913430e-06
  0.00000000e+00  0.00000000e+00  0.00000000e+00 -3.49064517e-07
  0.00000000e+00  0.00000000e+00  0.00000000e+00  0.00000000e+00
  0.00000000e+00  0.00000000e+00  0.00000000e+00  0.00000000e+00
  0.00000000e+00  0.00000000e+00  0.00000000e+00  0.00000000e+00
  0.00000000e+00  0.00000000e+00  0.00000000e+00  0.00000000e+00
  0.00000000e+00  0.00000000e+00 -8.01201409e-07 -3.49064517e-07
  0.00000000e+00  0.00000000e+00  0.00000000e+00  3.71256389e-06]","[[ 7.40579336e-05  1.02321790e-02]
 [-1.57190237e-04  4.19461695e-03]]",[],0.0,0.0
1787209714.7750454,1.5745979683366298,1.30590627844676,2.2002635774014268,"[ 9.13211507e-06  7.29682236e-07  0.00000000e+00  0.00000000e+00
  0.00000000e+00 -8.01201409e-07  7.29682236e-07  7.16913430e-06
  0.00000000e+00  0.00000000e+00  0.00000000e+00 -3.49064517e-07
  0.00000000e+00  0.00000000e+00  0.00000000e+00  0.00000000e+00
  0.00000000e+00  0.00000000e+00  0.00000000e+00  0.00000000e+00
  0.00000000e+00  0.00000000e+00  0.00000000e+00  0.00000000e+00
  0.00000000e+00  0.00000000e+00  0.00000000e+00  0.00000000e+00
  0.00000000e+00  0.00000000e+00 -8.01201409e-07 -3.49064517e-07
  0.00000000e+00  0.00000000e+00  0.00000000e+00  3.71256389e-06]","[[ 7.40579336e-05  1.02321790e-02]
 [-1.57190237e-04  4.19461695e-03]]",[],0.0,0.0
1787209714.8239002,1.5745979683366298,1.30590627844676,2.2002635774014268,"[ 9.13211507e-06  7.29682236e-07  0.00000000e+00  0.00000000e+00
  0.00000000e+00 -8.01201409e-07  7.29682236e-07  7.16913430e-06
  0.00000000e+00  0.00000000e+00  0.00000000e+00 -3.49064517e-07
  0.00000000e+00  0.00000000e+00  0.00000000e+00  0.00000000e+00
  0.00000000e+00  0.00000000e+00  0.00000000e+00  0.00000000e+00
  0.00000000e+00  0.00000000e+00  0.00000000e+00  0.00000000e+00
  0.00000000e+00  0.00000000e+00  0.00000000e+00  0.00000000e+00
  0.00000000e+00  0.00000000e+00 -8.01201409e-07 -3.49064517e-07
  0.00000000e+00  0.00000000e+00  0.00000000e+00  3.71256389e-06]","[[ 7.40579336e-05  1.02321790e-02]
 [-1.57190237e-04  4.19461695e-03]]",[],0.0,0.0
1787209714.883591,1.5745979683366298,1.30590627844676,2.2002635774014268,"[ 9.13211507e-06  7.29682236e-07  0.00000000e+00  0.00000000e+00
  0.00000000e+00 -8.01201409e-07  7.29682236e-07  7.16913430e-06
  0.00000000e+00  0.00000000e+00  0.00000000e+00 -3.49064517e-07
  0.00000000e+00  0.00000000e+00  0.00000000e+00  0.00000000e+00
  0.00000000e+00  0.00000000e+00  0.00000000e+00  0.00000000e+00
  0.00000000e+00  0.00000000e+00  0.00000000e+00  0.00000000e+00
  0.00000000e+00  0.00000000e+00  0.00000000e+00  0.00000000e+00
  0.00000000e+00  0.00000000e+00 -8.01201409e-07 -3.49064517e-07
  0.00000000e+00  0.00000000e+00  0.00000000e+00  3.71256389e-06]","[[ 7.40579336e-05  1.02321790e-02]
 [-1.57190237e-04  4.19461695e-03]]",[],0.0,0.0
1787209714.9300394,1.5745979683366298,1.30590627844676,2.2002635774014268,"[ 9.13211507e-06  7.29682236e-07  0.00000000e+00  0.00000000e+00
  0.00000000e+00 -8.01201409e-07  7.29682236e-07  7.16913430e-06
  0.00000000e+00  0.00000000e+00  0.00000000e+00 -3.49064517e-07
  0.00000000e+00  0.00000000e+00  0.00000000e+00  0.00000000e+00
  0.00000000e+00  0.00000000e+00  0.00000000e+00  0.00000000e+00
  0.00000000e+00  0.00000000e+00  0.00000000e+00  0.00000000e+00
  0.00000000e+00  0.00000000e+00  0.00000000e+00  0.00000000e+00
  0.00000000e+00  0.00000000e+00 -8.01201409e-07 -3.49064517e-07
  0.00000000e+00  0.00000000e+00  0.00000000e+00  3.71256389e-06]","[[ 7.40579336e-05  1.02321790e-02]
 [-1.57190237e-04  4.19461695e-03]]",[],0.0,0.0
1787209714.9891798,1.5745979683366298,1.30590627844676,2.2002635774014268,"[ 9.13211507e-06  7.29682236e-07  0.00000000e+00  0.00000000e+00
  0.00000000e+00 -8.01201409e-07  7.29682236e-07  7.16913430e-06
  0.00000000e+00  0.00000000e+00  0.00000000e+00 -3.49064517e-07
  0.00000000e+00  0.00000000e+00  0.00000000e+00  0.00000000e+00
  0.00000000e+00  0.00000000e+00  0.00000000e+00  0.00000000e+00
  0.00000000e+00  0.00000000e+00  0.00000000e+00  0.00000000e+00
  0.00000000e+00  0.00000000e+00  0.00000000e+00  0.00000000e+00
  0.00000000e+00  0.00000000e+00 -8.01201409e-07 -3.49064517e-07
  0.00000000e+00  0.00000000e+00  0.00000000e+00  3.71256389e-06]","[[ 7.40579336e-05  1.02321790e-02]
 [-1.57190237e-04  4.19461695e-03]]",[],0.0,0.0
1787209715.0230238,1.5795361571072748,1.2945349903673178,2.2554187903931755,"[ 8.09917055e-06  5.81670264e-07  0.00000000e+00  0.00000000e+00
  0.00000000e+00 -7.47433603e-07  5.81670264e-07  6.43353329e-06
  0.00000000e+00  0.00000000e+00  0.00000000e+00 -2.42698252e-07
  0.00000000e+00  0.00000000e+00  0.00000000e+00  0.00000000e+00
  0.00000000e+00  0.00000000e+00  0.00000000e+00  0.00000000e+00
  0.00000000e+00  0.00000000e+00  0.00000000e+00  0.00000000e+00
  0.00000000e+00  0.00000000e+00  0.00000000e+00  0.00000000e+00
  0.00000000e+00  0.00000000e+00 -7.47433603e-07 -2.42698252e-07
  0.00000000e+00  0.00000000e+00  0.00000000e+00  3.58575671e-06]","[[-0.00014644  0.0057022 ]
 [-0.00012915 -0.00267847]]",[],0.0,0.0
1787209715.083852,1.5795361571072748,1.2945349903673178,2.2554187903931755,"[ 8.09917055e-06  5.81670264e-07  0.00000000e+00  0.00000000e+00
  0.00000000e+00 -7.47433603e-07  5.81670264e-07  6.43353329e-06
  0.00000000e+00  0.00000000e+00  0.00000000e+00 -2.42698252e-07
  0.00000000e+00  0.00000000e+00  0.00000000e+00  0.00000000e+00
  0.00000000e+00  0.00000000e+00  0.00000000e+00  0.00000000e+00
  0.00000000e+00  0.00000000e+00  0.00000000e+00  0.00000000e+00
  0.00000000e+00  0.00000000e+00  0.00000000e+00  0.00000000e+00
  0.00000000e+00  0.00000000e+00 -7.47433603e-07 -2.42698252e-07
  0.00000000e+00  0.00000000e+00  0.00000000e+00  3.58575671e-06]","[[-0.00014644  0.0057022 ]
 [-0.00012915 -0.00267847]]",[],0.0,0.0
1787209715.13403,1.5795361571072748,1.2945349903673178,2.2554187903931755,"[ 8.09917055e-06  5.81670264e-07  0.00000000e+00  0.00000000e+00
  0.00000000e+00 -7.47433603e-07  5.81670264e-07  6.43353329e-06
  0.00000000e+00  0.00000000e+00  0.00000000e+00 -2.42698252e-07
  0.00000000e+00  0.00000000e+00  0.00000000e+00  0.00000000e+00
  0.00000000e+00  0.00000000e+00  0.00000000e+00  0.00000000e+00
  0.00000000e+00  0.00000000e+00  0.00000000e+00  0.00000000e+00
  0.00000000e+00  0.00000000e+00  0.00000000e+00  0.00000000e+00
  0.00000000e+00  0.00000000e+00 -7.47433603e-07 -2.42698252e-07
  0.00000000e+00  0.00000000e+00  0.00000000e+00  3.58575671e-06]","[[-0.00014644  0.0057022 ]
 [-0.00012915 -0.00267847]]",[],0.0,0.0
1787209715.174313,1.5795361571072748,1.2945349903673178,2.2554187903931755,"[ 8.09917055e-06  5.81670264e-07  0.00000000e+00  0.00000000e+00
  0.00000000e+00 -7.47433603e-07  5.81670264e-07  6.43353329e-06
  0.00000000e+00  0.00000000e+00  0.00000000e+00 -2.42698252e-07
  0.00000000e+00  0.00000000e+00  0.00000000e+00  0.00000000e+00
  0.00000000e+00  0.00000000e+00  0.00000000e+00  0.00000000e+00
  0.00000000e+00  0.00000000e+00  0.00000000e+00  0.00000000e+00
  0.00000000e+00  0.00000000e+00  0.00000000e+00  0.00000000e+00
  0.00000000e+00  0.00000000e+00 -7.47433603e-07 -2.42698252e-07
  0.00000000e+00  0.00000000e+00  0.00000000e+00  3.58575671e-06]","[[-0.00014644  0.0057022 ]
 [-0.00012915 -0.00267847]]",[],0.0,0.0
1787209715.2253535,1.5795361571072748,1.2945349903673178,2.2554187903931755,"[ 8.09917055e-06  5.81670264e-07  0.00000000e+00  0.00000000e+00
  0.00000000e+00 -7.47433603e-07  5.81670264e-07  6.43353329e-06
  0.00000000e+00  0.00000000e+00  0.00000000e+00 -2.42698252e-07
  0.00000000e+00  0.00000000e+00  0.00000000e+00  0.00000000e+00
  0.00000000e+00  0.00000000e+00  0.00000000e+00  0.00000000e+00
  0.00000000e+00  0.00000000e+00  0.00000000e+00  0.00000000e+00
  0.00000000e+00  0.00000000e+00  0.00000000e+00  0.00000000e+00
  0.00000000e+00  0.00000000e+00 -7.47433603e-07 -2.42698252e-07
  0.00000000e+00  0.00000000e+00  0.00000000e+00  3.58575671e-06]","[[-0.00014644  0.0057022 ]
 [-0.00012915 -0.00267847]]",[],0.0,0.0
1787209715.297363,1.5795361571072748,1.2945349903673178,2.2554187903931755,"[ 8.09917055e-06  5.81670264e-07  0.00000000e+00  0.00000000e+00
  0.00000000e+00 -7.47433603e-07  5.81670264e-07  6.43353329e-06
  0.00000000e+00  0.00000000e+00  0.00000000e+00 -2.42698252e-07
  0.00000000e+00  0.00000000e+00  0.00000000e+00  0.00000000e+00
  0.00000000e+00  0.00000000e+00  0.00000000e+00  0.00000000e+00
  0.00000000e+00  0.00000000e+00  0.00000000e+00  0.00000000e+00
  0.00000000e+00  0.00000000e+00  0.00000000e+00  0.00000000e+00
  0.00000000e+00  0.00000000e+00 -7.47433603e-07 -2.42698252e-07
  0.00000000e+00  0.00000000e+00  0.00000000e+00  3.58575671e-06]","[[-0.00014644  0.0057022 ]
 [-0.00012915 -0.00267847]]",[],0.0,0.0
1787209715.3228073,1.5795361571072748,1.2945349903673178,2.2554187903931755,"[ 8.09917055e-06  5.81670264e-07  0.00000000e+00  0.00000000e+00
  0.00000000e+00 -7.47433603e-07  5.81670264e-07  6.43353329e-06
  0.00000000e+00  0.00000000e+00  0.00000000e+00 -2.42698252e-07
  0.00000000e+00  0.00000000e+00  0.00000000e+00  0.00000000e+00
  0.00000000e+00  0.00000000e+00  0.00000000e+00  0.00000000e+00
  0.00000000e+00  0.00000000e+00  0.00000000e+00  0.00000000e+00
  0.00000000e+00  0.00000000e+00  0.00000000e+00  0.00000000e+00
  0.00000000e+00  0.00000000e+00 -7.47433603e-07 -2.42698252e-07
  0.00000000e+00  0.00000000e+00  0.00000000e+00  3.58575671e-06]","[[-0.00014644  0.0057022 ]
 [-0.00012915 -0.00267847]]",[],0.0,0.0
1787209715.3756583,1.5795361571072748,1.2945349903673178,2.2554187903931755,"[ 8.09917055e-06  5.81670264e-07  0.00000000e+00  0.00000000e+00
  0.00000000e+00 -7.47433603e-07  5.81670264e-07  6.43353329e-06
  0.00000000e+00  0.00000000e+00  0.00000000e+00 -2.42698252e-07
  0.00000000e+00  0.00000000e+00  0.00000000e+00  0.00000000e+00
  0.00000000e+00  0.00000000e+00  0.00000000e+00  0.00000000e+00
  0.00000000e+00  0.00000000e+00  0.00000000e+00  0.00000000e+00
  0.00000000e+00  0.00000000e+00  0.00000000e+00  0.00000000e+00
  0.00000000e+00  0.00000000e+00 -7.47433603e-07 -2.42698252e-07
  0.00000000e+00  0.00000000e+00  0.00000000e+00  3.58575671e-06]","[[-0.00014644  0.0057022 ]
 [-0.00012915 -0.00267847]]",[],0.0,0.0
1787209715.425582,1.5795361571072748,1.2945349903673178,2.2554187903931755,"[ 8.09917055e-06  5.81670264e-07  0.00000000e+00  0.00000000e+00
  0.00000000e+00 -7.47433603e-07  5.81670264e-07  6.43353329e-06
  0.00000000e+00  0.00000000e+00  0.00000000e+00 -2.42698252e-07
  0.00000000e+00  0.00000000e+00  0.00000000e+00  0.00000000e+00
  0.00000000e+00  0.00000000e+00  0.00000000e+00  0.00000000e+00
  0.00000000e+00  0.00000000e+00  0.00000000e+00  0.00000000e+00
  0.00000000e+00  0.00000000e+00  0.00000000e+00  0.00000000e+00
  0.00000000e+00  0.00000000e+00 -7.47433603e-07 -2.42698252e-07
  0.00000000e+00  0.00000000e+00  0.00000000e+00  3.58575671e-06]","[[-0.00014644  0.0057022 ]
 [-0.00012915 -0.00267847]]",[],0.0,0.0
1787209715.476199,1.5795361571072748,1.2945349903673178,2.2554187903931755,"[ 8.09917055e-06  5.81670264e-07  0.00000000e+00  0.00000000e+00
  0.00000000e+00 -7.47433603e-07  5.81670264e-07  6.43353329e-06
  0.00000000e+00  0.00000000e+00  0.00000000e+00 -2.42698252e-07
  0.00000000e+00  0.00000000e+00  0.00000000e+00  0.00000000e+00
  0.00000000e+00  0.00000000e+00  0.00000000e+00  0.00000000e+00
  0.00000000e+00  0.00000000e+00  0.00000000e+00  0.00000000e+00
  0.00000000e+00  0.00000000e+00  0.00000000e+00  0.00000000e+00
  0.00000000e+00  0.00000000e+00 -7.47433603e-07 -2.42698252e-07
  0.00000000e+00  0.00000000e+00  0.00000000e+00  3.58575671e-06]","[[-0.00014644  0.0057022 ]
 [-0.00012915 -0.00267847]]",[],0.0,0.0
1787209715.5298681,1.5795361571072748,1.2945349903673178,2.2554187903931755,"[ 8.09917055e-06  5.81670264e-07  0.00000000e+00  0.00000000e+00
  0.00000000e+00 -7.47433603e-07  5.81670264e-07  6.43353329e-06
  0.00000000e+00  0.00000000e+00  0.00000000e+00 -2.42698252e-07
  0.00000000e+00  0.00000000e+00  0.00000000e+00  0.00000000e+00
  0.00000000e+00  0.00000000e+00  0.00000000e+00  0.00000000e+00
  0.00000000e+00  0.00000000e+00  0.00000000e+00  0.00000000e+00
  0.00000000e+00  0.00000000e+00  0.00000000e+00  0.00000000e+00
  0.00000000e+00  0.00000000e+00 -7.47433603e-07 -2.42698252e-07
  0.00000000e+00  0.00000000e+00  0.00000000e+00  3.58575671e-06]","[[-0.00014644  0.0057022 ]
 [-0.00012915 -0.00267847]]",[],0.0,0.0
1787209715.5998359,1.5795361571072748,1.2945349903673178,2.2554187903931755,"[ 8.09917055e-06  5.81670264e-07  0.00000000e+00  0.00000000e+00
  0.00000000e+00 -7.47433603e-07  5.81670264e-07  6.43353329e-06
  0.00000000e+00  0.00000000e+00  0.00000000e+00 -2.42698252e-07
  0.00000000e+00  0.00000000e+00  0.00000000e+00  0.00000000e+00
  0.00000000e+00  0.00000000e+00  0.00000000e+00  0.00000000e+00
  0.00000000e+00  0.00000000e+00  0.00000000e+00  0.00000000e+00
  0.00000000e+00  0.00000000e+00  0.00000000e+00  0.00000000e+00
  0.00000000e+00  0.00000000e+00 -7.47433603e-07 -2.42698252e-07
  0.00000000e+00  0.00000000e+00  0.00000000e+00  3.58575671e-06]","[[-0.00014644  0.0057022 ]
 [-0.00012915 -0.00267847]]",[],0.0,0.0
1787209715.622955,1.5795361571072748,1.2945349903673178,2.2554187903931755,"[ 8.09917055e-06  5.81670264e-07  0.00000000e+00  0.00000000e+00
  0.00000000e+00 -7.47433603e-07  5.81670264e-07  6.43353329e-06
  0.00000000e+00  0.00000000e+00  0.00000000e+00 -2.42698252e-07
  0.00000000e+00  0.00000000e+00  0.00000000e+00  0.00000000e+00
  0.00000000e+00  0.00000000e+00  0.00000000e+00  0.00000000e+00
  0.00000000e+00  0.00000000e+00  0.00000000e+00  0.00000000e+00
  0.00000000e+00  0.00000000e+00  0.00000000e+00  0.00000000e+00
  0.00000000e+00  0.00000000e+00 -7.47433603e-07 -2.42698252e-07
  0.00000000e+00  0.00000000e+00  0.00000000e+00  3.58575671e-06]","[[-0.00014644  0.0057022 ]
 [-0.00012915 -0.00267847]]",[],0.0,0.0
1787209715.6937654,1.5795361571072748,1.2945349903673178,2.2554187903931755,"[ 8.09917055e-06  5.81670264e-07  0.00000000e+00  0.00000000e+00
  0.00000000e+00 -7.47433603e-07  5.81670264e-07  6.43353329e-06
  0.00000000e+00  0.00000000e+00  0.00000000e+00 -2.42698252e-07
  0.00000000e+00  0.00000000e+00  0.00000000e+00  0.00000000e+00
  0.00000000e+00  0.00000000e+00  0.00000000e+00  0.00000000e+00
  0.00000000e+00  0.00000000e+00  0.00000000e+00  0.00000000e+00
  0.00000000e+00  0.00000000e+00  0.00000000e+00  0.00000000e+00
  0.00000000e+00  0.00000000e+00 -7.47433603e-07 -2.42698252e-07
  0.00000000e+00  0.00000000e+00  0.00000000e+00  3.58575671e-06]","[[-0.00014644  0.0057022 ]
 [-0.00012915 -0.00267847]]",[],0.0,0.0
1787209715.7357187,1.5795361571072748,1.2945349903673178,2.2554187903931755,"[ 8.09917055e-06  5.81670264e-07  0.00000000e+00  0.00000000e+00
  0.00000000e+00 -7.47433603e-07  5.81670264e-07  6.43353329e-06
  0.00000000e+00  0.00000000e+00  0.00000000e+00 -2.42698252e-07
  0.00000000e+00  0.00000000e+00  0.00000000e+00  0.00000000e+00
  0.00000000e+00  0.00000000e+00  0.00000000e+00  0.00000000e+00
  0.00000000e+00  0.00000000e+00  0.00000000e+00  0.00000000e+00
  0.00000000e+00  0.00000000e+00  0.00000000e+00  0.00000000e+00
  0.00000000e+00  0.00000000e+00 -7.47433603e-07 -2.42698252e-07
  0.00000000e+00  0.00000000e+00  0.00000000e+00  3.58575671e-06]","[[-0.00014644  0.0057022 ]
 [-0.00012915 -0.00267847]]",[],0.0,0.0
1787209715.8037195,1.5795361571072748,1.2945349903673178,2.2554187903931755,"[ 8.09917055e-06  5.81670264e-07  0.00000000e+00  0.00000000e+00
  0.00000000e+00 -7.47433603e-07  5.81670264e-07  6.43353329e-06
  0.00000000e+00  0.00000000e+00  0.00000000e+00 -2.42698252e-07
  0.00000000e+00  0.00000000e+00  0.00000000e+00  0.00000000e+00
  0.00000000e+00  0.00000000e+00  0.00000000e+00  0.00000000e+00
  0.00000000e+00  0.00000000e+00  0.00000000e+00  0.00000000e+00
  0.00000000e+00  0.00000000e+00  0.00000000e+00  0.00000000e+00
  0.00000000e+00  0.00000000e+00 -7.47433603e-07 -2.42698252e-07
  0.00000000e+00  0.00000000e+00  0.00000000e+00  3.58575671e-06]","[[-0.00014644  0.0057022 ]
 [-0.00012915 -0.00267847]]",[],0.0,0.0
1787209715.8266616,1.5795361571072748,1.2945349903673178,2.2554187903931755,"[ 8.09917055e-06  5.81670264e-07  0.00000000e+00  0.00000000e+00
  0.00000000e+00 -7.47433603e-07  5.81670264e-07  6.43353329e-06
  0.00000000e+00  0.00000000e+00  0.00000000e+00 -2.42698252e-07
  0.00000000e+00  0.00000000e+00  0.00000000e+00  0.00000000e+00
  0.00000000e+00  0.00000000e+00  0.00000000e+00  0.00000000e+00
  0.00000000e+00  0.00000000e+00  0.00000000e+00  0.00000000e+00
  0.00000000e+00  0.00000000e+00  0.00000000e+00  0.00000000e+00
  0.00000000e+00  0.00000000e+00 -7.47433603e-07 -2.42698252e-07
  0.00000000e+00  0.00000000e+00  0.00000000e+00  3.58575671e-06]","[[-0.00014644  0.0057022 ]
 [-0.00012915 -0.00267847]]",[],0.0,0.0
1787209715.9028459,1.5795361571072748,1.2945349903673178,2.2554187903931755,"[ 8.09917055e-06  5.81670264e-07  0.00000000e+00  0.00000000e+00
  0.00000000e+00 -7.47433603e-07  5.81670264e-07  6.43353329e-06
  0.00000000e+00  0.00000000e+00  0.00000000e+00 -2.42698252e-07
  0.00000000e+00  0.00000000e+00  0.00000000e+00  0.00000000e+00
  0.00000000e+00  0.00000000e+00  0.00000000e+00  0.00000000e+00
  0.00000000e+00  0.00000000e+00  0.00000000e+00  0.00000000e+00
  0.00000000e+00  0.00000000e+00  0.00000000e+00  0.00000000e+00
  0.00000000e+00  0.00000000e+00 -7.47433603e-07 -2.42698252e-07
  0.00000000e+00  0.00000000e+00  0.00000000e+00  3.58575671e-06]","[[-0.00014644  0.0057022 ]
 [-0.00012915 -0.00267847]]",[],0.0,0.0
1787209715.9234798,1.5846055484676045,1.283632394690919,2.3379829163184063,"[ 7.23688534e-06  3.88518266e-07  0.00000000e+00  0.00000000e+00
  0.00000000e+00 -5.66895476e-07  3.88518266e-07  5.83054070e-06
  0.00000000e+00  0.00000000e+00  0.00000000e+00 -1.31714643e-07
  0.00000000e+00  0.00000000e+00  0.00000000e+00  0.00000000e+00
  0.00000000e+00  0.00000000e+00  0.00000000e+00  0.00000000e+00
  0.00000000e+00  0.00000000e+00  0.00000000e+00  0.00000000e+00
  0.00000000e+00  0.00000000e+00  0.00000000e+00  0.00000000e+00
  0.00000000e+00  0.00000000e+00 -5.66895476e-07 -1.31714643e-07
  0.00000000e+00  0.00000000e+00  0.00000000e+00  3.53488719e-06]","[[ 7.92775744e-05  7.21291353e-03]
 [-1.22749586e-04  3.26878539e-03]]",[],0.0,0.0
1787209716.0203335,1.5846055484676045,1.283632394690919,2.3379829163184063,"[ 7.23688534e-06  3.88518266e-07  0.00000000e+00  0.00000000e+00
  0.00000000e+00 -5.66895476e-07  3.88518266e-07  5.83054070e-06
  0.00000000e+00  0.00000000e+00  0.00000000e+00 -1.31714643e-07
  0.00000000e+00  0.00000000e+00  0.00000000e+00  0.00000000e+00
  0.00000000e+00  0.00000000e+00  0.00000000e+00  0.00000000e+00
  0.00000000e+00  0.00000000e+00  0.00000000e+00  0.00000000e+00
  0.00000000e+00  0.00000000e+00  0.00000000e+00  0.00000000e+00
  0.00000000e+00  0.00000000e+00 -5.66895476e-07 -1.31714643e-07
  0.00000000e+00  0.00000000e+00  0.00000000e+00  3.53488719e-06]","[[ 7.92775744e-05  7.21291353e-03]
 [-1.22749586e-04  3.26878539e-03]]",[],0.0,0.0
1787209716.024402,1.5846055484676045,1.283632394690919,2.3379829163184063,"[ 7.23688534e-06  3.88518266e-07  0.00000000e+00  0.00000000e+00
  0.00000000e+00 -5.66895476e-07  3.88518266e-07  5.83054070e-06
  0.00000000e+00  0.00000000e+00  0.00000000e+00 -1.31714643e-07
  0.00000000e+00  0.00000000e+00  0.00000000e+00  0.00000000e+00
  0.00000000e+00  0.00000000e+00  0.00000000e+00  0.00000000e+00
  0.00000000e+00  0.00000000e+00  0.00000000e+00  0.00000000e+00
  0.00000000e+00  0.00000000e+00  0.00000000e+00  0.00000000e+00
  0.00000000e+00  0.00000000e+00 -5.66895476e-07 -1.31714643e-07
  0.00000000e+00  0.00000000e+00  0.00000000e+00  3.53488719e-06]","[[ 7.92775744e-05  7.21291353e-03]
 [-1.22749586e-04  3.26878539e-03]]",[],0.0,0.0
1787209716.1084156,1.5846055484676045,1.283632394690919,2.3379829163184063,"[ 7.23688534e-06  3.88518266e-07  0.00000000e+00  0.00000000e+00
  0.00000000e+00 -5.66895476e-07  3.88518266e-07  5.83054070e-06
  0.00000000e+00  0.00000000e+00  0.00000000e+00 -1.31714643e-07
  0.00000000e+00  0.00000000e+00  0.00000000e+00  0.00000000e+00
  0.00000000e+00  0.00000000e+00  0.00000000e+00  0.00000000e+00
  0.00000000e+00  0.00000000e+00  0.00000000e+00  0.00000000e+00
  0.00000000e+00  0.00000000e+00  0.00000000e+00  0.00000000e+00
  0.00000000e+00  0.00000000e+00 -5.66895476e-07 -1.31714643e-07
  0.00000000e+00  0.00000000e+00  0.00000000e+00  3.53488719e-06]","[[ 7.92775744e-05  7.21291353e-03]
 [-1.22749586e-04  3.26878539e-03]]",[],0.0,0.0
1787209716.124381,1.5846055484676045,1.283632394690919,2.3379829163184063,"[ 7.23688534e-06  3.88518266e-07  0.00000000e+00  0.00000000e+00
  0.00000000e+00 -5.66895476e-07  3.88518266e-07  5.83054070e-06
  0.00000000e+00  0.00000000e+00  0.00000000e+00 -1.31714643e-07
  0.00000000e+00  0.00000000e+00  0.00000000e+00  0.00000000e+00
  0.00000000e+00  0.00000000e+00  0.00000000e+00  0.00000000e+00
  0.00000000e+00  0.00000000e+00  0.00000000e+00  0.00000000e+00
  0.00000000e+00  0.00000000e+00  0.00000000e+00  0.00000000e+00
  0.00000000e+00  0.00000000e+00 -5.66895476e-07 -1.31714643e-07
  0.00000000e+00  0.00000000e+00  0.00000000e+00  3.53488719e-06]","[[ 7.92775744e-05  7.21291353e-03]
 [-1.22749586e-04  3.26878539e-03]]",[],0.0,0.0
1787209716.1753454,1.5846055484676045,1.283632394690919,2.3379829163184063,"[ 7.23688534e-06  3.88518266e-07  0.00000000e+00  0.00000000e+00
  0.00000000e+00 -5.66895476e-07  3.88518266e-07  5.83054070e-06
  0.00000000e+00  0.00000000e+00  0.00000000e+00 -1.31714643e-07
  0.00000000e+00  0.00000000e+00  0.00000000e+00  0.00000000e+00
  0.00000000e+00  0.00000000e+00  0.00000000e+00  0.00000000e+00
  0.00000000e+00  0.00000000e+00  0.00000000e+00  0.00000000e+00
  0.00000000e+00  0.00000000e+00  0.00000000e+00  0.00000000e+00
  0.00000000e+00  0.00000000e+00 -5.66895476e-07 -1.31714643e-07
  0.00000000e+00  0.00000000e+00  0.00000000e+00  3.53488719e-06]","[[ 7.92775744e-05  7.21291353e-03]
 [-1.22749586e-04  3.26878539e-03]]",[],0.0,0.0
1787209716.2503312,1.5846055484676045,1.283632394690919,2.3379829163184063,"[ 7.23688534e-06  3.88518266e-07  0.00000000e+00  0.00000000e+00
  0.00000000e+00 -5.66895476e-07  3.88518266e-07  5.83054070e-06
  0.00000000e+00  0.00000000e+00  0.00000000e+00 -1.31714643e-07
  0.00000000e+00  0.00000000e+00  0.00000000e+00  0.00000000e+00
  0.00000000e+00  0.00000000e+00  0.00000000e+00  0.00000000e+00
  0.00000000e+00  0.00000000e+00  0.00000000e+00  0.00000000e+00
  0.00000000e+00  0.00000000e+00  0.00000000e+00  0.00000000e+00
  0.00000000e+00  0.00000000e+00 -5.66895476e-07 -1.31714643e-07
  0.00000000e+00  0.00000000e+00  0.00000000e+00  3.53488719e-06]","[[ 7.92775744e-05  7.21291353e-03]
