time,x,y,yaw,cov_prop,K_gain,innovation,v_ekf,omega_ekf
1786949712.1270318,0.40949597191414766,-1.4445158503406865e-10,-4.503890593809956e-10,"[9.98724336e-03 7.75198351e-09 0.00000000e+00 0.00000000e+00
 0.00000000e+00 2.77816994e-08 7.75198351e-09 1.17434813e-02
 0.00000000e+00 0.00000000e+00 0.00000000e+00 4.18806482e-03
 0.00000000e+00 0.00000000e+00 0.00000000e+00 0.00000000e+00
 0.00000000e+00 0.00000000e+00 0.00000000e+00 0.00000000e+00
 0.00000000e+00 0.00000000e+00 0.00000000e+00 0.00000000e+00
 0.00000000e+00 0.00000000e+00 0.00000000e+00 0.00000000e+00
 0.00000000e+00 0.00000000e+00 2.77816994e-08 4.18806482e-03
 0.00000000e+00 0.00000000e+00 0.00000000e+00 9.98716378e-03]","[[9.98724336e-06 7.75198351e-12 2.77816994e-11]
 [7.75198351e-12 1.17434813e-05 4.18806482e-06]
 [2.77816994e-11 4.18806482e-06 9.98716378e-06]]",[-4.09500062e-01  1.41280645e-10  4.39017267e-10],0.18525804878147561,-2.319325287380991e-12
1786949712.1745236,0.41668254163209617,-1.5428219372915025e-10,-4.736935288462973e-10,"[9.98704415e-03 7.95180323e-09 0.00000000e+00 0.00000000e+00
 0.00000000e+00 2.80718208e-08 7.95180323e-09 1.18039487e-02
 0.00000000e+00 0.00000000e+00 0.00000000e+00 4.25973588e-03
 0.00000000e+00 0.00000000e+00 0.00000000e+00 0.00000000e+00
 0.00000000e+00 0.00000000e+00 0.00000000e+00 0.00000000e+00
 0.00000000e+00 0.00000000e+00 0.00000000e+00 0.00000000e+00
 0.00000000e+00 0.00000000e+00 0.00000000e+00 0.00000000e+00
 0.00000000e+00 0.00000000e+00 2.80718208e-08 4.25973588e-03
 0.00000000e+00 0.00000000e+00 0.00000000e+00 9.98693424e-03]","[[9.98704415e-06 7.95180323e-12 2.80718208e-11]
 [7.95180323e-12 1.18039487e-05 4.25973588e-06]
 [2.80718208e-11 4.25973588e-06 9.98693424e-06]]",[-4.16686703e-01  1.50972533e-10  4.62001548e-10],0.18525804878147561,-2.3191518150333934e-12
1786949712.222443,0.4244683506436872,-1.6487049851164e-10,-4.977342982215305e-10,"[9.98684501e-03 8.16630199e-09 0.00000000e+00 0.00000000e+00
 0.00000000e+00 2.84134166e-08 8.16630199e-09 1.18692784e-02
 0.00000000e+00 0.00000000e+00 0.00000000e+00 4.33582047e-03
 0.00000000e+00 0.00000000e+00 0.00000000e+00 0.00000000e+00
 0.00000000e+00 0.00000000e+00 0.00000000e+00 0.00000000e+00
 0.00000000e+00 0.00000000e+00 0.00000000e+00 0.00000000e+00
 0.00000000e+00 0.00000000e+00 0.00000000e+00 0.00000000e+00
 0.00000000e+00 0.00000000e+00 2.84134166e-08 4.33582047e-03
 0.00000000e+00 0.00000000e+00 0.00000000e+00 9.98670444e-03]","[[9.98684501e-06 8.16630199e-12 2.84134166e-11]
 [8.16630199e-12 1.18692784e-05 4.33582047e-06]
 [2.84134166e-11 4.33582047e-06 9.98670444e-06]]",[-4.24472590e-01  1.61408149e-10  4.85679053e-10],0.1815285234498542,-2.093984707851604e-12
1786949712.2724779,0.43863810109760876,-1.8682215324098147e-10,-5.482059250994098e-10,"[9.98644680e-03 8.57191100e-09 0.00000000e+00 0.00000000e+00
 0.00000000e+00 2.91504356e-08 8.57191100e-09 1.19936601e-02
 0.00000000e+00 0.00000000e+00 0.00000000e+00 4.47711161e-03
 0.00000000e+00 0.00000000e+00 0.00000000e+00 0.00000000e+00
 0.00000000e+00 0.00000000e+00 0.00000000e+00 0.00000000e+00
 0.00000000e+00 0.00000000e+00 0.00000000e+00 0.00000000e+00
 0.00000000e+00 0.00000000e+00 0.00000000e+00 0.00000000e+00
 0.00000000e+00 0.00000000e+00 2.91504356e-08 4.47711161e-03
 0.00000000e+00 0.00000000e+00 0.00000000e+00 9.98624172e-03]","[[9.98644680e-06 8.57191100e-12 2.91504356e-11]
 [8.57191100e-12 1.19936601e-05 4.47711161e-06]
 [2.91504356e-11 4.47711161e-06 9.98624172e-06]]",[-4.38642482e-01  1.83066742e-10  5.35425482e-10],0.1815285234535402,-2.291569711765362e-12
1786949712.3208861,0.4462425228499517,-1.9880564115640284e-10,-5.745484088492958e-10,"[9.98624768e-03 8.79264366e-09 0.00000000e+00 0.00000000e+00
 0.00000000e+00 2.94994685e-08 8.79264366e-09 1.20616743e-02
 0.00000000e+00 0.00000000e+00 0.00000000e+00 4.55249689e-03
 0.00000000e+00 0.00000000e+00 0.00000000e+00 0.00000000e+00
 0.00000000e+00 0.00000000e+00 0.00000000e+00 0.00000000e+00
 0.00000000e+00 0.00000000e+00 0.00000000e+00 0.00000000e+00
 0.00000000e+00 0.00000000e+00 0.00000000e+00 0.00000000e+00
 0.00000000e+00 0.00000000e+00 2.94994685e-08 4.55249689e-03
 0.00000000e+00 0.00000000e+00 0.00000000e+00 9.98600823e-03]","[[9.98624768e-06 8.79264366e-12 2.94994685e-11]
 [8.79264366e-12 1.20616743e-05 4.55249689e-06]
 [2.94994685e-11 4.55249689e-06 9.98600823e-06]]",[-4.46246979e-01  1.94886857e-10  5.61390934e-10],0.1797039340850081,-7.895767373256035e-12
1786949712.3809628,0.4529456889119856,-2.107684402647181e-10,-6.016533937724944e-10,"[9.98604850e-03 8.98954529e-09 0.00000000e+00 0.00000000e+00
 0.00000000e+00 2.97685863e-08 8.98954529e-09 1.21226121e-02
 0.00000000e+00 0.00000000e+00 0.00000000e+00 4.61900728e-03
 0.00000000e+00 0.00000000e+00 0.00000000e+00 0.00000000e+00
 0.00000000e+00 0.00000000e+00 0.00000000e+00 0.00000000e+00
 0.00000000e+00 0.00000000e+00 0.00000000e+00 0.00000000e+00
 0.00000000e+00 0.00000000e+00 0.00000000e+00 0.00000000e+00
 0.00000000e+00 0.00000000e+00 2.97685863e-08 4.61900728e-03
 0.00000000e+00 0.00000000e+00 0.00000000e+00 9.98577190e-03]","[[9.98604850e-06 8.98954529e-12 2.97685863e-11]
 [8.98954529e-12 1.21226121e-05 4.61900728e-06]
 [2.97685863e-11 4.61900728e-06 9.98577190e-06]]",[-4.52950212e-01  2.06701846e-10  5.88176619e-10],0.17789777179685318,-2.155740863596378e-12
1786949712.421942,0.4643070123649632,-2.304950503177536e-10,-6.436997601610983e-10,"[9.98574986e-03 9.32696729e-09 0.00000000e+00 0.00000000e+00
 0.00000000e+00 3.02995510e-08 9.32696729e-09 1.22277238e-02
 0.00000000e+00 0.00000000e+00 0.00000000e+00 4.73149218e-03
 0.00000000e+00 0.00000000e+00 0.00000000e+00 0.00000000e+00
 0.00000000e+00 0.00000000e+00 0.00000000e+00 0.00000000e+00
 0.00000000e+00 0.00000000e+00 0.00000000e+00 0.00000000e+00
 0.00000000e+00 0.00000000e+00 0.00000000e+00 0.00000000e+00
 0.00000000e+00 0.00000000e+00 3.02995510e-08 4.73149218e-03
 0.00000000e+00 0.00000000e+00 0.00000000e+00 9.98541737e-03]","[[9.98584943e-06 9.22188829e-12 3.01511775e-11]
 [9.22188829e-12 1.21949311e-05 4.69668433e-06]
 [3.01511775e-11 4.69668433e-06 9.98553644e-06]]",[-4.60819898e-01  2.19724732e-10  6.15736351e-10],0.17789777179685318,-2.1500162761256547e-12
1786949712.4708958,0.47431607224512135,-2.505320524381503e-10,-6.869012025845223e-10,"[9.98545113e-03 9.62874505e-09 0.00000000e+00 0.00000000e+00
 0.00000000e+00 3.07145168e-08 9.62874505e-09 1.23223560e-02
 0.00000000e+00 0.00000000e+00 0.00000000e+00 4.83053697e-03
 0.00000000e+00 0.00000000e+00 0.00000000e+00 0.00000000e+00
 0.00000000e+00 0.00000000e+00 0.00000000e+00 0.00000000e+00
 0.00000000e+00 0.00000000e+00 0.00000000e+00 0.00000000e+00
 0.00000000e+00 0.00000000e+00 0.00000000e+00 0.00000000e+00
 0.00000000e+00 0.00000000e+00 3.07145168e-08 4.83053697e-03
 0.00000000e+00 0.00000000e+00 0.00000000e+00 9.98505770e-03]","[[9.98545113e-06 9.62874505e-12 3.07145168e-11]
 [9.62874505e-12 1.23223560e-05 4.83053697e-06]
 [3.07145168e-11 4.83053697e-06 9.98505770e-06]]",[-4.74320809e-01  2.45971217e-10  6.72340406e-10],0.17611518175362,6.337118330090874e-12
1786949712.5275202,0.4813689367374052,-2.6482178261488836e-10,-7.165965598687762e-10,"[9.98525203e-03 9.84558030e-09 0.00000000e+00 0.00000000e+00
 0.00000000e+00 3.10378016e-08 9.84558030e-09 1.23907302e-02
 0.00000000e+00 0.00000000e+00 0.00000000e+00 4.90083704e-03
 0.00000000e+00 0.00000000e+00 0.00000000e+00 0.00000000e+00
 0.00000000e+00 0.00000000e+00 0.00000000e+00 0.00000000e+00
 0.00000000e+00 0.00000000e+00 0.00000000e+00 0.00000000e+00
 0.00000000e+00 0.00000000e+00 0.00000000e+00 0.00000000e+00
 0.00000000e+00 0.00000000e+00 3.10378016e-08 4.90083704e-03
 0.00000000e+00 0.00000000e+00 0.00000000e+00 9.98481713e-03]","[[9.98525203e-06 9.84558030e-12 3.10378016e-11]
 [9.84558030e-12 1.23907302e-05 4.90083704e-06]
 [3.10378016e-11 4.90083704e-06 9.98481713e-06]]",[-4.81373743e-01  2.60089040e-10  7.01664060e-10],0.17611518175431018,-1.9479209911743567e-12
1786949712.590662,0.4884609658710874,-2.7969849055794637e-10,-7.470126739406169e-10,"[9.98505293e-03 1.00648878e-08 0.00000000e+00 0.00000000e+00
 0.00000000e+00 3.13539801e-08 1.00648878e-08 1.24601680e-02
 0.00000000e+00 0.00000000e+00 0.00000000e+00 4.97120753e-03
 0.00000000e+00 0.00000000e+00 0.00000000e+00 0.00000000e+00
 0.00000000e+00 0.00000000e+00 0.00000000e+00 0.00000000e+00
 0.00000000e+00 0.00000000e+00 0.00000000e+00 0.00000000e+00
 0.00000000e+00 0.00000000e+00 0.00000000e+00 0.00000000e+00
 0.00000000e+00 0.00000000e+00 3.13539801e-08 4.97120753e-03
 0.00000000e+00 0.00000000e+00 0.00000000e+00 9.98457507e-03]","[[9.98505293e-06 1.00648878e-11 3.13539801e-11]
 [1.00648878e-11 1.24601680e-05 4.97120753e-06]
 [3.13539801e-11 4.97120753e-06 9.98457507e-06]]",[-4.88465843e-01  2.74789198e-10  7.31705807e-10],0.17434689957657343,-2.4553276078975728e-12
1786949712.6213958,0.49564972190236656,-2.95241121601615e-10,-7.786833400302839e-10,"[9.98485391e-03 1.02898382e-08 0.00000000e+00 0.00000000e+00
 0.00000000e+00 3.17388124e-08 1.02898382e-08 1.25316723e-02
 0.00000000e+00 0.00000000e+00 0.00000000e+00 5.04263804e-03
 0.00000000e+00 0.00000000e+00 0.00000000e+00 0.00000000e+00
 0.00000000e+00 0.00000000e+00 0.00000000e+00 0.00000000e+00
 0.00000000e+00 0.00000000e+00 0.00000000e+00 0.00000000e+00
 0.00000000e+00 0.00000000e+00 0.00000000e+00 0.00000000e+00
 0.00000000e+00 0.00000000e+00 3.17388124e-08 5.04263804e-03
 0.00000000e+00 0.00000000e+00 0.00000000e+00 9.98433288e-03]","[[9.98485391e-06 1.02898382e-11 3.17388124e-11]
 [1.02898382e-11 1.25316723e-05 5.04263804e-06]
 [3.17388124e-11 5.04263804e-06 9.98433288e-06]]",[-4.95654671e-01  2.90148399e-10  7.62960806e-10],0.17434689957647345,-8.88872309090516e-13
1786949712.670908,0.5058247281263574,-3.1914803209278504e-10,-8.273843832284911e-10,"[9.98455525e-03 1.06093315e-08 0.00000000e+00 0.00000000e+00
 0.00000000e+00 3.21734961e-08 1.06093315e-08 1.26335517e-02
 0.00000000e+00 0.00000000e+00 0.00000000e+00 5.14270191e-03
 0.00000000e+00 0.00000000e+00 0.00000000e+00 0.00000000e+00
 0.00000000e+00 0.00000000e+00 0.00000000e+00 0.00000000e+00
 0.00000000e+00 0.00000000e+00 0.00000000e+00 0.00000000e+00
 0.00000000e+00 0.00000000e+00 0.00000000e+00 0.00000000e+00
 0.00000000e+00 0.00000000e+00 3.21734961e-08 5.14270191e-03
 0.00000000e+00 0.00000000e+00 0.00000000e+00 9.98396437e-03]","[[9.98455525e-06 1.06093315e-11 3.21734961e-11]
 [1.06093315e-11 1.26335517e-05 5.14270191e-06]
 [3.21734961e-11 5.14270191e-06 9.98396437e-06]]",[-5.05829779e-01  3.13789652e-10  8.11119616e-10],0.17259193674688222,9.955578028630896e-13
1786949712.729059,0.5161750738602452,-3.445582725552364e-10,-8.775087323442676e-10,"[9.98425669e-03 1.09434580e-08 0.00000000e+00 0.00000000e+00
 0.00000000e+00 3.26938302e-08 1.09434580e-08 1.27406717e-02
 0.00000000e+00 0.00000000e+00 0.00000000e+00 5.24583659e-03
 0.00000000e+00 0.00000000e+00 0.00000000e+00 0.00000000e+00
 0.00000000e+00 0.00000000e+00 0.00000000e+00 0.00000000e+00
 0.00000000e+00 0.00000000e+00 0.00000000e+00 0.00000000e+00
 0.00000000e+00 0.00000000e+00 0.00000000e+00 0.00000000e+00
 0.00000000e+00 0.00000000e+00 3.26938302e-08 5.24583659e-03
 0.00000000e+00 0.00000000e+00 0.00000000e+00 9.98359422e-03]","[[9.98425669e-06 1.09434580e-11 3.26938302e-11]
 [1.09434580e-11 1.27406717e-05 5.24583659e-06]
 [3.26938302e-11 5.24583659e-06 9.98359422e-06]]",[-5.16180228e-01  3.38918309e-10  8.60643112e-10],0.1725919367469435,-5.889039256246065e-12
1786949712.7720752,0.5267698044526093,-3.715634912110722e-10,-9.298211089969755e-10,"[9.98395813e-03 1.12874137e-08 0.00000000e+00 0.00000000e+00
 0.00000000e+00 3.31871413e-08 1.12874137e-08 1.28514191e-02
 0.00000000e+00 0.00000000e+00 0.00000000e+00 5.35035925e-03
 0.00000000e+00 0.00000000e+00 0.00000000e+00 0.00000000e+00
 0.00000000e+00 0.00000000e+00 0.00000000e+00 0.00000000e+00
 0.00000000e+00 0.00000000e+00 0.00000000e+00 0.00000000e+00
 0.00000000e+00 0.00000000e+00 0.00000000e+00 0.00000000e+00
 0.00000000e+00 0.00000000e+00 3.31871413e-08 5.35035925e-03
 0.00000000e+00 0.00000000e+00 0.00000000e+00 9.98322051e-03]","[[9.98395813e-06 1.12874137e-11 3.31871413e-11]
 [1.12874137e-11 1.28514191e-05 5.35035925e-06]
 [3.31871413e-11 5.35035925e-06 9.98322051e-06]]",[-5.26775064e-01  3.65627143e-10  9.12350195e-10],0.1691409473271098,-1.9984014443252818e-12
1786949712.8305378,0.5347564888135119,-3.9127756051599357e-10,-9.657776800509055e-10,"[9.98375921e-03 1.15503809e-08 0.00000000e+00 0.00000000e+00
 0.00000000e+00 3.36404232e-08 1.15503809e-08 1.29365232e-02
 0.00000000e+00 0.00000000e+00 0.00000000e+00 5.42928966e-03
 0.00000000e+00 0.00000000e+00 0.00000000e+00 0.00000000e+00
 0.00000000e+00 0.00000000e+00 0.00000000e+00 0.00000000e+00
 0.00000000e+00 0.00000000e+00 0.00000000e+00 0.00000000e+00
 0.00000000e+00 0.00000000e+00 0.00000000e+00 0.00000000e+00
 0.00000000e+00 0.00000000e+00 3.36404232e-08 5.42928966e-03
 0.00000000e+00 0.00000000e+00 0.00000000e+00 9.98297199e-03]","[[9.98375921e-06 1.15503809e-11 3.36404232e-11]
 [1.15503809e-11 1.29365232e-05 5.42928966e-06]
 [3.36404232e-11 5.42928966e-06 9.98297199e-06]]",[-5.34761828e-01  3.85110986e-10  9.47799617e-10],0.16743919269840768,-1.9501761316931265e-12
1786949712.8710768,0.5402319029595261,-4.0919967537277917e-10,-1.0024061580793386e-09,"[9.98356007e-03 1.17332521e-08 0.00000000e+00 0.00000000e+00
 0.00000000e+00 3.38440333e-08 1.17332521e-08 1.29956482e-02
 0.00000000e+00 0.00000000e+00 0.00000000e+00 5.48348792e-03
 0.00000000e+00 0.00000000e+00 0.00000000e+00 0.00000000e+00
 0.00000000e+00 0.00000000e+00 0.00000000e+00 0.00000000e+00
 0.00000000e+00 0.00000000e+00 0.00000000e+00 0.00000000e+00
 0.00000000e+00 0.00000000e+00 0.00000000e+00 0.00000000e+00
 0.00000000e+00 0.00000000e+00 3.38440333e-08 5.48348792e-03
 0.00000000e+00 0.00000000e+00 0.00000000e+00 9.98271701e-03]","[[9.98356007e-06 1.17332521e-11 3.38440333e-11]
 [1.17332521e-11 1.29956482e-05 5.48348792e-06]
 [3.38440333e-11 5.48348792e-06 9.98271701e-06]]",[-5.40237296e-01  4.02871567e-10  9.84134552e-10],0.16743919269840768,-1.9503496040407242e-12
1786949712.9281652,0.549879141237042,-4.386299325155332e-10,-1.0584715326444893e-09,"[9.98326148e-03 1.20581023e-08 0.00000000e+00 0.00000000e+00
 0.00000000e+00 3.42702602e-08 1.20581023e-08 1.31012247e-02
 0.00000000e+00 0.00000000e+00 0.00000000e+00 5.57891971e-03
 0.00000000e+00 0.00000000e+00 0.00000000e+00 0.00000000e+00
 0.00000000e+00 0.00000000e+00 0.00000000e+00 0.00000000e+00
 0.00000000e+00 0.00000000e+00 0.00000000e+00 0.00000000e+00
 0.00000000e+00 0.00000000e+00 0.00000000e+00 0.00000000e+00
 0.00000000e+00 0.00000000e+00 3.42702602e-08 5.57891971e-03
 0.00000000e+00 0.00000000e+00 0.00000000e+00 9.98233445e-03]","[[9.98326148e-06 1.20581023e-11 3.42702602e-11]
 [1.20581023e-11 1.31012247e-05 5.57891971e-06]
 [3.42702602e-11 5.57891971e-06 9.98233445e-06]]",[-5.49884631e-01  4.32010827e-10  1.03963949e-09],0.16575629199473885,-8.363969239422175e-12
1786949712.9822354,0.5567404914562759,-4.5952966871726946e-10,-1.096961632640614e-09,"[9.98306247e-03 1.22933064e-08 0.00000000e+00 0.00000000e+00
 0.00000000e+00 3.46014587e-08 1.22933064e-08 1.31779671e-02
 0.00000000e+00 0.00000000e+00 0.00000000e+00 5.64726159e-03
 0.00000000e+00 0.00000000e+00 0.00000000e+00 0.00000000e+00
 0.00000000e+00 0.00000000e+00 0.00000000e+00 0.00000000e+00
 0.00000000e+00 0.00000000e+00 0.00000000e+00 0.00000000e+00
 0.00000000e+00 0.00000000e+00 0.00000000e+00 0.00000000e+00
 0.00000000e+00 0.00000000e+00 3.46014587e-08 5.64726159e-03
 0.00000000e+00 0.00000000e+00 0.00000000e+00 9.98207849e-03]","[[9.98306247e-06 1.22933064e-11 3.46014587e-11]
 [1.22933064e-11 1.31779671e-05 5.64726159e-06]
 [3.46014587e-11 5.64726159e-06 9.98207849e-06]]",[-5.56746049e-01  4.52697471e-10  1.07771081e-09],0.16575629199839698,-3.4411709592951922e-12
1786949713.0222638,0.5673329478916861,-4.854038406470846e-10,-1.1368155306001881e-09,"[9.98286405e-03 1.26539999e-08 0.00000000e+00 0.00000000e+00
 0.00000000e+00 3.55213874e-08 1.26539999e-08 1.32963412e-02
 0.00000000e+00 0.00000000e+00 0.00000000e+00 5.75102569e-03
 0.00000000e+00 0.00000000e+00 0.00000000e+00 0.00000000e+00
 0.00000000e+00 0.00000000e+00 0.00000000e+00 0.00000000e+00
 0.00000000e+00 0.00000000e+00 0.00000000e+00 0.00000000e+00
 0.00000000e+00 0.00000000e+00 0.00000000e+00 0.00000000e+00
 0.00000000e+00 0.00000000e+00 3.55213874e-08 5.75102569e-03
 0.00000000e+00 0.00000000e+00 0.00000000e+00 9.98183261e-03]","[[9.98286405e-06 1.26539999e-11 3.55213874e-11]
 [1.26539999e-11 1.32963412e-05 5.75102569e-06]
 [3.55213874e-11 5.75102569e-06 9.98183261e-06]]",[-5.67338612e-01  4.78237519e-10  1.11667697e-09],0.16242097138100622,-4.276266840630427e-11
1786949713.0837865,0.5731745826373128,-5.0673042073642e-10,-1.1777321340389335e-09,"[9.98266499e-03 1.28599885e-08 0.00000000e+00 0.00000000e+00
 0.00000000e+00 3.57782450e-08 1.28599885e-08 1.33631774e-02
 0.00000000e+00 0.00000000e+00 0.00000000e+00 5.80883233e-03
 0.00000000e+00 0.00000000e+00 0.00000000e+00 0.00000000e+00
 0.00000000e+00 0.00000000e+00 0.00000000e+00 0.00000000e+00
 0.00000000e+00 0.00000000e+00 0.00000000e+00 0.00000000e+00
 0.00000000e+00 0.00000000e+00 0.00000000e+00 0.00000000e+00
 0.00000000e+00 0.00000000e+00 3.57782450e-08 5.80883233e-03
 0.00000000e+00 0.00000000e+00 0.00000000e+00 9.98157150e-03]","[[9.98266499e-06 1.28599885e-11 3.57782450e-11]
 [1.28599885e-11 1.33631774e-05 5.80883233e-06]
 [3.57782450e-11 5.80883233e-06 9.98157150e-06]]",[-5.73180305e-01  4.99372724e-10  1.15723919e-09],0.1607834338144531,-1.2346026978526936e-12
1786949713.1231644,0.5832379233646967,-5.415915944440919e-10,-1.2411658367739165e-09,"[9.98236678e-03 1.32186332e-08 0.00000000e+00 0.00000000e+00
 0.00000000e+00 3.65396321e-08 1.32186332e-08 1.34797673e-02
 0.00000000e+00 0.00000000e+00 0.00000000e+00 5.90828737e-03
 0.00000000e+00 0.00000000e+00 0.00000000e+00 0.00000000e+00
 0.00000000e+00 0.00000000e+00 0.00000000e+00 0.00000000e+00
 0.00000000e+00 0.00000000e+00 0.00000000e+00 0.00000000e+00
 0.00000000e+00 0.00000000e+00 0.00000000e+00 0.00000000e+00
 0.00000000e+00 0.00000000e+00 3.65396321e-08 5.90828737e-03
 0.00000000e+00 0.00000000e+00 0.00000000e+00 9.98118428e-03]","[[9.98236678e-06 1.32186332e-11 3.65396321e-11]
 [1.32186332e-11 1.34797673e-05 5.90828737e-06]
 [3.65396321e-11 5.90828737e-06 9.98118428e-06]]",[-5.83243746e-01  5.33896313e-10  1.21986954e-09],0.1575513897653311,-1.7003759511524663e-12
1786949713.2181304,0.5920519735862428,-5.764403941318463e-10,-1.3063532477985973e-09,"[9.98206824e-03 1.35377653e-08 0.00000000e+00 0.00000000e+00
 0.00000000e+00 3.69422431e-08 1.35377653e-08 1.35831906e-02
 0.00000000e+00 0.00000000e+00 0.00000000e+00 5.99513723e-03
 0.00000000e+00 0.00000000e+00 0.00000000e+00 0.00000000e+00
 0.00000000e+00 0.00000000e+00 0.00000000e+00 0.00000000e+00
 0.00000000e+00 0.00000000e+00 0.00000000e+00 0.00000000e+00
 0.00000000e+00 0.00000000e+00 0.00000000e+00 0.00000000e+00
 0.00000000e+00 0.00000000e+00 3.69422431e-08 5.99513723e-03
 0.00000000e+00 0.00000000e+00 0.00000000e+00 9.98078683e-03]","[[9.98206824e-06 1.35377653e-11 3.69422431e-11]
 [1.35377653e-11 1.35831906e-05 5.99513723e-06]
 [3.69422431e-11 5.99513723e-06 9.98078683e-06]]",[-5.92057884e-01  5.68440675e-10  1.28449740e-09],0.15436080627497897,-1.6198847818671425e-12
1786949713.2244976,0.5920519735862428,-5.764403941318463e-10,-1.3063532477985973e-09,"[9.98206824e-03 1.35377653e-08 0.00000000e+00 0.00000000e+00
 0.00000000e+00 3.69422431e-08 1.35377653e-08 1.35831906e-02
 0.00000000e+00 0.00000000e+00 0.00000000e+00 5.99513723e-03
 0.00000000e+00 0.00000000e+00 0.00000000e+00 0.00000000e+00
 0.00000000e+00 0.00000000e+00 0.00000000e+00 0.00000000e+00
 0.00000000e+00 0.00000000e+00 0.00000000e+00 0.00000000e+00
 0.00000000e+00 0.00000000e+00 0.00000000e+00 0.00000000e+00
 0.00000000e+00 0.00000000e+00 3.69422431e-08 5.99513723e-03
 0.00000000e+00 0.00000000e+00 0.00000000e+00 9.98078683e-03]","[[9.98206824e-06 1.35377653e-11 3.69422431e-11]
 [1.35377653e-11 1.35831906e-05 5.99513723e-06]
 [3.69422431e-11 5.99513723e-06 9.98078683e-06]]",[-5.92057884e-01  5.68440675e-10  1.28449740e-09],0.15436080627497897,-1.6198847818671425e-12
1786949713.2876995,0.6048587063773736,-6.184791543351955e-10,-1.3761893846719886e-09,"[9.98177082e-03 1.40149368e-08 0.00000000e+00 0.00000000e+00
 0.00000000e+00 3.84823561e-08 1.40149368e-08 1.37379273e-02
 0.00000000e+00 0.00000000e+00 0.00000000e+00 6.12270424e-03
 0.00000000e+00 0.00000000e+00 0.00000000e+00 0.00000000e+00
 0.00000000e+00 0.00000000e+00 0.00000000e+00 0.00000000e+00
 0.00000000e+00 0.00000000e+00 0.00000000e+00 0.00000000e+00
 0.00000000e+00 0.00000000e+00 0.00000000e+00 0.00000000e+00
 0.00000000e+00 0.00000000e+00 3.84823561e-08 6.12270424e-03
 0.00000000e+00 0.00000000e+00 0.00000000e+00 9.98040772e-03]","[[9.98177082e-06 1.40149368e-11 3.84823561e-11]
 [1.40149368e-11 1.37379273e-05 6.12270424e-06]
 [3.84823561e-11 6.12270424e-06 9.98040772e-06]]",[-6.04864744e-01  6.10018677e-10  1.35293021e-09],0.1543608062713442,-9.379649834606596e-13
1786949713.3207226,0.6138774807802106,-6.572329091752386e-10,-1.4482073318333732e-09,"[9.98147252e-03 1.43593172e-08 0.00000000e+00 0.00000000e+00
 0.00000000e+00 3.90909561e-08 1.43593172e-08 1.38475837e-02
 0.00000000e+00 0.00000000e+00 0.00000000e+00 6.21154624e-03
 0.00000000e+00 0.00000000e+00 0.00000000e+00 0.00000000e+00
 0.00000000e+00 0.00000000e+00 0.00000000e+00 0.00000000e+00
 0.00000000e+00 0.00000000e+00 0.00000000e+00 0.00000000e+00
 0.00000000e+00 0.00000000e+00 0.00000000e+00 0.00000000e+00
 0.00000000e+00 0.00000000e+00 3.90909561e-08 6.21154624e-03
 0.00000000e+00 0.00000000e+00 0.00000000e+00 9.98000623e-03]","[[9.98147252e-06 1.43593172e-11 3.90909561e-11]
 [1.43593172e-11 1.38475837e-05 6.21154624e-06]
 [3.90909561e-11 6.21154624e-06 9.98000623e-06]]",[-6.13883608e-01  6.48435786e-10  1.42422829e-09],0.15280526487688606,-9.237402509576498e-13
1786949713.371957,0.6205950708180333,-6.850395294571847e-10,-1.4971859307877367e-09,"[9.98127362e-03 1.46192170e-08 0.00000000e+00 0.00000000e+00
 0.00000000e+00 3.94560078e-08 1.46192170e-08 1.39303245e-02
 0.00000000e+00 0.00000000e+00 0.00000000e+00 6.27773469e-03
 0.00000000e+00 0.00000000e+00 0.00000000e+00 0.00000000e+00
 0.00000000e+00 0.00000000e+00 0.00000000e+00 0.00000000e+00
 0.00000000e+00 0.00000000e+00 0.00000000e+00 0.00000000e+00
 0.00000000e+00 0.00000000e+00 0.00000000e+00 0.00000000e+00
 0.00000000e+00 0.00000000e+00 3.94560078e-08 6.27773469e-03
 0.00000000e+00 0.00000000e+00 0.00000000e+00 9.97973608e-03]","[[9.98127362e-06 1.46192170e-11 3.94560078e-11]
 [1.46192170e-11 1.39303245e-05 6.27773469e-06]
 [3.94560078e-11 6.27773469e-06 9.97973608e-06]]",[-6.20601265e-01  6.75985487e-10  1.47271839e-09],0.1528052648769656,-8.054321098960315e-13
1786949713.4298556,0.6289405983689874,-7.255765520410832e-10,-1.571781371723091e-09,"[9.98097513e-03 1.49473227e-08 0.00000000e+00 0.00000000e+00
 0.00000000e+00 3.98425552e-08 1.49473227e-08 1.40349522e-02
 0.00000000e+00 0.00000000e+00 0.00000000e+00 6.36045548e-03
 0.00000000e+00 0.00000000e+00 0.00000000e+00 0.00000000e+00
 0.00000000e+00 0.00000000e+00 0.00000000e+00 0.00000000e+00
 0.00000000e+00 0.00000000e+00 0.00000000e+00 0.00000000e+00
 0.00000000e+00 0.00000000e+00 0.00000000e+00 0.00000000e+00
 0.00000000e+00 0.00000000e+00 3.98425552e-08 6.36045548e-03
 0.00000000e+00 0.00000000e+00 0.00000000e+00 9.97932496e-03]","[[9.98097513e-06 1.49473227e-11 3.98425552e-11]
 [1.49473227e-11 1.40349522e-05 6.36045548e-06]
 [3.98425552e-11 6.36045548e-06 9.97932496e-06]]",[-6.28946876e-01  7.16195370e-10  1.54674273e-09],0.1512717678369191,-1.524474990688418e-12
1786949713.4741378,0.6380251607045409,-7.690076567518617e-10,-1.6487571308232418e-09,"[9.98067675e-03 1.53083915e-08 0.00000000e+00 0.00000000e+00
 0.00000000e+00 4.03259565e-08 1.53083915e-08 1.41503879e-02
 0.00000000e+00 0.00000000e+00 0.00000000e+00 6.45047169e-03
 0.00000000e+00 0.00000000e+00 0.00000000e+00 0.00000000e+00
 0.00000000e+00 0.00000000e+00 0.00000000e+00 0.00000000e+00
 0.00000000e+00 0.00000000e+00 0.00000000e+00 0.00000000e+00
 0.00000000e+00 0.00000000e+00 0.00000000e+00 0.00000000e+00
 0.00000000e+00 0.00000000e+00 4.03259565e-08 6.45047169e-03
 0.00000000e+00 0.00000000e+00 0.00000000e+00 9.97891225e-03]","[[9.98067675e-06 1.53083915e-11 4.03259565e-11]
 [1.53083915e-11 1.41503879e-05 6.45047169e-06]
 [4.03259565e-11 6.45047169e-06 9.97891225e-06]]",[-6.38031529e-01  7.59261634e-10  1.62304881e-09],0.1497506159532901,-3.897420580711852e-11
1786949713.532919,0.6450919164774415,-8.007031637556276e-10,-1.7013537245702537e-09,"[9.98047794e-03 1.55903228e-08 0.00000000e+00 0.00000000e+00
 0.00000000e+00 4.07501666e-08 1.55903228e-08 1.42407106e-02
 0.00000000e+00 0.00000000e+00 0.00000000e+00 6.52002194e-03
 0.00000000e+00 0.00000000e+00 0.00000000e+00 0.00000000e+00
 0.00000000e+00 0.00000000e+00 0.00000000e+00 0.00000000e+00
 0.00000000e+00 0.00000000e+00 0.00000000e+00 0.00000000e+00
 0.00000000e+00 0.00000000e+00 0.00000000e+00 0.00000000e+00
 0.00000000e+00 0.00000000e+00 4.07501666e-08 6.52002194e-03
 0.00000000e+00 0.00000000e+00 0.00000000e+00 9.97863713e-03]","[[9.98047794e-06 1.55903228e-11 4.07501666e-11]
 [1.55903228e-11 1.42407106e-05 6.52002194e-06]
 [4.07501666e-11 6.52002194e-06 9.97863713e-06]]",[-6.45098355e-01  7.90668053e-10  1.67508762e-09],0.14975061592480962,-1.4953316362920077e-12
1786949713.578843,0.6512484529599333,-8.317231509315214e-10,-1.7545862540657708e-09,"[9.98027908e-03 1.58406319e-08 0.00000000e+00 0.00000000e+00
 0.00000000e+00 4.11126816e-08 1.58406319e-08 1.43209880e-02
 0.00000000e+00 0.00000000e+00 0.00000000e+00 6.58122294e-03
 0.00000000e+00 0.00000000e+00 0.00000000e+00 0.00000000e+00
 0.00000000e+00 0.00000000e+00 0.00000000e+00 0.00000000e+00
 0.00000000e+00 0.00000000e+00 0.00000000e+00 0.00000000e+00
 0.00000000e+00 0.00000000e+00 0.00000000e+00 0.00000000e+00
 0.00000000e+00 0.00000000e+00 4.11126816e-08 6.58122294e-03
 0.00000000e+00 0.00000000e+00 0.00000000e+00 9.97835929e-03]","[[9.98027908e-06 1.58406319e-11 4.11126816e-11]
 [1.58406319e-11 1.43209880e-05 6.58122294e-06]
 [4.11126816e-11 6.58122294e-06 9.97835929e-06]]",[-6.51254953e-01  8.21429996e-10  1.72783388e-09],0.14824398285057233,-8.102893356287666e-13
1786949713.6294248,0.6590019495664079,-8.771180252307174e-10,-1.8360823972329854e-09,"[9.97998066e-03 1.61566597e-08 0.00000000e+00 0.00000000e+00
 0.00000000e+00 4.15188198e-08 1.61566597e-08 1.44223242e-02
 0.00000000e+00 0.00000000e+00 0.00000000e+00 6.65768227e-03
 0.00000000e+00 0.00000000e+00 0.00000000e+00 0.00000000e+00
 0.00000000e+00 0.00000000e+00 0.00000000e+00 0.00000000e+00
 0.00000000e+00 0.00000000e+00 0.00000000e+00 0.00000000e+00
 0.00000000e+00 0.00000000e+00 0.00000000e+00 0.00000000e+00
 0.00000000e+00 0.00000000e+00 4.15188198e-08 6.65768227e-03
 0.00000000e+00 0.00000000e+00 0.00000000e+00 9.97793686e-03]","[[9.97998066e-06 1.61566597e-11 4.15188198e-11]
 [1.61566597e-11 1.44223242e-05 6.65768227e-06]
 [4.15188198e-11 6.65768227e-06 9.97793686e-06]]",[-6.59008526e-01  8.66495188e-10  1.80874515e-09],0.14675777643952853,5.324560237163212e-12
1786949713.6717534,0.6649278905339794,-9.097415032026089e-10,-1.8915957689102925e-09,"[9.97978178e-03 1.64007572e-08 0.00000000e+00 0.00000000e+00
 0.00000000e+00 4.18400901e-08 1.64007572e-08 1.45006914e-02
 0.00000000e+00 0.00000000e+00 0.00000000e+00 6.71620110e-03
 0.00000000e+00 0.00000000e+00 0.00000000e+00 0.00000000e+00
 0.00000000e+00 0.00000000e+00 0.00000000e+00 0.00000000e+00
 0.00000000e+00 0.00000000e+00 0.00000000e+00 0.00000000e+00
 0.00000000e+00 0.00000000e+00 0.00000000e+00 0.00000000e+00
 0.00000000e+00 0.00000000e+00 4.18400901e-08 6.71620110e-03
 0.00000000e+00 0.00000000e+00 0.00000000e+00 9.97765444e-03]","[[9.97978178e-06 1.64007572e-11 4.18400901e-11]
 [1.64007572e-11 1.45006914e-05 6.71620110e-06]
 [4.18400901e-11 6.71620110e-06 9.97765444e-06]]",[-6.64934526e-01  8.98861625e-10  1.86379934e-09],0.1452879693663146,-7.004119506603956e-12
1786949713.7338476,0.6737326541602112,-9.600983304423183e-10,-1.976498520406267e-09,"[9.97948348e-03 1.67662627e-08 0.00000000e+00 0.00000000e+00
 0.00000000e+00 4.23267092e-08 1.67662627e-08 1.46182108e-02
 0.00000000e+00 0.00000000e+00 0.00000000e+00 6.80300541e-03
 0.00000000e+00 0.00000000e+00 0.00000000e+00 0.00000000e+00
 0.00000000e+00 0.00000000e+00 0.00000000e+00 0.00000000e+00
 0.00000000e+00 0.00000000e+00 0.00000000e+00 0.00000000e+00
 0.00000000e+00 0.00000000e+00 0.00000000e+00 0.00000000e+00
 0.00000000e+00 0.00000000e+00 4.23267092e-08 6.80300541e-03
 0.00000000e+00 0.00000000e+00 0.00000000e+00 9.97722806e-03]","[[9.97948348e-06 1.67662627e-11 4.23267092e-11]
 [1.67662627e-11 1.46182108e-05 6.80300541e-06]
 [4.23267092e-11 6.80300541e-06 9.97722806e-06]]",[-6.73739378e-01  9.48829362e-10  1.94800709e-09],0.14238435569958424,-7.527138634610964e-12
1786949713.7706764,0.6821244211450104,-1.0115518154595296e-09,-2.0637904718512345e-09,"[9.97918516e-03 1.71192120e-08 0.00000000e+00 0.00000000e+00
 0.00000000e+00 4.27846287e-08 1.71192120e-08 1.47317717e-02
 0.00000000e+00 0.00000000e+00 0.00000000e+00 6.88584025e-03
 0.00000000e+00 0.00000000e+00 0.00000000e+00 0.00000000e+00
 0.00000000e+00 0.00000000e+00 0.00000000e+00 0.00000000e+00
 0.00000000e+00 0.00000000e+00 0.00000000e+00 0.00000000e+00
 0.00000000e+00 0.00000000e+00 0.00000000e+00 0.00000000e+00
 0.00000000e+00 0.00000000e+00 4.27846287e-08 6.88584025e-03
 0.00000000e+00 0.00000000e+00 0.00000000e+00 9.97679754e-03]","[[9.97918516e-06 1.71192120e-11 4.27846287e-11]
 [1.71192120e-11 1.47317717e-05 6.88584025e-06]
 [4.27846287e-11 6.88584025e-06 9.97679754e-06]]",[-6.82131228e-01  9.99903007e-10  2.03463291e-09],0.14095042388188628,-1.5031378919339033e-12
1786949713.8354716,0.6848260264930953,-1.0289148660242367e-09,-2.0932406918916513e-09,"[9.97908572e-03 1.72344069e-08 0.00000000e+00 0.00000000e+00
 0.00000000e+00 4.29261398e-08 1.72344069e-08 1.47688787e-02
 0.00000000e+00 0.00000000e+00 0.00000000e+00 6.91269074e-03
 0.00000000e+00 0.00000000e+00 0.00000000e+00 0.00000000e+00
 0.00000000e+00 0.00000000e+00 0.00000000e+00 0.00000000e+00
 0.00000000e+00 0.00000000e+00 0.00000000e+00 0.00000000e+00
 0.00000000e+00 0.00000000e+00 0.00000000e+00 0.00000000e+00
 0.00000000e+00 0.00000000e+00 4.29261398e-08 6.91269074e-03
 0.00000000e+00 0.00000000e+00 0.00000000e+00 9.97665311e-03]","[[9.97908572e-06 1.72344069e-11 4.29261398e-11]
 [1.72344069e-11 1.47688787e-05 6.91269074e-06]
 [4.29261398e-11 6.91269074e-06 9.97665311e-06]]",[-6.84832860e-01  1.01714147e-09  2.06387130e-09],0.14095042388114387,-7.894726539170449e-13
1786949713.8725393,0.6960082041032721,-1.0891344492579796e-09,-2.1845143471921347e-09,"[9.97878798e-03 1.77163830e-08 0.00000000e+00 0.00000000e+00
 0.00000000e+00 4.39508689e-08 1.77163830e-08 1.49239164e-02
 0.00000000e+00 0.00000000e+00 0.00000000e+00 7.02373328e-03
 0.00000000e+00 0.00000000e+00 0.00000000e+00 0.00000000e+00
 0.00000000e+00 0.00000000e+00 0.00000000e+00 0.00000000e+00
 0.00000000e+00 0.00000000e+00 0.00000000e+00 0.00000000e+00
 0.00000000e+00 0.00000000e+00 0.00000000e+00 0.00000000e+00
 0.00000000e+00 0.00000000e+00 4.39508689e-08 7.02373328e-03
 0.00000000e+00 0.00000000e+00 0.00000000e+00 9.97622844e-03]","[[9.97878798e-06 1.77163830e-11 4.39508689e-11]
 [1.77163830e-11 1.49239164e-05 7.02373328e-06]
 [4.39508689e-11 7.02373328e-06 9.97622844e-06]]",[-6.96015149e-01  1.07683478e-09  2.15395302e-09],0.13953374998606083,3.250004432242548e-12
1786949713.9291856,0.7017246589986109,-1.1267508953222855e-09,-2.2463195747945974e-09,"[9.97858915e-03 1.79634769e-08 0.00000000e+00 0.00000000e+00
 0.00000000e+00 4.42743175e-08 1.79634769e-08 1.50029705e-02
 0.00000000e+00 0.00000000e+00 0.00000000e+00 7.07968752e-03
 0.00000000e+00 0.00000000e+00 0.00000000e+00 0.00000000e+00
 0.00000000e+00 0.00000000e+00 0.00000000e+00 0.00000000e+00
 0.00000000e+00 0.00000000e+00 0.00000000e+00 0.00000000e+00
 0.00000000e+00 0.00000000e+00 0.00000000e+00 0.00000000e+00
 0.00000000e+00 0.00000000e+00 4.42743175e-08 7.07968752e-03
 0.00000000e+00 0.00000000e+00 0.00000000e+00 9.97593614e-03]","[[9.97858915e-06 1.79634769e-11 4.42743175e-11]
 [1.79634769e-11 1.50029705e-05 7.07968752e-06]
 [4.42743175e-11 7.07968752e-06 9.97593614e-06]]",[-7.01731661e-01  1.11417775e-09  2.21528085e-09],0.13672607489987404,-6.517356099244864e-13
1786949713.9717562,0.707041841676878,-1.1643456913996854e-09,-2.3091160095134455e-09,"[9.97839029e-03 1.81984405e-08 0.00000000e+00 0.00000000e+00
 0.00000000e+00 4.45657339e-08 1.81984405e-08 1.50781855e-02
 0.00000000e+00 0.00000000e+00 0.00000000e+00 7.13251504e-03
 0.00000000e+00 0.00000000e+00 0.00000000e+00 0.00000000e+00
 0.00000000e+00 0.00000000e+00 0.00000000e+00 0.00000000e+00
 0.00000000e+00 0.00000000e+00 0.00000000e+00 0.00000000e+00
 0.00000000e+00 0.00000000e+00 0.00000000e+00 0.00000000e+00
 0.00000000e+00 0.00000000e+00 4.45657339e-08 7.13251504e-03
 0.00000000e+00 0.00000000e+00 0.00000000e+00 9.97564170e-03]","[[9.97839029e-06 1.81984405e-11 4.45657339e-11]
 [1.81984405e-11 1.50781855e-05 7.13251504e-06]
 [4.45657339e-11 7.13251504e-06 9.97564170e-06]]",[-7.07048897e-01  1.15151211e-09  2.27763675e-09],0.13672607489991653,-1.450575770611806e-12
1786949714.0209816,0.7156734009459411,-1.2239704661777463e-09,-2.4051591829277186e-09,"[9.97809210e-03 1.85834065e-08 0.00000000e+00 0.00000000e+00
 0.00000000e+00 4.50801778e-08 1.85834065e-08 1.52015185e-02
 0.00000000e+00 0.00000000e+00 0.00000000e+00 7.21828974e-03
 0.00000000e+00 0.00000000e+00 0.00000000e+00 0.00000000e+00
 0.00000000e+00 0.00000000e+00 0.00000000e+00 0.00000000e+00
 0.00000000e+00 0.00000000e+00 0.00000000e+00 0.00000000e+00
 0.00000000e+00 0.00000000e+00 0.00000000e+00 0.00000000e+00
 0.00000000e+00 0.00000000e+00 4.50801778e-08 7.21828974e-03
 0.00000000e+00 0.00000000e+00 0.00000000e+00 9.97519854e-03]","[[9.97809210e-06 1.85834065e-11 4.50801778e-11]
 [1.85834065e-11 1.52015185e-05 7.21828974e-06]
 [4.50801778e-11 7.21828974e-06 9.97519854e-06]]",[-7.15680542e-01  1.21070622e-09  2.37292852e-09],0.1367260748999914,-2.1186177812104745e-12
1786949714.0797064,0.7213680382800448,-1.264738184966185e-09,-2.470363025253164e-09,"[9.97789332e-03 1.88318946e-08 0.00000000e+00 0.00000000e+00
 0.00000000e+00 4.54267391e-08 1.88318946e-08 1.52811960e-02
 0.00000000e+00 0.00000000e+00 0.00000000e+00 7.27316152e-03
 0.00000000e+00 0.00000000e+00 0.00000000e+00 0.00000000e+00
 0.00000000e+00 0.00000000e+00 0.00000000e+00 0.00000000e+00
 0.00000000e+00 0.00000000e+00 0.00000000e+00 0.00000000e+00
 0.00000000e+00 0.00000000e+00 0.00000000e+00 0.00000000e+00
 0.00000000e+00 0.00000000e+00 4.54267391e-08 7.27316152e-03
 0.00000000e+00 0.00000000e+00 0.00000000e+00 9.97490128e-03]","[[9.97789332e-06 1.88318946e-11 4.54267391e-11]
 [1.88318946e-11 1.52811960e-05 7.27316152e-06]
 [4.54267391e-11 7.27316152e-06 9.97490128e-06]]",[-7.21375236e-01  1.25119017e-09  2.43762655e-09],0.13262079722578818,-1.2621848011207248e-12
1786949714.1209748,0.7293203608381258,-1.326160517369437e-09,-2.5701543115985714e-09,"[9.97759512e-03 1.91821771e-08 0.00000000e+00 0.00000000e+00
 0.00000000e+00 4.59087618e-08 1.91821771e-08 1.53934322e-02
 0.00000000e+00 0.00000000e+00 0.00000000e+00 7.34975606e-03
 0.00000000e+00 0.00000000e+00 0.00000000e+00 0.00000000e+00
 0.00000000e+00 0.00000000e+00 0.00000000e+00 0.00000000e+00
 0.00000000e+00 0.00000000e+00 0.00000000e+00 0.00000000e+00
 0.00000000e+00 0.00000000e+00 0.00000000e+00 0.00000000e+00
 0.00000000e+00 0.00000000e+00 4.59087618e-08 7.34975606e-03
 0.00000000e+00 0.00000000e+00 0.00000000e+00 9.97445163e-03]","[[9.97759512e-06 1.91821771e-11 4.59087618e-11]
 [1.91821771e-11 1.53934322e-05 7.34975606e-06]
 [4.59087618e-11 7.34975606e-06 9.97445163e-06]]",[-7.29327638e-01  1.31220927e-09  2.53670684e-09],0.13262079722252668,-8.210446211798228e-13
1786949714.1745348,0.7341301573298566,-1.3669394962403012e-09,-2.637851270748115e-09,"[9.97739630e-03 1.94024479e-08 0.00000000e+00 0.00000000e+00
 0.00000000e+00 4.61962978e-08 1.94024479e-08 1.54639937e-02
 0.00000000e+00 0.00000000e+00 0.00000000e+00 7.39750107e-03
 0.00000000e+00 0.00000000e+00 0.00000000e+00 0.00000000e+00
 0.00000000e+00 0.00000000e+00 0.00000000e+00 0.00000000e+00
 0.00000000e+00 0.00000000e+00 0.00000000e+00 0.00000000e+00
 0.00000000e+00 0.00000000e+00 0.00000000e+00 0.00000000e+00
 0.00000000e+00 0.00000000e+00 4.61962978e-08 7.39750107e-03
 0.00000000e+00 0.00000000e+00 0.00000000e+00 9.97414931e-03]","[[9.97739630e-06 1.94024479e-11 4.61962978e-11]
 [1.94024479e-11 1.54639937e-05 7.39750107e-06]
 [4.61962978e-11 7.39750107e-06 9.97414931e-06]]",[-7.34137482e-01  1.35273561e-09  2.60397304e-09],0.13262079722587267,-2.3137741722578653e-12
1786949714.229821,0.74202976305919,-1.4315802132099954e-09,-2.7411459768700297e-09,"[9.97709813e-03 1.97646155e-08 0.00000000e+00 0.00000000e+00
 0.00000000e+00 4.66717354e-08 1.97646155e-08 1.55800309e-02
 0.00000000e+00 0.00000000e+00 0.00000000e+00 7.47534398e-03
 0.00000000e+00 0.00000000e+00 0.00000000e+00 0.00000000e+00
 0.00000000e+00 0.00000000e+00 0.00000000e+00 0.00000000e+00
 0.00000000e+00 0.00000000e+00 0.00000000e+00 0.00000000e+00
 0.00000000e+00 0.00000000e+00 0.00000000e+00 0.00000000e+00
 0.00000000e+00 0.00000000e+00 4.66717354e-08 7.47534398e-03
 0.00000000e+00 0.00000000e+00 0.00000000e+00 9.97369392e-03]","[[9.97709813e-06 1.97646155e-11 4.66717354e-11]
 [1.97646155e-11 1.55800309e-05 7.47534398e-06]
 [4.66717354e-11 7.47534398e-06 9.97369392e-06]]",[-7.42037166e-01  1.41695644e-09  2.70655143e-09],0.13129322199274915,-1.1726730697603216e-12
1786949714.2857325,0.7498173627972505,-1.4979768471847612e-09,-2.8466091706036423e-09,"[9.97679996e-03 2.01254647e-08 0.00000000e+00 0.00000000e+00
 0.00000000e+00 4.71332113e-08 2.01254647e-08 1.56957146e-02
 0.00000000e+00 0.00000000e+00 0.00000000e+00 7.55214284e-03
 0.00000000e+00 0.00000000e+00 0.00000000e+00 0.00000000e+00
 0.00000000e+00 0.00000000e+00 0.00000000e+00 0.00000000e+00
 0.00000000e+00 0.00000000e+00 0.00000000e+00 0.00000000e+00
 0.00000000e+00 0.00000000e+00 0.00000000e+00 0.00000000e+00
 0.00000000e+00 0.00000000e+00 4.71332113e-08 7.55214284e-03
 0.00000000e+00 0.00000000e+00 0.00000000e+00 9.97323499e-03]","[[9.97679996e-06 2.01254647e-11 4.71332113e-11]
 [2.01254647e-11 1.56957146e-05 7.55214284e-06]
 [4.71332113e-11 7.55214284e-06 9.97323499e-06]]",[-7.49824844e-01  1.48293078e-09  2.81130674e-09],0.1286653428586746,4.291358934871425e-12
1786949714.3240674,0.7549982771827077,-1.5433867758769928e-09,-2.918137731455772e-09,"[9.97660120e-03 2.03691539e-08 0.00000000e+00 0.00000000e+00
 0.00000000e+00 4.74482118e-08 2.03691539e-08 1.57738523e-02
 0.00000000e+00 0.00000000e+00 0.00000000e+00 7.60357230e-03
 0.00000000e+00 0.00000000e+00 0.00000000e+00 0.00000000e+00
 0.00000000e+00 0.00000000e+00 0.00000000e+00 0.00000000e+00
 0.00000000e+00 0.00000000e+00 0.00000000e+00 0.00000000e+00
 0.00000000e+00 0.00000000e+00 0.00000000e+00 0.00000000e+00
 0.00000000e+00 0.00000000e+00 4.74482118e-08 7.60357230e-03
 0.00000000e+00 0.00000000e+00 0.00000000e+00 9.97292723e-03]","[[9.97660120e-06 2.03691539e-11 4.74482118e-11]
 [2.03691539e-11 1.57738523e-05 7.60357230e-06]
 [4.74482118e-11 7.60357230e-06 9.97292723e-06]]",[-7.55005810e-01  1.52805397e-09  2.88235436e-09],0.12866534285871922,4.849072532397969e-12
1786949714.3885806,0.760413984727057,-1.5904483897303727e-09,-2.9905273812858013e-09,"[9.97640248e-03 2.06242014e-08 0.00000000e+00 0.00000000e+00
 0.00000000e+00 4.77916378e-08 2.06242014e-08 1.58556661e-02
 0.00000000e+00 0.00000000e+00 0.00000000e+00 7.65704664e-03
 0.00000000e+00 0.00000000e+00 0.00000000e+00 0.00000000e+00
 0.00000000e+00 0.00000000e+00 0.00000000e+00 0.00000000e+00
 0.00000000e+00 0.00000000e+00 0.00000000e+00 0.00000000e+00
 0.00000000e+00 0.00000000e+00 0.00000000e+00 0.00000000e+00
 0.00000000e+00 0.00000000e+00 4.77916378e-08 7.65704664e-03
 0.00000000e+00 0.00000000e+00 0.00000000e+00 9.97261850e-03]","[[9.97640248e-06 2.06242014e-11 4.77916378e-11]
 [2.06242014e-11 1.58556661e-05 7.65704664e-06]
 [4.77916378e-11 7.65704664e-06 9.97261850e-06]]",[-7.60421571e-01  1.57481289e-09  2.95422709e-09],0.12737214124694263,-5.617208087560499e-12
1786949714.4219272,0.7651644537470903,-1.636464241950138e-09,-3.063887366039353e-09,"[9.97620369e-03 2.08472225e-08 0.00000000e+00 0.00000000e+00
 0.00000000e+00 4.80608599e-08 2.08472225e-08 1.59271606e-02
 0.00000000e+00 0.00000000e+00 0.00000000e+00 7.70346989e-03
 0.00000000e+00 0.00000000e+00 0.00000000e+00 0.00000000e+00
 0.00000000e+00 0.00000000e+00 0.00000000e+00 0.00000000e+00
 0.00000000e+00 0.00000000e+00 0.00000000e+00 0.00000000e+00
 0.00000000e+00 0.00000000e+00 0.00000000e+00 0.00000000e+00
 0.00000000e+00 0.00000000e+00 4.80608599e-08 7.70346989e-03
 0.00000000e+00 0.00000000e+00 0.00000000e+00 9.97230674e-03]","[[9.97620369e-06 2.08472225e-11 4.80608599e-11]
 [2.08472225e-11 1.59271606e-05 7.70346989e-06]
 [4.80608599e-11 7.70346989e-06 9.97230674e-06]]",[-7.65172087e-01  1.62056166e-09  3.02715542e-09],0.1260854878176563,-5.3790305543088834e-12
1786949714.4754775,0.7736558977663636,-1.7115909337212094e-09,-3.176557683559622e-09,"[9.97590583e-03 2.12527556e-08 0.00000000e+00 0.00000000e+00
 0.00000000e+00 4.87898367e-08 2.12527556e-08 1.60570891e-02
 0.00000000e+00 0.00000000e+00 0.00000000e+00 7.78711747e-03
 0.00000000e+00 0.00000000e+00 0.00000000e+00 0.00000000e+00
 0.00000000e+00 0.00000000e+00 0.00000000e+00 0.00000000e+00
 0.00000000e+00 0.00000000e+00 0.00000000e+00 0.00000000e+00
 0.00000000e+00 0.00000000e+00 0.00000000e+00 0.00000000e+00
 0.00000000e+00 0.00000000e+00 4.87898367e-08 7.78711747e-03
 0.00000000e+00 0.00000000e+00 0.00000000e+00 9.97184237e-03]","[[9.97590583e-06 2.12527556e-11 4.87898367e-11]
 [2.12527556e-11 1.60570891e-05 7.78711747e-06]
 [4.87898367e-11 7.78711747e-06 9.97184237e-06]]",[-7.73663616e-01  1.69520011e-09  3.13885540e-09],0.12480723365168456,-1.0505485370515544e-12
1786949714.5247269,0.7802822866067007,-1.7828975625254316e-09,-3.290834271751919e-09,"[9.97560765e-03 2.15710374e-08 0.00000000e+00 0.00000000e+00
 0.00000000e+00 4.91564610e-08 2.15710374e-08 1.61587707e-02
 0.00000000e+00 0.00000000e+00 0.00000000e+00 7.85195188e-03
 0.00000000e+00 0.00000000e+00 0.00000000e+00 0.00000000e+00
 0.00000000e+00 0.00000000e+00 0.00000000e+00 0.00000000e+00
 0.00000000e+00 0.00000000e+00 0.00000000e+00 0.00000000e+00
 0.00000000e+00 0.00000000e+00 0.00000000e+00 0.00000000e+00
 0.00000000e+00 0.00000000e+00 4.91564610e-08 7.85195188e-03
 0.00000000e+00 0.00000000e+00 0.00000000e+00 9.97136772e-03]","[[9.97560765e-06 2.15710374e-11 4.91564610e-11]
 [2.15710374e-11 1.61587707e-05 7.85195188e-06]
 [4.91564610e-11 7.85195188e-06 9.97136772e-06]]",[-7.80290070e-01  1.76611997e-09  3.25252447e-09],0.1235463787735066,-1.0437831154952448e-12
1786949714.5715382,0.7854757412384918,-1.8341569274295848e-09,-3.3682696631842646e-09,"[9.97540896e-03 2.18231765e-08 0.00000000e+00 0.00000000e+00
 0.00000000e+00 4.94972328e-08 2.18231765e-08 1.62393660e-02
 0.00000000e+00 0.00000000e+00 0.00000000e+00 7.90295848e-03
 0.00000000e+00 0.00000000e+00 0.00000000e+00 0.00000000e+00
 0.00000000e+00 0.00000000e+00 0.00000000e+00 0.00000000e+00
 0.00000000e+00 0.00000000e+00 0.00000000e+00 0.00000000e+00
 0.00000000e+00 0.00000000e+00 0.00000000e+00 0.00000000e+00
 0.00000000e+00 0.00000000e+00 4.94972328e-08 7.90295848e-03
 0.00000000e+00 0.00000000e+00 0.00000000e+00 9.97105133e-03]","[[9.97540896e-06 2.18231765e-11 4.94972328e-11]
 [2.18231765e-11 1.62393660e-05 7.90295848e-06]
 [4.94972328e-11 7.90295848e-06 9.97105133e-06]]",[-7.85483577e-01  1.81707100e-09  3.32943806e-09],0.12230586286659396,-9.965986369486757e-13
1786949714.626759,0.7924889402860933,-1.910245119381299e-09,-3.4861709075073577e-09,"[9.97511086e-03 2.21686484e-08 0.00000000e+00 0.00000000e+00
 0.00000000e+00 4.99203472e-08 2.21686484e-08 1.63497340e-02
 0.00000000e+00 0.00000000e+00 0.00000000e+00 7.97227098e-03
 0.00000000e+00 0.00000000e+00 0.00000000e+00 0.00000000e+00
 0.00000000e+00 0.00000000e+00 0.00000000e+00 0.00000000e+00
 0.00000000e+00 0.00000000e+00 0.00000000e+00 0.00000000e+00
 0.00000000e+00 0.00000000e+00 0.00000000e+00 0.00000000e+00
 0.00000000e+00 0.00000000e+00 4.99203472e-08 7.97227098e-03
 0.00000000e+00 0.00000000e+00 0.00000000e+00 9.97057212e-03]","[[9.97511086e-06 2.21686484e-11 4.99203472e-11]
 [2.21686484e-11 1.63497340e-05 7.97227098e-06]
 [4.99203472e-11 7.97227098e-06 9.97057212e-06]]",[-7.92496846e-01  1.89273496e-09  3.44665851e-09],0.12107970294807274,-4.597017211338539e-15
1786949714.6708374,0.7974802316921242,-1.963281154155756e-09,-3.5660341346499536e-09,"[9.97491217e-03 2.24158790e-08 0.00000000e+00 0.00000000e+00
 0.00000000e+00 5.02449842e-08 2.24158790e-08 1.64287343e-02
 0.00000000e+00 0.00000000e+00 0.00000000e+00 8.02151207e-03
 0.00000000e+00 0.00000000e+00 0.00000000e+00 0.00000000e+00
 0.00000000e+00 0.00000000e+00 0.00000000e+00 0.00000000e+00
 0.00000000e+00 0.00000000e+00 0.00000000e+00 0.00000000e+00
 0.00000000e+00 0.00000000e+00 0.00000000e+00 0.00000000e+00
 0.00000000e+00 0.00000000e+00 5.02449842e-08 8.02151207e-03
 0.00000000e+00 0.00000000e+00 0.00000000e+00 9.97025163e-03]","[[9.97491217e-06 2.24158790e-11 5.02449842e-11]
 [2.24158790e-11 1.64287343e-05 8.02151207e-06]
 [5.02449842e-11 8.02151207e-06 9.97025163e-06]]",[-7.97488187e-01  1.94546500e-09  3.52601504e-09],0.12107970294815026,-9.735268147181841e-13
1786949714.7245317,0.8047301073821372,-2.043874047341087e-09,-3.687902871973847e-09,"[9.97461414e-03 2.27784110e-08 0.00000000e+00 0.00000000e+00
 0.00000000e+00 5.07150700e-08 2.27784110e-08 1.65445131e-02
 0.00000000e+00 0.00000000e+00 0.00000000e+00 8.09312875e-03
 0.00000000e+00 0.00000000e+00 0.00000000e+00 0.00000000e+00
 0.00000000e+00 0.00000000e+00 0.00000000e+00 0.00000000e+00
 0.00000000e+00 0.00000000e+00 0.00000000e+00 0.00000000e+00
 0.00000000e+00 0.00000000e+00 0.00000000e+00 0.00000000e+00
 0.00000000e+00 0.00000000e+00 5.07150700e-08 8.09312875e-03
 0.00000000e+00 0.00000000e+00 0.00000000e+00 9.96976762e-03]","[[9.97461414e-06 2.27784110e-11 5.07150700e-11]
 [2.27784110e-11 1.65445131e-05 8.09312875e-06]
 [5.07150700e-11 8.09312875e-06 9.96976762e-06]]",[-8.04738134e-01  2.02560642e-09  3.64714348e-09],0.11986277511906514,-9.539244394396462e-13
1786949714.7718062,0.8118397298836526,-2.1261753925513887e-09,-3.811902349326601e-09,"[9.97431612e-03 2.31367501e-08 0.00000000e+00 0.00000000e+00
 0.00000000e+00 5.11732691e-08 2.31367501e-08 1.66589269e-02
 0.00000000e+00 0.00000000e+00 0.00000000e+00 8.16327545e-03
 0.00000000e+00 0.00000000e+00 0.00000000e+00 0.00000000e+00
 0.00000000e+00 0.00000000e+00 0.00000000e+00 0.00000000e+00
 0.00000000e+00 0.00000000e+00 0.00000000e+00 0.00000000e+00
 0.00000000e+00 0.00000000e+00 0.00000000e+00 0.00000000e+00
 0.00000000e+00 0.00000000e+00 5.11732691e-08 8.16327545e-03
 0.00000000e+00 0.00000000e+00 0.00000000e+00 9.96928006e-03]","[[9.97441546e-06 2.30183279e-11 5.10244075e-11]
 [2.30183279e-11 1.66211246e-05 8.14016686e-06]
 [5.10244075e-11 8.14016686e-06 9.96944304e-06]]",[-8.09511404e-01  2.08004957e-09  3.72907483e-09],0.11865806272873447,-7.724723638524722e-13
1786949714.8221562,0.8169572664977822,-2.1837699468888593e-09,-3.895851641289028e-09,"[9.97411751e-03 2.33947484e-08 0.00000000e+00 0.00000000e+00
 0.00000000e+00 5.15372172e-08 2.33947484e-08 1.67412945e-02
 0.00000000e+00 0.00000000e+00 0.00000000e+00 8.21340010e-03
 0.00000000e+00 0.00000000e+00 0.00000000e+00 0.00000000e+00
 0.00000000e+00 0.00000000e+00 0.00000000e+00 0.00000000e+00
 0.00000000e+00 0.00000000e+00 0.00000000e+00 0.00000000e+00
 0.00000000e+00 0.00000000e+00 0.00000000e+00 0.00000000e+00
 0.00000000e+00 0.00000000e+00 5.15372172e-08 8.21340010e-03
 0.00000000e+00 0.00000000e+00 0.00000000e+00 9.96895427e-03]","[[9.97411751e-06 2.33947484e-11 5.15372172e-11]
 [2.33947484e-11 1.67412945e-05 8.21340010e-06]
 [5.15372172e-11 8.21340010e-06 9.96895427e-06]]",[-8.16965415e-01  2.16472514e-09  3.85380350e-09],0.11746425382708264,-8.818466790128099e-13
1786949714.8784707,0.8217814466588074,-2.2412776234203175e-09,-3.9807352969489784e-09,"[9.97391888e-03 2.36425384e-08 0.00000000e+00 0.00000000e+00
 0.00000000e+00 5.18813039e-08 2.36425384e-08 1.68203412e-02
 0.00000000e+00 0.00000000e+00 0.00000000e+00 8.26121332e-03
 0.00000000e+00 0.00000000e+00 0.00000000e+00 0.00000000e+00
 0.00000000e+00 0.00000000e+00 0.00000000e+00 0.00000000e+00
 0.00000000e+00 0.00000000e+00 0.00000000e+00 0.00000000e+00
 0.00000000e+00 0.00000000e+00 0.00000000e+00 0.00000000e+00
 0.00000000e+00 0.00000000e+00 5.18813039e-08 8.26121332e-03
 0.00000000e+00 0.00000000e+00 0.00000000e+00 9.96862654e-03]","[[9.97391888e-06 2.36425384e-11 5.18813039e-11]
 [2.36425384e-11 1.68203412e-05 8.26121332e-06]
 [5.18813039e-11 8.26121332e-06 9.96862654e-06]]",[-8.21789643e-01  2.22191834e-09  3.93815736e-09],0.11746425382663712,4.687049359741735e-12
1786949714.9224863,0.8282528886270634,-2.3263301090576544e-09,-4.109834694787651e-09,"[9.97362084e-03 2.39739587e-08 0.00000000e+00 0.00000000e+00
 0.00000000e+00 5.22753998e-08 2.39739587e-08 1.69259431e-02
 0.00000000e+00 0.00000000e+00 0.00000000e+00 8.32465115e-03
 0.00000000e+00 0.00000000e+00 0.00000000e+00 0.00000000e+00
 0.00000000e+00 0.00000000e+00 0.00000000e+00 0.00000000e+00
 0.00000000e+00 0.00000000e+00 0.00000000e+00 0.00000000e+00
 0.00000000e+00 0.00000000e+00 0.00000000e+00 0.00000000e+00
 0.00000000e+00 0.00000000e+00 5.22753998e-08 8.32465115e-03
 0.00000000e+00 0.00000000e+00 0.00000000e+00 9.96812974e-03]","[[9.97362084e-06 2.39739587e-11 5.22753998e-11]
 [2.39739587e-11 1.69259431e-05 8.32465115e-06]
 [5.22753998e-11 8.32465115e-06 9.96812974e-06]]",[-8.28261149e-01  2.30654630e-09  4.06659684e-09],0.11628543295757005,1.3869114190434573e-13
1786949714.975332,0.8351218623845315,-2.4152299517572837e-09,-4.2410444045515305e-09,"[9.97332287e-03 2.43273766e-08 0.00000000e+00 0.00000000e+00
 0.00000000e+00 5.27279075e-08 2.43273766e-08 1.70385292e-02
 0.00000000e+00 0.00000000e+00 0.00000000e+00 8.39175037e-03
 0.00000000e+00 0.00000000e+00 0.00000000e+00 0.00000000e+00
 0.00000000e+00 0.00000000e+00 0.00000000e+00 0.00000000e+00
 0.00000000e+00 0.00000000e+00 0.00000000e+00 0.00000000e+00
 0.00000000e+00 0.00000000e+00 0.00000000e+00 0.00000000e+00
 0.00000000e+00 0.00000000e+00 5.27279075e-08 8.39175037e-03
 0.00000000e+00 0.00000000e+00 0.00000000e+00 9.96763076e-03]","[[9.97332287e-06 2.43273766e-11 5.27279075e-11]
 [2.43273766e-11 1.70385292e-05 8.39175037e-06]
 [5.27279075e-11 8.39175037e-06 9.96763076e-06]]",[-8.35130191e-01  2.39498945e-09  4.19707158e-09],0.11395441960457531,-8.235599702199892e-13
1786949715.0208156,0.8397809363028417,-2.4761182383299293e-09,-4.329803182656633e-09,"[9.97312426e-03 2.45710002e-08 0.00000000e+00 0.00000000e+00
 0.00000000e+00 5.30503111e-08 2.45710002e-08 1.71160986e-02
 0.00000000e+00 0.00000000e+00 0.00000000e+00 8.43766598e-03
 0.00000000e+00 0.00000000e+00 0.00000000e+00 0.00000000e+00
 0.00000000e+00 0.00000000e+00 0.00000000e+00 0.00000000e+00
 0.00000000e+00 0.00000000e+00 0.00000000e+00 0.00000000e+00
 0.00000000e+00 0.00000000e+00 0.00000000e+00 0.00000000e+00
 0.00000000e+00 0.00000000e+00 5.30503111e-08 8.43766598e-03
 0.00000000e+00 0.00000000e+00 0.00000000e+00 9.96729665e-03]","[[9.97312426e-06 2.45710002e-11 5.30503111e-11]
 [2.45710002e-11 1.71160986e-05 8.43766598e-06]
 [5.30503111e-11 8.43766598e-06 9.96729665e-06]]",[-8.39789312e-01  2.45556196e-09  4.28531566e-09],0.11281137888848197,-7.748142405450409e-13
1786949715.088843,0.8444361537660644,-2.538048793770572e-09,-4.419659749288485e-09,"[9.97292566e-03 2.48147057e-08 0.00000000e+00 0.00000000e+00
 0.00000000e+00 5.33783810e-08 2.48147057e-08 1.71936286e-02
 0.00000000e+00 0.00000000e+00 0.00000000e+00 8.48330614e-03
 0.00000000e+00 0.00000000e+00 0.00000000e+00 0.00000000e+00
 0.00000000e+00 0.00000000e+00 0.00000000e+00 0.00000000e+00
 0.00000000e+00 0.00000000e+00 0.00000000e+00 0.00000000e+00
 0.00000000e+00 0.00000000e+00 0.00000000e+00 0.00000000e+00
 0.00000000e+00 0.00000000e+00 5.33783810e-08 8.48330614e-03
 0.00000000e+00 0.00000000e+00 0.00000000e+00 9.96696107e-03]","[[9.97292566e-06 2.48147057e-11 5.33783810e-11]
 [2.48147057e-11 1.71936286e-05 8.48330614e-06]
 [5.33783810e-11 8.48330614e-06 9.96696107e-06]]",[-8.44444575e-01  2.51717454e-09  4.37464953e-09],0.11281137888848197,-7.712580574192884e-13
1786949715.1242847,0.8509967362492512,-2.609736612298532e-09,-4.511564455356165e-09,"[9.97272748e-03 2.51650275e-08 0.00000000e+00 0.00000000e+00
 0.00000000e+00 5.41339250e-08 2.51650275e-08 1.73049138e-02
 0.00000000e+00 0.00000000e+00 0.00000000e+00 8.54839842e-03
 0.00000000e+00 0.00000000e+00 0.00000000e+00 0.00000000e+00
 0.00000000e+00 0.00000000e+00 0.00000000e+00 0.00000000e+00
 0.00000000e+00 0.00000000e+00 0.00000000e+00 0.00000000e+00
 0.00000000e+00 0.00000000e+00 0.00000000e+00 0.00000000e+00
 0.00000000e+00 0.00000000e+00 5.41339250e-08 8.54839842e-03
 0.00000000e+00 0.00000000e+00 0.00000000e+00 9.96663196e-03]","[[9.97272748e-06 2.51650275e-11 5.41339250e-11]
 [2.51650275e-11 1.73049138e-05 8.54839842e-06]
 [5.41339250e-11 8.54839842e-06 9.96663196e-06]]",[-8.51005223e-01  2.58840401e-09  4.46556303e-09],0.11281137888848991,-6.720318745934151e-13
1786949715.1727636,0.8576608457770266,-2.7051839114095912e-09,-4.651286911183661e-09,"[9.97242957e-03 2.55227520e-08 0.00000000e+00 0.00000000e+00
 0.00000000e+00 5.45893916e-08 2.55227520e-08 1.74178790e-02
 0.00000000e+00 0.00000000e+00 0.00000000e+00 8.61394820e-03
 0.00000000e+00 0.00000000e+00 0.00000000e+00 0.00000000e+00
 0.00000000e+00 0.00000000e+00 0.00000000e+00 0.00000000e+00
 0.00000000e+00 0.00000000e+00 0.00000000e+00 0.00000000e+00
 0.00000000e+00 0.00000000e+00 0.00000000e+00 0.00000000e+00
 0.00000000e+00 0.00000000e+00 5.45893916e-08 8.61394820e-03
 0.00000000e+00 0.00000000e+00 0.00000000e+00 9.96612171e-03]","[[9.97242957e-06 2.55227520e-11 5.45893916e-11]
 [2.55227520e-11 1.74178790e-05 8.61394820e-06]
 [5.45893916e-11 8.61394820e-06 9.96612171e-06]]",[-8.57669399e-01  2.68338023e-09  4.60453631e-09],0.1116792644570839,-7.376911581591372e-13
1786949715.233064,0.8627827144481528,-2.773357470984947e-09,-4.745724258015116e-09,"[9.97223108e-03 2.57999645e-08 0.00000000e+00 0.00000000e+00
 0.00000000e+00 5.50033513e-08 2.57999645e-08 1.75054055e-02
 0.00000000e+00 0.00000000e+00 0.00000000e+00 8.66439625e-03
 0.00000000e+00 0.00000000e+00 0.00000000e+00 0.00000000e+00
 0.00000000e+00 0.00000000e+00 0.00000000e+00 0.00000000e+00
 0.00000000e+00 0.00000000e+00 0.00000000e+00 0.00000000e+00
 0.00000000e+00 0.00000000e+00 0.00000000e+00 0.00000000e+00
 0.00000000e+00 0.00000000e+00 5.50033513e-08 8.66439625e-03
 0.00000000e+00 0.00000000e+00 0.00000000e+00 9.96578187e-03]","[[9.97223108e-06 2.57999645e-11 5.50033513e-11]
 [2.57999645e-11 1.75054055e-05 8.66439625e-06]
 [5.50033513e-11 8.66439625e-06 9.96578187e-06]]",[-8.62791318e-01  2.75118635e-09  4.69833861e-09],0.11055794335477664,-7.1878267227099e-13
1786949715.271036,0.8687136323659956,-2.869333608423633e-09,-4.889702864829815e-09,"[9.97193319e-03 2.61232286e-08 0.00000000e+00 0.00000000e+00
 0.00000000e+00 5.54542906e-08 2.61232286e-08 1.76072322e-02
 0.00000000e+00 0.00000000e+00 0.00000000e+00 8.72270058e-03
 0.00000000e+00 0.00000000e+00 0.00000000e+00 0.00000000e+00
 0.00000000e+00 0.00000000e+00 0.00000000e+00 0.00000000e+00
 0.00000000e+00 0.00000000e+00 0.00000000e+00 0.00000000e+00
 0.00000000e+00 0.00000000e+00 0.00000000e+00 0.00000000e+00
 0.00000000e+00 0.00000000e+00 5.54542906e-08 8.72270058e-03
 0.00000000e+00 0.00000000e+00 0.00000000e+00 9.96526559e-03]","[[9.97193319e-06 2.61232286e-11 5.54542906e-11]
 [2.61232286e-11 1.76072322e-05 8.72270058e-06]
 [5.54542906e-11 8.72270058e-06 9.96526559e-06]]",[-8.68722295e-01  2.84673213e-09  4.84160179e-09],0.10944843929736124,-6.871239688344133e-13
1786949715.325497,0.8733312742600984,-2.9378321660782907e-09,-4.986772772497261e-09,"[9.97173466e-03 2.63773816e-08 0.00000000e+00 0.00000000e+00
 0.00000000e+00 5.58059408e-08 2.63773816e-08 1.76871824e-02
 0.00000000e+00 0.00000000e+00 0.00000000e+00 8.76820947e-03
 0.00000000e+00 0.00000000e+00 0.00000000e+00 0.00000000e+00
 0.00000000e+00 0.00000000e+00 0.00000000e+00 0.00000000e+00
 0.00000000e+00 0.00000000e+00 0.00000000e+00 0.00000000e+00
 0.00000000e+00 0.00000000e+00 0.00000000e+00 0.00000000e+00
 0.00000000e+00 0.00000000e+00 5.58059408e-08 8.76820947e-03
 0.00000000e+00 0.00000000e+00 0.00000000e+00 9.96492075e-03]","[[9.97183398e-06 2.62704373e-11 5.56834027e-11]
 [2.62704373e-11 1.76535713e-05 8.74911010e-06]
 [5.56834027e-11 8.74911010e-06 9.96509442e-06]]",[-8.71388038e-01  2.88241066e-09  4.88967933e-09],0.10944843929778665,4.633793349029247e-12
1786949715.3708444,0.8781516286483236,-3.0084864421966646e-09,-5.084896059770472e-09,"[9.97153617e-03 2.66427851e-08 0.00000000e+00 0.00000000e+00
 0.00000000e+00 5.61869330e-08 2.66427851e-08 1.77706118e-02
 0.00000000e+00 0.00000000e+00 0.00000000e+00 8.81544604e-03
 0.00000000e+00 0.00000000e+00 0.00000000e+00 0.00000000e+00
 0.00000000e+00 0.00000000e+00 0.00000000e+00 0.00000000e+00
 0.00000000e+00 0.00000000e+00 0.00000000e+00 0.00000000e+00
 0.00000000e+00 0.00000000e+00 0.00000000e+00 0.00000000e+00
 0.00000000e+00 0.00000000e+00 5.61869330e-08 8.81544604e-03
 0.00000000e+00 0.00000000e+00 0.00000000e+00 9.96457499e-03]","[[9.97153617e-06 2.66427851e-11 5.61869330e-11]
 [2.66427851e-11 1.77706118e-05 8.81544604e-06]
 [5.61869330e-11 8.81544604e-06 9.96457499e-06]]",[-8.78160385e-01  2.98518724e-09  5.03563147e-09],0.10835007164017757,-6.724655554624093e-13
1786949715.4215808,0.883944448089912,-3.1091256324673736e-09,-5.233972810714249e-09,"[9.97123826e-03 2.69659356e-08 0.00000000e+00 0.00000000e+00
 0.00000000e+00 5.65732819e-08 2.69659356e-08 1.78720331e-02
 0.00000000e+00 0.00000000e+00 0.00000000e+00 8.87251207e-03
 0.00000000e+00 0.00000000e+00 0.00000000e+00 0.00000000e+00
 0.00000000e+00 0.00000000e+00 0.00000000e+00 0.00000000e+00
 0.00000000e+00 0.00000000e+00 0.00000000e+00 0.00000000e+00
 0.00000000e+00 0.00000000e+00 0.00000000e+00 0.00000000e+00
 0.00000000e+00 0.00000000e+00 5.65732819e-08 8.87251207e-03
 0.00000000e+00 0.00000000e+00 0.00000000e+00 9.96404994e-03]","[[9.97123826e-06 2.69659356e-11 5.65732819e-11]
 [2.69659356e-11 1.78720331e-05 8.87251207e-06]
 [5.65732819e-11 8.87251207e-06 9.96404994e-06]]",[-8.83953262e-01  3.08539014e-09  5.18404386e-09],0.10726492339260126,-2.7390589796283393e-11
1786949715.4742398,0.888271176083574,-3.179960819981115e-09,-5.3348960804555645e-09,"[9.97103977e-03 2.72076005e-08 0.00000000e+00 0.00000000e+00
 0.00000000e+00 5.69345190e-08 2.72076005e-08 1.79478248e-02
 0.00000000e+00 0.00000000e+00 0.00000000e+00 8.91491977e-03
 0.00000000e+00 0.00000000e+00 0.00000000e+00 0.00000000e+00
 0.00000000e+00 0.00000000e+00 0.00000000e+00 0.00000000e+00
 0.00000000e+00 0.00000000e+00 0.00000000e+00 0.00000000e+00
 0.00000000e+00 0.00000000e+00 0.00000000e+00 0.00000000e+00
 0.00000000e+00 0.00000000e+00 5.69345190e-08 8.91491977e-03
 0.00000000e+00 0.00000000e+00 0.00000000e+00 9.96370004e-03]","[[9.97103977e-06 2.72076005e-11 5.69345190e-11]
 [2.72076005e-11 1.79478248e-05 8.91491977e-06]
 [5.69345190e-11 8.91491977e-06 9.96370004e-06]]",[-8.88280033e-01  3.15589660e-09  5.28440314e-09],0.10726492337228405,-6.540774866170551e-13
1786949715.5216796,0.895097617555583,-3.2901221542057073e-09,-5.48839151903735e-09,"[9.97074202e-03 2.75935726e-08 0.00000000e+00 0.00000000e+00
 0.00000000e+00 5.74590044e-08 2.75935726e-08 1.80686652e-02
 0.00000000e+00 0.00000000e+00 0.00000000e+00 8.98211681e-03
 0.00000000e+00 0.00000000e+00 0.00000000e+00 0.00000000e+00
 0.00000000e+00 0.00000000e+00 0.00000000e+00 0.00000000e+00
 0.00000000e+00 0.00000000e+00 0.00000000e+00 0.00000000e+00
 0.00000000e+00 0.00000000e+00 0.00000000e+00 0.00000000e+00
 0.00000000e+00 0.00000000e+00 5.74590044e-08 8.98211681e-03
 0.00000000e+00 0.00000000e+00 0.00000000e+00 9.96317208e-03]","[[9.97084131e-06 2.74800323e-11 5.73232341e-11]
 [2.74800323e-11 1.80331559e-05 8.96242697e-06]
 [5.73232341e-11 8.96242697e-06 9.96334924e-06]]",[-8.93109872e-01  3.23019038e-09  5.38585976e-09],0.10726492337198555,-4.385207474921771e-12
1786949715.5781257,0.8993205747075773,-3.363174822737111e-09,-5.591954455042014e-09,"[9.97054350e-03 2.78332048e-08 0.00000000e+00 0.00000000e+00
 0.00000000e+00 5.77706145e-08 2.78332048e-08 1.81436068e-02
 0.00000000e+00 0.00000000e+00 0.00000000e+00 9.02353088e-03
 0.00000000e+00 0.00000000e+00 0.00000000e+00 0.00000000e+00
 0.00000000e+00 0.00000000e+00 0.00000000e+00 0.00000000e+00
 0.00000000e+00 0.00000000e+00 0.00000000e+00 0.00000000e+00
 0.00000000e+00 0.00000000e+00 0.00000000e+00 0.00000000e+00
 0.00000000e+00 0.00000000e+00 5.77706145e-08 9.02353088e-03
 0.00000000e+00 0.00000000e+00 0.00000000e+00 9.96281752e-03]","[[9.97054350e-06 2.78332048e-11 5.77706145e-11]
 [2.78332048e-11 1.81436068e-05 9.02353088e-06]
 [5.77706145e-11 9.02353088e-06 9.96281752e-06]]",[-8.99329542e-01  3.33825416e-09  5.54008484e-09],0.10511526904035623,-6.008214759045671e-13
1786949715.6244447,0.9053581507988454,-3.473123211334644e-09,-5.749218434658587e-09,"[9.97024571e-03 2.81781204e-08 0.00000000e+00 0.00000000e+00
 0.00000000e+00 5.82121505e-08 2.81781204e-08 1.82513356e-02
 0.00000000e+00 0.00000000e+00 0.00000000e+00 9.08272300e-03
 0.00000000e+00 0.00000000e+00 0.00000000e+00 0.00000000e+00
 0.00000000e+00 0.00000000e+00 0.00000000e+00 0.00000000e+00
 0.00000000e+00 0.00000000e+00 0.00000000e+00 0.00000000e+00
 0.00000000e+00 0.00000000e+00 0.00000000e+00 0.00000000e+00
 0.00000000e+00 0.00000000e+00 5.82121505e-08 9.08272300e-03
 0.00000000e+00 0.00000000e+00 0.00000000e+00 9.96228234e-03]","[[9.97024571e-06 2.81781204e-11 5.82121505e-11]
 [2.81781204e-11 1.82513356e-05 9.08272300e-06]
 [5.82121505e-11 9.08272300e-06 9.96228234e-06]]",[-9.05367178e-01  3.44772633e-09  5.69660319e-09],0.10511526904035623,-6.008214759045671e-13
1786949715.6798196,0.9099461619511084,-3.5510627002217125e-09,-5.855266493881572e-09,"[9.97004727e-03 2.84426599e-08 0.00000000e+00 0.00000000e+00
 0.00000000e+00 5.85862487e-08 2.84426599e-08 1.83339041e-02
 0.00000000e+00 0.00000000e+00 0.00000000e+00 9.12783431e-03
 0.00000000e+00 0.00000000e+00 0.00000000e+00 0.00000000e+00
 0.00000000e+00 0.00000000e+00 0.00000000e+00 0.00000000e+00
 0.00000000e+00 0.00000000e+00 0.00000000e+00 0.00000000e+00
 0.00000000e+00 0.00000000e+00 0.00000000e+00 0.00000000e+00
 0.00000000e+00 0.00000000e+00 5.85862487e-08 9.12783431e-03
 0.00000000e+00 0.00000000e+00 0.00000000e+00 9.96192533e-03]","[[9.97004727e-06 2.84426599e-11 5.85862487e-11]
 [2.84426599e-11 1.83339041e-05 9.12783431e-06]
 [5.85862487e-11 9.12783431e-06 9.96192533e-06]]",[-9.09955234e-01  3.52529875e-09  5.80204551e-09],0.10406037721625161,-5.926682755674761e-13
1786949715.7212498,0.9162547424846424,-3.6667917512810654e-09,-6.016376730144657e-09,"[9.96974954e-03 2.88084680e-08 0.00000000e+00 0.00000000e+00
 0.00000000e+00 5.90655902e-08 2.88084680e-08 1.84479021e-02
 0.00000000e+00 0.00000000e+00 0.00000000e+00 9.18973932e-03
 0.00000000e+00 0.00000000e+00 0.00000000e+00 0.00000000e+00
 0.00000000e+00 0.00000000e+00 0.00000000e+00 0.00000000e+00
 0.00000000e+00 0.00000000e+00 0.00000000e+00 0.00000000e+00
 0.00000000e+00 0.00000000e+00 0.00000000e+00 0.00000000e+00
 0.00000000e+00 0.00000000e+00 5.90655902e-08 9.18973932e-03
 0.00000000e+00 0.00000000e+00 0.00000000e+00 9.96138534e-03]","[[9.96974954e-06 2.88084680e-11 5.90655902e-11]
 [2.88084680e-11 1.84479021e-05 9.18973932e-06]
 [5.90655902e-11 9.18973932e-06 9.96138534e-06]]",[-9.16263877e-01  3.64051754e-09  5.96234973e-09],0.10301608132004236,-8.993673861201756e-13
1786949715.771277,0.921876144625197,-3.780810606067777e-09,-6.179745160039829e-09,"[9.96945174e-03 2.91356165e-08 0.00000000e+00 0.00000000e+00
 0.00000000e+00 5.94511371e-08 2.91356165e-08 1.85497091e-02
 0.00000000e+00 0.00000000e+00 0.00000000e+00 9.24465650e-03
 0.00000000e+00 0.00000000e+00 0.00000000e+00 0.00000000e+00
 0.00000000e+00 0.00000000e+00 0.00000000e+00 0.00000000e+00
 0.00000000e+00 0.00000000e+00 0.00000000e+00 0.00000000e+00
 0.00000000e+00 0.00000000e+00 0.00000000e+00 0.00000000e+00
 0.00000000e+00 0.00000000e+00 5.94511371e-08 9.24465650e-03
 0.00000000e+00 0.00000000e+00 0.00000000e+00 9.96084029e-03]","[[9.96945174e-06 2.91356165e-11 5.94511371e-11]
 [2.91356165e-11 1.85497091e-05 9.24465650e-06]
 [5.94511371e-11 9.24465650e-06 9.96084029e-06]]",[-9.21885335e-01  3.75407717e-09  6.12503381e-09],0.1019822654711676,3.987435381880289e-12
1786949715.8429093,0.9265274375742749,-3.863832869647957e-09,-6.290225229577118e-09,"[9.96925336e-03 2.94083306e-08 0.00000000e+00 0.00000000e+00
 0.00000000e+00 5.98587630e-08 2.94083306e-08 1.86345283e-02
 0.00000000e+00 0.00000000e+00 0.00000000e+00 9.29017292e-03
 0.00000000e+00 0.00000000e+00 0.00000000e+00 0.00000000e+00
 0.00000000e+00 0.00000000e+00 0.00000000e+00 0.00000000e+00
 0.00000000e+00 0.00000000e+00 0.00000000e+00 0.00000000e+00
 0.00000000e+00 0.00000000e+00 0.00000000e+00 0.00000000e+00
 0.00000000e+00 0.00000000e+00 5.98587630e-08 9.29017292e-03
 0.00000000e+00 0.00000000e+00 0.00000000e+00 9.96047804e-03]","[[9.96925336e-06 2.94083306e-11 5.98587630e-11]
 [2.94083306e-11 1.86345283e-05 9.29017292e-06]
 [5.98587630e-11 9.29017292e-06 9.96047804e-06]]",[-9.26536674e-01  3.83671439e-09  6.23486152e-09],0.10095727374016368,-4.48998477287077e-12
1786949715.874092,0.9319570389493252,-3.980772036605977e-09,-6.458324985914032e-09,"[9.96895567e-03 2.97296353e-08 0.00000000e+00 0.00000000e+00
 0.00000000e+00 6.03298796e-08 2.97296353e-08 1.87341885e-02
 0.00000000e+00 0.00000000e+00 0.00000000e+00 9.34334246e-03
 0.00000000e+00 0.00000000e+00 0.00000000e+00 0.00000000e+00
 0.00000000e+00 0.00000000e+00 0.00000000e+00 0.00000000e+00
 0.00000000e+00 0.00000000e+00 0.00000000e+00 0.00000000e+00
 0.00000000e+00 0.00000000e+00 0.00000000e+00 0.00000000e+00
 0.00000000e+00 0.00000000e+00 6.03298796e-08 9.34334246e-03
 0.00000000e+00 0.00000000e+00 0.00000000e+00 9.95992890e-03]","[[9.96895567e-06 2.97296353e-11 6.03298796e-11]
 [2.97296353e-11 1.87341885e-05 9.34334246e-06]
 [6.03298796e-11 9.34334246e-06 9.95992890e-06]]",[-9.3196633e-01  3.9531989e-09  6.4022001e-09],0.1009572737398845,-9.272096979096034e-14
1786949715.927985,0.9368439205697602,-4.068359860663778e-09,-6.571751143269466e-09,"[9.96875736e-03 3.00220169e-08 0.00000000e+00 0.00000000e+00
 0.00000000e+00 6.07831376e-08 3.00220169e-08 1.88247343e-02
 0.00000000e+00 0.00000000e+00 0.00000000e+00 9.39140797e-03
 0.00000000e+00 0.00000000e+00 0.00000000e+00 0.00000000e+00
 0.00000000e+00 0.00000000e+00 0.00000000e+00 0.00000000e+00
 0.00000000e+00 0.00000000e+00 0.00000000e+00 0.00000000e+00
 0.00000000e+00 0.00000000e+00 0.00000000e+00 0.00000000e+00
 0.00000000e+00 0.00000000e+00 6.07831376e-08 9.39140797e-03
 0.00000000e+00 0.00000000e+00 0.00000000e+00 9.95956383e-03]","[[9.96875736e-06 3.00220169e-11 6.07831376e-11]
 [3.00220169e-11 1.88247343e-05 9.39140797e-06]
 [6.07831376e-11 9.39140797e-06 9.95956383e-06]]",[-9.36853260e-01  4.04037088e-09  6.51490906e-09],0.09994565101924413,-3.868693559949676e-12
1786949715.9759328,0.9419553435433693,-4.1872605375875825e-09,-6.743575919898603e-09,"[9.96845958e-03 3.03299448e-08 0.00000000e+00 0.00000000e+00
 0.00000000e+00 6.11263769e-08 3.03299448e-08 1.89198910e-02
 0.00000000e+00 0.00000000e+00 0.00000000e+00 9.44161978e-03
 0.00000000e+00 0.00000000e+00 0.00000000e+00 0.00000000e+00
 0.00000000e+00 0.00000000e+00 0.00000000e+00 0.00000000e+00
 0.00000000e+00 0.00000000e+00 0.00000000e+00 0.00000000e+00
 0.00000000e+00 0.00000000e+00 0.00000000e+00 0.00000000e+00
 0.00000000e+00 0.00000000e+00 6.11263769e-08 9.44161978e-03
 0.00000000e+00 0.00000000e+00 0.00000000e+00 9.95900691e-03]","[[9.96845958e-06 3.03299448e-11 6.11263769e-11]
 [3.03299448e-11 1.89198910e-05 9.44161978e-06]
 [6.11263769e-11 9.44161978e-06 9.95900691e-06]]",[-9.41964733e-01  4.15883261e-09  6.68610278e-09],0.09894113639517321,-4.85722573273506e-13
1786949716.0268943,0.9459012454623701,-4.271486473752387e-09,-6.8593681845641186e-09,"[9.96826114e-03 3.05699448e-08 0.00000000e+00 0.00000000e+00
 0.00000000e+00 6.14348665e-08 3.05699448e-08 1.89940140e-02
 0.00000000e+00 0.00000000e+00 0.00000000e+00 9.48055619e-03
 0.00000000e+00 0.00000000e+00 0.00000000e+00 0.00000000e+00
 0.00000000e+00 0.00000000e+00 0.00000000e+00 0.00000000e+00
 0.00000000e+00 0.00000000e+00 0.00000000e+00 0.00000000e+00
 0.00000000e+00 0.00000000e+00 0.00000000e+00 0.00000000e+00
 0.00000000e+00 0.00000000e+00 6.14348665e-08 9.48055619e-03
 0.00000000e+00 0.00000000e+00 0.00000000e+00 9.95863545e-03]","[[9.96826114e-06 3.05699448e-11 6.14348665e-11]
 [3.05699448e-11 1.89940140e-05 9.48055619e-06]
 [6.14348665e-11 9.48055619e-06 9.95863545e-06]]",[-9.45910675e-01  4.24271510e-09  6.80136436e-09],0.09894113639468416,-6.598974838789573e-12
1786949716.0709288,0.9498119249076409,-4.356609917843358e-09,-6.976284883108974e-09,"[9.96806272e-03 3.08067618e-08 0.00000000e+00 0.00000000e+00
 0.00000000e+00 6.17400460e-08 3.08067618e-08 1.90670913e-02
 0.00000000e+00 0.00000000e+00 0.00000000e+00 9.51878271e-03
 0.00000000e+00 0.00000000e+00 0.00000000e+00 0.00000000e+00
 0.00000000e+00 0.00000000e+00 0.00000000e+00 0.00000000e+00
 0.00000000e+00 0.00000000e+00 0.00000000e+00 0.00000000e+00
 0.00000000e+00 0.00000000e+00 0.00000000e+00 0.00000000e+00
 0.00000000e+00 0.00000000e+00 6.17400460e-08 9.51878271e-03
 0.00000000e+00 0.00000000e+00 0.00000000e+00 9.95826250e-03]","[[9.96806272e-06 3.08067618e-11 6.17400460e-11]
 [3.08067618e-11 1.90670913e-05 9.51878271e-06]
 [6.17400460e-11 9.51878271e-06 9.95826250e-06]]",[-9.49821393e-01  4.32749736e-09  6.91775304e-09],0.09696029254829391,-4.038436252074007e-13
1786949716.1222692,0.9519257106260528,-4.400720699332611e-09,-7.0351235947896384e-09,"[9.96796353e-03 3.09351797e-08 0.00000000e+00 0.00000000e+00
 0.00000000e+00 6.19199282e-08 3.09351797e-08 1.91066933e-02
 0.00000000e+00 0.00000000e+00 0.00000000e+00 9.53943620e-03
 0.00000000e+00 0.00000000e+00 0.00000000e+00 0.00000000e+00
 0.00000000e+00 0.00000000e+00 0.00000000e+00 0.00000000e+00
 0.00000000e+00 0.00000000e+00 0.00000000e+00 0.00000000e+00
 0.00000000e+00 0.00000000e+00 0.00000000e+00 0.00000000e+00
 0.00000000e+00 0.00000000e+00 6.19199282e-08 9.53943620e-03
 0.00000000e+00 0.00000000e+00 0.00000000e+00 9.95807602e-03]","[[9.96796353e-06 3.09351797e-11 6.19199282e-11]
 [3.09351797e-11 1.91066933e-05 9.53943620e-06]
 [6.19199282e-11 9.53943620e-06 9.95807602e-06]]",[-9.51935199e-01  4.37142249e-09  6.97629110e-09],0.096960292546731,-1.5569143196891844e-13
1786949716.1720176,0.9615766014165411,-4.589238468451118e-09,-7.277168645458687e-09,"[9.96756746e-03 3.15278606e-08 0.00000000e+00 0.00000000e+00
 0.00000000e+00 6.33094921e-08 3.15278606e-08 1.92884334e-02
 0.00000000e+00 0.00000000e+00 0.00000000e+00 9.63366209e-03
 0.00000000e+00 0.00000000e+00 0.00000000e+00 0.00000000e+00
 0.00000000e+00 0.00000000e+00 0.00000000e+00 0.00000000e+00
 0.00000000e+00 0.00000000e+00 0.00000000e+00 0.00000000e+00
 0.00000000e+00 0.00000000e+00 0.00000000e+00 0.00000000e+00
 0.00000000e+00 0.00000000e+00 6.33094921e-08 9.63366209e-03
 0.00000000e+00 0.00000000e+00 0.00000000e+00 9.95733832e-03]","[[9.96756746e-06 3.15278606e-11 6.33094921e-11]
 [3.15278606e-11 1.92884334e-05 9.63366209e-06]
 [6.33094921e-11 9.63366209e-06 9.95733832e-06]]",[-9.61586186e-01  4.55907917e-09  7.21640703e-09],0.09501168778364791,-7.624109676918067e-14
1786949716.2207146,0.9658465085622103,-4.681472281544836e-09,-7.39963201823457e-09,"[9.96736915e-03 3.17948685e-08 0.00000000e+00 0.00000000e+00
 0.00000000e+00 6.37040361e-08 3.17948685e-08 1.93696844e-02
 0.00000000e+00 0.00000000e+00 0.00000000e+00 9.67547659e-03
 0.00000000e+00 0.00000000e+00 0.00000000e+00 0.00000000e+00
 0.00000000e+00 0.00000000e+00 0.00000000e+00 0.00000000e+00
 0.00000000e+00 0.00000000e+00 0.00000000e+00 0.00000000e+00
 0.00000000e+00 0.00000000e+00 0.00000000e+00 0.00000000e+00
 0.00000000e+00 0.00000000e+00 6.37040361e-08 9.67547659e-03
 0.00000000e+00 0.00000000e+00 0.00000000e+00 9.95696134e-03]","[[9.96736915e-06 3.17948685e-11 6.37040361e-11]
 [3.17948685e-11 1.93696844e-05 9.67547659e-06]
 [6.37040361e-11 9.67547659e-06 9.95696134e-06]]",[-9.65856136e-01  4.65092410e-09  7.33822114e-09],0.09501168778557811,-3.6845526629747383e-13
1786949716.2730265,0.970888439806034,-4.811873219917132e-09,-7.585264416576365e-09,"[9.96707150e-03 3.21118236e-08 0.00000000e+00 0.00000000e+00
 0.00000000e+00 6.41025714e-08 3.21118236e-08 1.94659281e-02
 0.00000000e+00 0.00000000e+00 0.00000000e+00 9.72474163e-03
 0.00000000e+00 0.00000000e+00 0.00000000e+00 0.00000000e+00
 0.00000000e+00 0.00000000e+00 0.00000000e+00 0.00000000e+00
 0.00000000e+00 0.00000000e+00 0.00000000e+00 0.00000000e+00
 0.00000000e+00 0.00000000e+00 0.00000000e+00 0.00000000e+00
 0.00000000e+00 0.00000000e+00 6.41025714e-08 9.72474163e-03
 0.00000000e+00 0.00000000e+00 0.00000000e+00 9.95638937e-03]","[[9.96707150e-06 3.21118236e-11 6.41025714e-11]
 [3.21118236e-11 1.94659281e-05 9.72474163e-06]
 [6.41025714e-11 9.72474163e-06 9.95638937e-06]]",[-9.70898117e-01  4.78086214e-09  7.52314877e-09],0.09406011723124968,-3.505876144949127e-13
1786949716.3235652,0.9746530916296696,-4.903240938735081e-09,-7.7103585738314e-09,"[9.96687312e-03 3.23493743e-08 0.00000000e+00 0.00000000e+00
 0.00000000e+00 6.44120168e-08 3.23493743e-08 1.95379743e-02
 0.00000000e+00 0.00000000e+00 0.00000000e+00 9.76146403e-03
 0.00000000e+00 0.00000000e+00 0.00000000e+00 0.00000000e+00
 0.00000000e+00 0.00000000e+00 0.00000000e+00 0.00000000e+00
 0.00000000e+00 0.00000000e+00 0.00000000e+00 0.00000000e+00
 0.00000000e+00 0.00000000e+00 0.00000000e+00 0.00000000e+00
 0.00000000e+00 0.00000000e+00 6.44120168e-08 9.76146403e-03
 0.00000000e+00 0.00000000e+00 0.00000000e+00 9.95600724e-03]","[[9.96687312e-06 3.23493743e-11 6.44120168e-11]
 [3.23493743e-11 1.95379743e-05 9.76146403e-06]
 [6.44120168e-11 9.76146403e-06 9.95600724e-06]]",[-9.74662806e-01  4.87188105e-09  7.64770247e-09],0.09311666134727237,-3.2855662635000726e-13
1786949716.37112,0.9765726574451198,-4.949656621090303e-09,-7.77335307233784e-09,"[9.96677395e-03 3.24721990e-08 0.00000000e+00 0.00000000e+00
 0.00000000e+00 6.45761544e-08 3.24721990e-08 1.95751981e-02
 0.00000000e+00 0.00000000e+00 0.00000000e+00 9.78038331e-03
 0.00000000e+00 0.00000000e+00 0.00000000e+00 0.00000000e+00
 0.00000000e+00 0.00000000e+00 0.00000000e+00 0.00000000e+00
 0.00000000e+00 0.00000000e+00 0.00000000e+00 0.00000000e+00
 0.00000000e+00 0.00000000e+00 0.00000000e+00 0.00000000e+00
 0.00000000e+00 0.00000000e+00 6.45761544e-08 9.78038331e-03
 0.00000000e+00 0.00000000e+00 0.00000000e+00 9.95581582e-03]","[[9.96677395e-06 3.24721990e-11 6.45761544e-11]
 [3.24721990e-11 1.95751981e-05 9.78038331e-06]
 [6.45761544e-11 9.78038331e-06 9.95581582e-06]]",[-9.76582391e-01  4.91811653e-09  7.71041408e-09],0.09311666134727237,-3.2855662635000726e-13
1786949716.4209468,0.9838766412950546,-5.135334756803282e-09,-8.027948084077252e-09,"[9.96637723e-03 3.29411193e-08 0.00000000e+00 0.00000000e+00
 0.00000000e+00 6.51973168e-08 3.29411193e-08 1.97170840e-02
 0.00000000e+00 0.00000000e+00 0.00000000e+00 9.85214764e-03
 0.00000000e+00 0.00000000e+00 0.00000000e+00 0.00000000e+00
 0.00000000e+00 0.00000000e+00 0.00000000e+00 0.00000000e+00
 0.00000000e+00 0.00000000e+00 0.00000000e+00 0.00000000e+00
 0.00000000e+00 0.00000000e+00 0.00000000e+00 0.00000000e+00
 0.00000000e+00 0.00000000e+00 6.51973168e-08 9.85214764e-03
 0.00000000e+00 0.00000000e+00 0.00000000e+00 9.95504587e-03]","[[9.96637723e-06 3.29411193e-11 6.51973168e-11]
 [3.29411193e-11 1.97170840e-05 9.85214764e-06]
 [6.51973168e-11 9.85214764e-06 9.95504587e-06]]",[-9.83886447e-01  5.10310352e-09  7.96393085e-09],0.09218077745437786,-3.056582764671134e-13
1786949716.476733,0.9893004612586608,-5.277213873754388e-09,-8.221694880461428e-09,"[9.96607969e-03 3.32918121e-08 0.00000000e+00 0.00000000e+00
 0.00000000e+00 6.56513807e-08 3.32918121e-08 1.98229813e-02
 0.00000000e+00 0.00000000e+00 0.00000000e+00 9.90536072e-03
 0.00000000e+00 0.00000000e+00 0.00000000e+00 0.00000000e+00
 0.00000000e+00 0.00000000e+00 0.00000000e+00 0.00000000e+00
 0.00000000e+00 0.00000000e+00 0.00000000e+00 0.00000000e+00
 0.00000000e+00 0.00000000e+00 0.00000000e+00 0.00000000e+00
 0.00000000e+00 0.00000000e+00 6.56513807e-08 9.90536072e-03
 0.00000000e+00 0.00000000e+00 0.00000000e+00 9.95446449e-03]","[[9.96607969e-06 3.32918121e-11 6.56513807e-11]
 [3.32918121e-11 1.98229813e-05 9.90536072e-06]
 [6.56513807e-11 9.90536072e-06 9.95446449e-06]]",[-9.89310321e-01  5.24446270e-09  8.15687828e-09],0.0912561620278215,3.859586261700798e-12
1786949716.526412,0.9929747493819732,-5.37374402695468e-09,-8.352201597006115e-09,"[9.96588136e-03 3.35312688e-08 0.00000000e+00 0.00000000e+00
 0.00000000e+00 6.59668675e-08 3.35312688e-08 1.98952027e-02
 0.00000000e+00 0.00000000e+00 0.00000000e+00 9.94148612e-03
 0.00000000e+00 0.00000000e+00 0.00000000e+00 0.00000000e+00
 0.00000000e+00 0.00000000e+00 0.00000000e+00 0.00000000e+00
 0.00000000e+00 0.00000000e+00 0.00000000e+00 0.00000000e+00
 0.00000000e+00 0.00000000e+00 0.00000000e+00 0.00000000e+00
 0.00000000e+00 0.00000000e+00 6.59668675e-08 9.94148612e-03
 0.00000000e+00 0.00000000e+00 0.00000000e+00 9.95407546e-03]","[[9.96588136e-06 3.35312688e-11 6.59668675e-11]
 [3.35312688e-11 1.98952027e-05 9.94148612e-06]
 [6.59668675e-11 9.94148612e-06 9.95407546e-06]]",[-9.92984645e-01  5.34063663e-09  8.28683300e-09],0.09033943963830077,-2.170399276968382e-12
1786949716.5786705,0.9983338820915003,-5.519497246865469e-09,-8.55027115775897e-09,"[9.96558388e-03 3.38814575e-08 0.00000000e+00 0.00000000e+00
 0.00000000e+00 6.64430847e-08 3.38814575e-08 2.00006412e-02
 0.00000000e+00 0.00000000e+00 0.00000000e+00 9.99398199e-03
 0.00000000e+00 0.00000000e+00 0.00000000e+00 0.00000000e+00
 0.00000000e+00 0.00000000e+00 0.00000000e+00 0.00000000e+00
 0.00000000e+00 0.00000000e+00 0.00000000e+00 0.00000000e+00
 0.00000000e+00 0.00000000e+00 0.00000000e+00 0.00000000e+00
 0.00000000e+00 0.00000000e+00 6.64430847e-08 9.99398199e-03
 0.00000000e+00 0.00000000e+00 0.00000000e+00 9.95348926e-03]","[[9.96558388e-06 3.38814575e-11 6.64430847e-11]
 [3.38814575e-11 2.00006412e-05 9.99398199e-06]
 [6.64430847e-11 9.99398199e-06 9.95348926e-06]]",[-9.98343831e-01  5.48586641e-09  8.48407744e-09],0.08943008654633887,-2.623595785067323e-12
1786949716.642172,1.0020125157738013,-5.61905024392466e-09,-8.683678220933189e-09,"[9.96538558e-03 3.41244345e-08 0.00000000e+00 0.00000000e+00
 0.00000000e+00 6.67701258e-08 3.41244345e-08 2.00736982e-02
 0.00000000e+00 0.00000000e+00 0.00000000e+00 1.00301940e-02
 0.00000000e+00 0.00000000e+00 0.00000000e+00 0.00000000e+00
 0.00000000e+00 0.00000000e+00 0.00000000e+00 0.00000000e+00
 0.00000000e+00 0.00000000e+00 0.00000000e+00 0.00000000e+00
 0.00000000e+00 0.00000000e+00 0.00000000e+00 0.00000000e+00
 0.00000000e+00 0.00000000e+00 6.67701258e-08 1.00301940e-02
 0.00000000e+00 0.00000000e+00 0.00000000e+00 9.95309698e-03]","[[9.96538558e-06 3.41244345e-11 6.67701258e-11]
 [3.41244345e-11 2.00736982e-05 1.00301940e-05]
 [6.67701258e-11 1.00301940e-05 9.95309698e-06]]",[-1.00202250e+00  5.58505533e-09  8.61691474e-09],0.08943008654643707,-1.3961054534661343e-12
1786949716.671962,1.0055453303376478,-5.684161948405013e-09,-8.751451119337617e-09,"[9.96528686e-03 3.43572063e-08 0.00000000e+00 0.00000000e+00
 0.00000000e+00 6.73741294e-08 3.43572063e-08 2.01436699e-02
 0.00000000e+00 0.00000000e+00 0.00000000e+00 1.00647989e-02
 0.00000000e+00 0.00000000e+00 0.00000000e+00 0.00000000e+00
 0.00000000e+00 0.00000000e+00 0.00000000e+00 0.00000000e+00
 0.00000000e+00 0.00000000e+00 0.00000000e+00 0.00000000e+00
 0.00000000e+00 0.00000000e+00 0.00000000e+00 0.00000000e+00
 0.00000000e+00 0.00000000e+00 6.73741294e-08 1.00647989e-02
 0.00000000e+00 0.00000000e+00 0.00000000e+00 9.95290891e-03]","[[9.96528686e-06 3.43572063e-11 6.73741294e-11]
 [3.43572063e-11 2.01436699e-05 1.00647989e-05]
 [6.73741294e-11 1.00647989e-05 9.95290891e-06]]",[-1.00555535e+00  5.64981508e-09  8.68384609e-09],0.08853123891559404,-4.407932352457067e-13
1786949716.7209423,1.0108038260274252,-5.834912660099547e-09,-8.956144714744596e-09,"[9.96498939e-03 3.47072081e-08 0.00000000e+00 0.00000000e+00
 0.00000000e+00 6.78282037e-08 3.47072081e-08 2.02481381e-02
 0.00000000e+00 0.00000000e+00 0.00000000e+00 1.01161604e-02
 0.00000000e+00 0.00000000e+00 0.00000000e+00 0.00000000e+00
 0.00000000e+00 0.00000000e+00 0.00000000e+00 0.00000000e+00
 0.00000000e+00 0.00000000e+00 0.00000000e+00 0.00000000e+00
 0.00000000e+00 0.00000000e+00 0.00000000e+00 0.00000000e+00
 0.00000000e+00 0.00000000e+00 6.78282037e-08 1.01161604e-02
 0.00000000e+00 0.00000000e+00 0.00000000e+00 9.95231501e-03]","[[9.96498939e-06 3.47072081e-11 6.78282037e-11]
 [3.47072081e-11 2.02481381e-05 1.01161604e-05]
 [6.78282037e-11 1.01161604e-05 9.95231501e-06]]",[-1.01081390e+00  5.80003748e-09  8.88773011e-09],0.0885312389141322,-2.697495005143935e-14
1786949716.7760274,1.015999189474613,-5.987755857359346e-09,-9.16301789999352e-09,"[9.96469194e-03 3.50552569e-08 0.00000000e+00 0.00000000e+00
 0.00000000e+00 6.82746326e-08 3.50552569e-08 2.03518642e-02
 0.00000000e+00 0.00000000e+00 0.00000000e+00 1.01668916e-02
 0.00000000e+00 0.00000000e+00 0.00000000e+00 0.00000000e+00
 0.00000000e+00 0.00000000e+00 0.00000000e+00 0.00000000e+00
 0.00000000e+00 0.00000000e+00 0.00000000e+00 0.00000000e+00
 0.00000000e+00 0.00000000e+00 0.00000000e+00 0.00000000e+00
 0.00000000e+00 0.00000000e+00 6.82746326e-08 1.01668916e-02
 0.00000000e+00 0.00000000e+00 0.00000000e+00 9.95171796e-03]","[[9.96469194e-06 3.50552569e-11 6.82746326e-11]
 [3.50552569e-11 2.03518642e-05 1.01668916e-05]
 [6.82746326e-11 1.01668916e-05 9.95171796e-06]]",[-1.01600931e+00  5.95235299e-09  9.09380127e-09],0.08764322998205931,-6.331740687315346e-15
1786949716.821964,1.0196235280340606,-6.0926447173648285e-09,-9.302365988617112e-09,"[9.96449368e-03 3.52987141e-08 0.00000000e+00 0.00000000e+00
 0.00000000e+00 6.86066852e-08 3.52987141e-08 2.04243176e-02
 0.00000000e+00 0.00000000e+00 0.00000000e+00 1.02021788e-02
 0.00000000e+00 0.00000000e+00 0.00000000e+00 0.00000000e+00
 0.00000000e+00 0.00000000e+00 0.00000000e+00 0.00000000e+00
 0.00000000e+00 0.00000000e+00 0.00000000e+00 0.00000000e+00
 0.00000000e+00 0.00000000e+00 0.00000000e+00 0.00000000e+00
 0.00000000e+00 0.00000000e+00 6.86066852e-08 1.02021788e-02
 0.00000000e+00 0.00000000e+00 0.00000000e+00 9.95131886e-03]","[[9.96449368e-06 3.52987141e-11 6.86066852e-11]
 [3.52987141e-11 2.04243176e-05 1.02021788e-05]
 [6.86066852e-11 1.02021788e-05 9.95131886e-06]]",[-1.01963369e+00  6.05687086e-09  9.23256582e-09],0.08676368965061418,8.326672684688674e-15
1786949716.8716178,1.0229632297124418,-6.196085689786683e-09,-9.442752357813333e-09,"[9.96429538e-03 3.55262302e-08 0.00000000e+00 0.00000000e+00
 0.00000000e+00 6.88928009e-08 3.55262302e-08 2.04919414e-02
 0.00000000e+00 0.00000000e+00 0.00000000e+00 1.02349933e-02
 0.00000000e+00 0.00000000e+00 0.00000000e+00 0.00000000e+00
 0.00000000e+00 0.00000000e+00 0.00000000e+00 0.00000000e+00
 0.00000000e+00 0.00000000e+00 0.00000000e+00 0.00000000e+00
 0.00000000e+00 0.00000000e+00 0.00000000e+00 0.00000000e+00
 0.00000000e+00 0.00000000e+00 6.88928009e-08 1.02349933e-02
 0.00000000e+00 0.00000000e+00 0.00000000e+00 9.95091750e-03]","[[9.96429538e-06 3.55262302e-11 6.88928009e-11]
 [3.55262302e-11 2.04919414e-05 1.02349933e-05]
 [6.88928009e-11 1.02349933e-05 9.95091750e-06]]",[-1.02297342e+00  6.15996546e-09  9.37243305e-09],0.08676368965243625,-2.1848842179927885e-13
1786949716.9268894,1.0285869106930887,-6.359431049079305e-09,-9.655873434155637e-09,"[9.96399807e-03 3.59093367e-08 0.00000000e+00 0.00000000e+00
 0.00000000e+00 6.94471604e-08 3.59093367e-08 2.06056131e-02
 0.00000000e+00 0.00000000e+00 0.00000000e+00 1.02899300e-02
 0.00000000e+00 0.00000000e+00 0.00000000e+00 0.00000000e+00
 0.00000000e+00 0.00000000e+00 0.00000000e+00 0.00000000e+00
 0.00000000e+00 0.00000000e+00 0.00000000e+00 0.00000000e+00
 0.00000000e+00 0.00000000e+00 0.00000000e+00 0.00000000e+00
 0.00000000e+00 0.00000000e+00 6.94471604e-08 1.02899300e-02
 0.00000000e+00 0.00000000e+00 0.00000000e+00 9.95031517e-03]","[[9.96399807e-06 3.59093367e-11 6.94471604e-11]
 [3.59093367e-11 2.06056131e-05 1.02899300e-05]
 [6.94471604e-11 1.02899300e-05 9.95031517e-06]]",[-1.02859716e+00  6.32272372e-09  9.58460067e-09],0.08589253459458382,-2.0044729764912006e-13
1786949716.9707637,1.0332274443450307,-6.51595813440638e-09,-9.871196304800378e-09,"[9.96370061e-03 3.62269058e-08 0.00000000e+00 0.00000000e+00
 0.00000000e+00 6.98317552e-08 3.62269058e-08 2.06996537e-02
 0.00000000e+00 0.00000000e+00 0.00000000e+00 1.03351216e-02
 0.00000000e+00 0.00000000e+00 0.00000000e+00 0.00000000e+00
 0.00000000e+00 0.00000000e+00 0.00000000e+00 0.00000000e+00
 0.00000000e+00 0.00000000e+00 0.00000000e+00 0.00000000e+00
 0.00000000e+00 0.00000000e+00 0.00000000e+00 0.00000000e+00
 0.00000000e+00 0.00000000e+00 6.98317552e-08 1.03351216e-02
 0.00000000e+00 0.00000000e+00 0.00000000e+00 9.94970662e-03]","[[9.96370061e-06 3.62269058e-11 6.98317552e-11]
 [3.62269058e-11 2.06996537e-05 1.03351216e-05]
 [6.98317552e-11 1.03351216e-05 9.94970662e-06]]",[-1.03323774e+00  6.47876251e-09  9.79920811e-09],0.08502707558569797,-1.7763568394002505e-13
1786949717.0230274,1.0365983487478638,-6.624489482830291e-09,-1.0016104390331293e-08,"[9.96350237e-03 3.64601842e-08 0.00000000e+00 0.00000000e+00
 0.00000000e+00 7.01404063e-08 3.64601842e-08 2.07686527e-02
 0.00000000e+00 0.00000000e+00 0.00000000e+00 1.03681616e-02
 0.00000000e+00 0.00000000e+00 0.00000000e+00 0.00000000e+00
 0.00000000e+00 0.00000000e+00 0.00000000e+00 0.00000000e+00
 0.00000000e+00 0.00000000e+00 0.00000000e+00 0.00000000e+00
 0.00000000e+00 0.00000000e+00 0.00000000e+00 0.00000000e+00
 0.00000000e+00 0.00000000e+00 7.01404063e-08 1.03681616e-02
 0.00000000e+00 0.00000000e+00 0.00000000e+00 9.94930030e-03]","[[9.96350237e-06 3.64601842e-11 7.01404063e-11]
 [3.64601842e-11 2.07686527e-05 1.03681616e-05]
 [7.01404063e-11 1.03681616e-05 9.94930030e-06]]",[-1.03660868e+00  6.58693444e-09  9.94356331e-09],0.0841724775347873,-2.207435623180487e-13
1786949717.0714097,1.0416892466171752,-6.789930786473364e-09,-1.0235530645275048e-08,"[9.96320505e-03 3.68135099e-08 0.00000000e+00 0.00000000e+00
 0.00000000e+00 7.06321281e-08 3.68135099e-08 2.08729797e-02
 0.00000000e+00 0.00000000e+00 0.00000000e+00 1.04179144e-02
 0.00000000e+00 0.00000000e+00 0.00000000e+00 0.00000000e+00
 0.00000000e+00 0.00000000e+00 0.00000000e+00 0.00000000e+00
 0.00000000e+00 0.00000000e+00 0.00000000e+00 0.00000000e+00
 0.00000000e+00 0.00000000e+00 0.00000000e+00 0.00000000e+00
 0.00000000e+00 0.00000000e+00 7.06321281e-08 1.04179144e-02
 0.00000000e+00 0.00000000e+00 0.00000000e+00 9.94868882e-03]","[[9.96320505e-06 3.68135099e-11 7.06321281e-11]
 [3.68135099e-11 2.08729797e-05 1.04179144e-05]
 [7.06321281e-11 1.04179144e-05 9.94868882e-06]]",[-1.04169963e+00  6.75182897e-09  1.01621245e-08],0.08332562516975567,2.463307335887066e-14
1786949717.1217542,1.0449300428154296,-6.900168108368676e-09,-1.0383167659000492e-08,"[9.96300681e-03 3.70407180e-08 0.00000000e+00 0.00000000e+00
 0.00000000e+00 7.09305763e-08 3.70407180e-08 2.09399490e-02
 0.00000000e+00 0.00000000e+00 0.00000000e+00 1.04497179e-02
 0.00000000e+00 0.00000000e+00 0.00000000e+00 0.00000000e+00
 0.00000000e+00 0.00000000e+00 0.00000000e+00 0.00000000e+00
 0.00000000e+00 0.00000000e+00 0.00000000e+00 0.00000000e+00
 0.00000000e+00 0.00000000e+00 0.00000000e+00 0.00000000e+00
 0.00000000e+00 0.00000000e+00 7.09305763e-08 1.04497179e-02
 0.00000000e+00 0.00000000e+00 0.00000000e+00 9.94827893e-03]","[[9.96300681e-06 3.70407180e-11 7.09305763e-11]
 [3.70407180e-11 2.09399490e-05 1.04497179e-05]
 [7.09305763e-11 1.04497179e-05 9.94827893e-06]]",[-1.04494045e+00  6.86171418e-09  1.03092237e-08],0.08248855808374758,2.4468274628652864e-13
1786949717.170778,1.04857240382284,-7.015876588381346e-09,-1.0532465566370774e-08,"[9.96280876e-03 3.72949187e-08 0.00000000e+00 0.00000000e+00
 0.00000000e+00 7.14064223e-08 3.72949187e-08 2.10147677e-02
 0.00000000e+00 0.00000000e+00 0.00000000e+00 1.04851458e-02
 0.00000000e+00 0.00000000e+00 0.00000000e+00 0.00000000e+00
 0.00000000e+00 0.00000000e+00 0.00000000e+00 0.00000000e+00
 0.00000000e+00 0.00000000e+00 0.00000000e+00 0.00000000e+00
 0.00000000e+00 0.00000000e+00 0.00000000e+00 0.00000000e+00
 0.00000000e+00 0.00000000e+00 7.14064223e-08 1.04851458e-02
 0.00000000e+00 0.00000000e+00 0.00000000e+00 9.94787102e-03]","[[9.96280876e-06 3.72949187e-11 7.14064223e-11]
 [3.72949187e-11 2.10147677e-05 1.04851458e-05]
 [7.14064223e-11 1.04851458e-05 9.94787102e-06]]",[-1.04858285e+00  6.97702605e-09  1.04577671e-08],0.08165990570104459,-1.457167719820518e-13
1786949717.2322454,1.0530923751659405,-7.181697108019226e-09,-1.0757970514418957e-08,"[9.96251139e-03 3.76141682e-08 0.00000000e+00 0.00000000e+00
 0.00000000e+00 7.18042029e-08 3.76141682e-08 2.11084322e-02
 0.00000000e+00 0.00000000e+00 0.00000000e+00 1.05292926e-02
 0.00000000e+00 0.00000000e+00 0.00000000e+00 0.00000000e+00
 0.00000000e+00 0.00000000e+00 0.00000000e+00 0.00000000e+00
 0.00000000e+00 0.00000000e+00 0.00000000e+00 0.00000000e+00
 0.00000000e+00 0.00000000e+00 0.00000000e+00 0.00000000e+00
 0.00000000e+00 0.00000000e+00 7.18042029e-08 1.05292926e-02
 0.00000000e+00 0.00000000e+00 0.00000000e+00 9.94725069e-03]","[[9.96251139e-06 3.76141682e-11 7.18042029e-11]
 [3.76141682e-11 2.11084322e-05 1.05292926e-05]
 [7.18042029e-11 1.05292926e-05 9.94725069e-06]]",[-1.05310287e+00  7.14234876e-09  1.06825349e-08],0.08083957770830391,-1.3955850364233413e-13
1786949717.2705414,1.0580897313525413,-7.3553469791162944e-09,-1.098611512873049e-08,"[9.96221414e-03 3.79708849e-08 0.00000000e+00 0.00000000e+00
 0.00000000e+00 7.23134874e-08 3.79708849e-08 2.12129023e-02
 0.00000000e+00 0.00000000e+00 0.00000000e+00 1.05783293e-02
 0.00000000e+00 0.00000000e+00 0.00000000e+00 0.00000000e+00
 0.00000000e+00 0.00000000e+00 0.00000000e+00 0.00000000e+00
 0.00000000e+00 0.00000000e+00 0.00000000e+00 0.00000000e+00
 0.00000000e+00 0.00000000e+00 0.00000000e+00 0.00000000e+00
 0.00000000e+00 0.00000000e+00 7.23134874e-08 1.05783293e-02
 0.00000000e+00 0.00000000e+00 0.00000000e+00 9.94662959e-03]","[[9.96231321e-06 3.78437543e-11 7.21266899e-11]
 [3.78437543e-11 2.11756929e-05 1.05608863e-05]
 [7.21266899e-11 1.05608863e-05 9.94683661e-06]]",[-1.05632403e+00  7.25624018e-09  1.08337841e-08],0.08083957770830391,-1.3964523981613297e-13
1786949717.3369224,1.0610435288871092,-7.468452046405146e-09,-1.1139551503447365e-08,"[9.96201591e-03 3.81813314e-08 0.00000000e+00 0.00000000e+00
 0.00000000e+00 7.25734271e-08 3.81813314e-08 2.12744188e-02
 0.00000000e+00 0.00000000e+00 0.00000000e+00 1.06070791e-02
 0.00000000e+00 0.00000000e+00 0.00000000e+00 0.00000000e+00
 0.00000000e+00 0.00000000e+00 0.00000000e+00 0.00000000e+00
 0.00000000e+00 0.00000000e+00 0.00000000e+00 0.00000000e+00
 0.00000000e+00 0.00000000e+00 0.00000000e+00 0.00000000e+00
 0.00000000e+00 0.00000000e+00 7.25734271e-08 1.06070791e-02
 0.00000000e+00 0.00000000e+00 0.00000000e+00 9.94621235e-03]","[[9.96201591e-06 3.81813314e-11 7.25734271e-11]
 [3.81813314e-11 2.12744188e-05 1.06070791e-05]
 [7.25734271e-11 1.06070791e-05 9.94621235e-06]]",[-1.06105410e+00  7.42821496e-09  1.10627361e-08],0.0800283107832403,-1.2455314557513475e-13
1786949717.3741286,1.065791578997042,-7.643905258895129e-09,-1.1372390584796221e-08,"[9.96171885e-03 3.85213611e-08 0.00000000e+00 0.00000000e+00
 0.00000000e+00 7.32426181e-08 3.85213611e-08 2.13737186e-02
 0.00000000e+00 0.00000000e+00 0.00000000e+00 1.06533319e-02
 0.00000000e+00 0.00000000e+00 0.00000000e+00 0.00000000e+00
 0.00000000e+00 0.00000000e+00 0.00000000e+00 0.00000000e+00
 0.00000000e+00 0.00000000e+00 0.00000000e+00 0.00000000e+00
 0.00000000e+00 0.00000000e+00 0.00000000e+00 0.00000000e+00
 0.00000000e+00 0.00000000e+00 7.32426181e-08 1.06533319e-02
 0.00000000e+00 0.00000000e+00 0.00000000e+00 9.94558947e-03]","[[9.96171885e-06 3.85213611e-11 7.32426181e-11]
 [3.85213611e-11 2.13737186e-05 1.06533319e-05]
 [7.32426181e-11 1.06533319e-05 9.94558947e-06]]",[-1.06580220e+00  7.60313194e-09  1.12945218e-08],0.07842287696600164,1.3981871216373065e-13
1786949717.4252152,1.0690269461004973,-7.763171433609556e-09,-1.1529113219665987e-08,"[9.96152071e-03 3.87539914e-08 0.00000000e+00 0.00000000e+00
 0.00000000e+00 7.35756908e-08 3.87539914e-08 2.14413155e-02
 0.00000000e+00 0.00000000e+00 0.00000000e+00 1.06847021e-02
 0.00000000e+00 0.00000000e+00 0.00000000e+00 0.00000000e+00
 0.00000000e+00 0.00000000e+00 0.00000000e+00 0.00000000e+00
 0.00000000e+00 0.00000000e+00 0.00000000e+00 0.00000000e+00
 0.00000000e+00 0.00000000e+00 0.00000000e+00 0.00000000e+00
 0.00000000e+00 0.00000000e+00 7.35756908e-08 1.06847021e-02
 0.00000000e+00 0.00000000e+00 0.00000000e+00 9.94517046e-03]","[[9.96152071e-06 3.87539914e-11 7.35756908e-11]
 [3.87539914e-11 2.14413155e-05 1.06847021e-05]
 [7.35756908e-11 1.06847021e-05 9.94517046e-06]]",[-1.06903760e+00  7.72202988e-09  1.14506546e-08],0.07685159270130987,-2.1840168562548001e-13
1786949717.4775572,1.071990550782641,-7.880534989044565e-09,-1.1687429246620695e-08,"[9.96132268e-03 3.89669985e-08 0.00000000e+00 0.00000000e+00
 0.00000000e+00 7.40147073e-08 3.89669985e-08 2.15031344e-02
 0.00000000e+00 0.00000000e+00 0.00000000e+00 1.07132955e-02
 0.00000000e+00 0.00000000e+00 0.00000000e+00 0.00000000e+00
 0.00000000e+00 0.00000000e+00 0.00000000e+00 0.00000000e+00
 0.00000000e+00 0.00000000e+00 0.00000000e+00 0.00000000e+00
 0.00000000e+00 0.00000000e+00 0.00000000e+00 0.00000000e+00
 0.00000000e+00 0.00000000e+00 7.40147073e-08 1.07132955e-02
 0.00000000e+00 0.00000000e+00 0.00000000e+00 9.94475216e-03]","[[9.96132268e-06 3.89669985e-11 7.40147073e-11]
 [3.89669985e-11 2.15031344e-05 1.07132955e-05]
 [7.40147073e-11 1.07132955e-05 9.94475216e-06]]",[-1.07200123e+00  7.83905525e-09  1.16082850e-08],0.07685159270106756,-3.0737565270833045e-12
1786949717.5226245,1.0767434129665074,-8.062445725028897e-09,-1.1927326237781699e-08,"[9.96102557e-03 3.93166878e-08 0.00000000e+00 0.00000000e+00
 0.00000000e+00 7.45974740e-08 3.93166878e-08 2.16041423e-02
 0.00000000e+00 0.00000000e+00 0.00000000e+00 1.07598638e-02
 0.00000000e+00 0.00000000e+00 0.00000000e+00 0.00000000e+00
 0.00000000e+00 0.00000000e+00 0.00000000e+00 0.00000000e+00
 0.00000000e+00 0.00000000e+00 0.00000000e+00 0.00000000e+00
 0.00000000e+00 0.00000000e+00 0.00000000e+00 0.00000000e+00
 0.00000000e+00 0.00000000e+00 7.45974740e-08 1.07598638e-02
 0.00000000e+00 0.00000000e+00 0.00000000e+00 9.94412076e-03]","[[9.96102557e-06 3.93166878e-11 7.45974740e-11]
 [3.93166878e-11 2.16041423e-05 1.07598638e-05]
 [7.45974740e-11 1.07598638e-05 9.94412076e-06]]",[-1.07675414e+00  8.02041207e-09  1.18472072e-08],0.07685159270153727,-2.92075391650215e-12
1786949717.570867,1.0813236553759413,-8.245006431666457e-09,-1.2169567575881501e-08,"[9.96072841e-03 3.96489926e-08 0.00000000e+00 0.00000000e+00
 0.00000000e+00 7.51017253e-08 3.96489926e-08 2.16998578e-02
 0.00000000e+00 0.00000000e+00 0.00000000e+00 1.08037889e-02
 0.00000000e+00 0.00000000e+00 0.00000000e+00 0.00000000e+00
 0.00000000e+00 0.00000000e+00 0.00000000e+00 0.00000000e+00
 0.00000000e+00 0.00000000e+00 0.00000000e+00 0.00000000e+00
 0.00000000e+00 0.00000000e+00 0.00000000e+00 0.00000000e+00
 0.00000000e+00 0.00000000e+00 7.51017253e-08 1.08037889e-02
 0.00000000e+00 0.00000000e+00 0.00000000e+00 9.94348518e-03]","[[9.96072841e-06 3.96489926e-11 7.51017253e-11]
 [3.96489926e-11 2.16998578e-05 1.08037889e-05]
 [7.51017253e-11 1.08037889e-05 9.94348518e-06]]",[-1.08133443e+00  8.20244121e-09  1.20885661e-08],0.07531338686999152,3.21097315403307e-13
1786949717.6285796,1.0847434994353469,-8.372762257991347e-09,-1.2332647347790271e-08,"[9.96053038e-03 3.99024353e-08 0.00000000e+00 0.00000000e+00
 0.00000000e+00 7.55010994e-08 3.99024353e-08 2.17726841e-02
 0.00000000e+00 0.00000000e+00 0.00000000e+00 1.08371062e-02
 0.00000000e+00 0.00000000e+00 0.00000000e+00 0.00000000e+00
 0.00000000e+00 0.00000000e+00 0.00000000e+00 0.00000000e+00
 0.00000000e+00 0.00000000e+00 0.00000000e+00 0.00000000e+00
 0.00000000e+00 0.00000000e+00 0.00000000e+00 0.00000000e+00
 0.00000000e+00 0.00000000e+00 7.55010994e-08 1.08371062e-02
 0.00000000e+00 0.00000000e+00 0.00000000e+00 9.94306111e-03]","[[9.96053038e-06 3.99024353e-11 7.55010994e-11]
 [3.99024353e-11 2.17726841e-05 1.08371062e-05]
 [7.55010994e-11 1.08371062e-05 9.94306111e-06]]",[-1.08475430e+00  8.32979205e-09  1.22509594e-08],0.0745529474040901,-1.448494102440634e-14
1786949717.6706462,1.0886600206370358,-8.551633261307131e-09,-1.2579229657916358e-08,"[9.96023311e-03 4.01919764e-08 0.00000000e+00 0.00000000e+00
 0.00000000e+00 7.58696644e-08 4.01919764e-08 2.18556908e-02
 0.00000000e+00 0.00000000e+00 0.00000000e+00 1.08748991e-02
 0.00000000e+00 0.00000000e+00 0.00000000e+00 0.00000000e+00
 0.00000000e+00 0.00000000e+00 0.00000000e+00 0.00000000e+00
 0.00000000e+00 0.00000000e+00 0.00000000e+00 0.00000000e+00
 0.00000000e+00 0.00000000e+00 0.00000000e+00 0.00000000e+00
 0.00000000e+00 0.00000000e+00 7.58696644e-08 1.08748991e-02
 0.00000000e+00 0.00000000e+00 0.00000000e+00 9.94241810e-03]","[[9.96023311e-06 4.01919764e-11 7.58696644e-11]
 [4.01919764e-11 2.18556908e-05 1.08748991e-05]
 [7.58696644e-11 1.08748991e-05 9.94241810e-06]]",[-1.08867086e+00  8.50819928e-09  1.24968493e-08],0.0745529474040893,-2.2464669013899652e-14
1786949717.7221422,1.090249648838333,-8.615390111921666e-09,-1.2661951043213548e-08,"[9.96013407e-03 4.03101610e-08 0.00000000e+00 0.00000000e+00
 0.00000000e+00 7.60417595e-08 4.03101610e-08 2.18895416e-02
 0.00000000e+00 0.00000000e+00 0.00000000e+00 1.08902884e-02
 0.00000000e+00 0.00000000e+00 0.00000000e+00 0.00000000e+00
 0.00000000e+00 0.00000000e+00 0.00000000e+00 0.00000000e+00
 0.00000000e+00 0.00000000e+00 0.00000000e+00 0.00000000e+00
 0.00000000e+00 0.00000000e+00 0.00000000e+00 0.00000000e+00
 0.00000000e+00 0.00000000e+00 7.60417595e-08 1.08902884e-02
 0.00000000e+00 0.00000000e+00 0.00000000e+00 9.94220418e-03]","[[9.96013407e-06 4.03101610e-11 7.60417595e-11]
 [4.03101610e-11 2.18895416e-05 1.08902884e-05]
 [7.60417595e-11 1.08902884e-05 9.94220418e-06]]",[-1.09026051e+00  8.57176616e-09  1.25792643e-08],0.0745529474040901,-1.1882855810441129e-14
1786949717.7729478,1.094682976176793,-8.804258245928148e-09,-1.291174900330816e-08,"[9.95983694e-03 4.06438615e-08 0.00000000e+00 0.00000000e+00
 0.00000000e+00 7.65172806e-08 4.06438615e-08 2.19849617e-02
 0.00000000e+00 0.00000000e+00 0.00000000e+00 1.09335338e-02
 0.00000000e+00 0.00000000e+00 0.00000000e+00 0.00000000e+00
 0.00000000e+00 0.00000000e+00 0.00000000e+00 0.00000000e+00
 0.00000000e+00 0.00000000e+00 0.00000000e+00 0.00000000e+00
 0.00000000e+00 0.00000000e+00 0.00000000e+00 0.00000000e+00
 0.00000000e+00 0.00000000e+00 7.65172806e-08 1.09335338e-02
 0.00000000e+00 0.00000000e+00 0.00000000e+00 9.94155970e-03]","[[9.95983694e-06 4.06438615e-11 7.65172806e-11]
 [4.06438615e-11 2.19849617e-05 1.09335338e-05]
 [7.65172806e-11 1.09335338e-05 9.94155970e-06]]",[-1.09469388e+00  8.76009851e-09  1.28282092e-08],0.07380551683144505,8.363101877684187e-13
1786949717.8242438,1.0962191229806564,-8.868580582562642e-09,-1.2995587272968123e-08,"[9.95973791e-03 4.07603143e-08 0.00000000e+00 0.00000000e+00
 0.00000000e+00 7.66849947e-08 4.07603143e-08 2.20182105e-02
 0.00000000e+00 0.00000000e+00 0.00000000e+00 1.09485641e-02
 0.00000000e+00 0.00000000e+00 0.00000000e+00 0.00000000e+00
 0.00000000e+00 0.00000000e+00 0.00000000e+00 0.00000000e+00
 0.00000000e+00 0.00000000e+00 0.00000000e+00 0.00000000e+00
 0.00000000e+00 0.00000000e+00 0.00000000e+00 0.00000000e+00
 0.00000000e+00 0.00000000e+00 7.66849947e-08 1.09485641e-02
 0.00000000e+00 0.00000000e+00 0.00000000e+00 9.94134443e-03]","[[9.95973791e-06 4.07603143e-11 7.66849947e-11]
 [4.07603143e-11 2.20182105e-05 1.09485641e-05]
 [7.66849947e-11 1.09485641e-05 9.94134443e-06]]",[-1.09623004e+00  8.82423356e-09  1.29117477e-08],0.07380551683144505,8.363101877684187e-13
1786949717.8734963,1.101973982995067,-9.078817699035097e-09,-1.3250941233167168e-08,"[9.95944129e-03 4.11993389e-08 0.00000000e+00 0.00000000e+00
 0.00000000e+00 7.76678494e-08 4.11993389e-08 2.21431224e-02
 0.00000000e+00 0.00000000e+00 0.00000000e+00 1.10048979e-02
 0.00000000e+00 0.00000000e+00 0.00000000e+00 0.00000000e+00
 0.00000000e+00 0.00000000e+00 0.00000000e+00 0.00000000e+00
 0.00000000e+00 0.00000000e+00 0.00000000e+00 0.00000000e+00
 0.00000000e+00 0.00000000e+00 0.00000000e+00 0.00000000e+00
 0.00000000e+00 0.00000000e+00 7.76678494e-08 1.10048979e-02
 0.00000000e+00 0.00000000e+00 0.00000000e+00 9.94070553e-03]","[[9.95954033e-06 4.10889158e-11 7.75177639e-11]
 [4.10889158e-11 2.21118424e-05 1.09908380e-05]
 [7.75177639e-11 1.09908380e-05 9.94092238e-06]]",[-1.10053135e+00  8.96960209e-09  1.30805020e-08],0.07380551683159317,-2.6913367368042174e-12
1786949717.966782,1.1066092288376153,-9.277408422613749e-09,-1.3509086738139331e-08,"[9.95914426e-03 4.15532398e-08 0.00000000e+00 0.00000000e+00
 0.00000000e+00 7.82181047e-08 4.15532398e-08 2.22432020e-02
 0.00000000e+00 0.00000000e+00 0.00000000e+00 1.10497724e-02
 0.00000000e+00 0.00000000e+00 0.00000000e+00 0.00000000e+00
 0.00000000e+00 0.00000000e+00 0.00000000e+00 0.00000000e+00
 0.00000000e+00 0.00000000e+00 0.00000000e+00 0.00000000e+00
 0.00000000e+00 0.00000000e+00 0.00000000e+00 0.00000000e+00
 0.00000000e+00 0.00000000e+00 7.82181047e-08 1.10497724e-02
 0.00000000e+00 0.00000000e+00 0.00000000e+00 9.94005499e-03]","[[9.95914426e-06 4.15532398e-11 7.82181047e-11]
 [4.15532398e-11 2.22432020e-05 1.10497724e-05]
 [7.82181047e-11 1.10497724e-05 9.94005499e-06]]",[-1.10662025e+00  9.23177843e-09  1.34227642e-08],0.0730644719407674,1.222980050563649e-14
1786949717.9725947,1.1066092288376153,-9.277408422613749e-09,-1.3509086738139331e-08,"[9.95914426e-03 4.15532398e-08 0.00000000e+00 0.00000000e+00
 0.00000000e+00 7.82181047e-08 4.15532398e-08 2.22432020e-02
 0.00000000e+00 0.00000000e+00 0.00000000e+00 1.10497724e-02
 0.00000000e+00 0.00000000e+00 0.00000000e+00 0.00000000e+00
 0.00000000e+00 0.00000000e+00 0.00000000e+00 0.00000000e+00
 0.00000000e+00 0.00000000e+00 0.00000000e+00 0.00000000e+00
 0.00000000e+00 0.00000000e+00 0.00000000e+00 0.00000000e+00
 0.00000000e+00 0.00000000e+00 7.82181047e-08 1.10497724e-02
 0.00000000e+00 0.00000000e+00 0.00000000e+00 9.94005499e-03]","[[9.95914426e-06 4.15532398e-11 7.82181047e-11]
 [4.15532398e-11 2.22432020e-05 1.10497724e-05]
 [7.82181047e-11 1.10497724e-05 9.94005499e-06]]",[-1.10662025e+00  9.23177843e-09  1.34227642e-08],0.0730644719407674,1.222980050563649e-14
1786949718.0209343,1.11358792548715,-9.604442474924107e-09,-1.3945068211285161e-08,"[9.95864908e-03 4.20920940e-08 0.00000000e+00 0.00000000e+00
 0.00000000e+00 7.89469079e-08 4.20920940e-08 2.23950798e-02
 0.00000000e+00 0.00000000e+00 0.00000000e+00 1.11174764e-02
 0.00000000e+00 0.00000000e+00 0.00000000e+00 0.00000000e+00
 0.00000000e+00 0.00000000e+00 0.00000000e+00 0.00000000e+00
 0.00000000e+00 0.00000000e+00 0.00000000e+00 0.00000000e+00
 0.00000000e+00 0.00000000e+00 0.00000000e+00 0.00000000e+00
 0.00000000e+00 0.00000000e+00 7.89469079e-08 1.11174764e-02
 0.00000000e+00 0.00000000e+00 0.00000000e+00 9.93896091e-03]","[[9.95864908e-06 4.20920940e-11 7.89469079e-11]
 [4.20920940e-11 2.23950798e-05 1.11174764e-05]
 [7.89469079e-11 1.11174764e-05 9.93896091e-06]]",[-1.11359902e+00  9.55793687e-09  1.38573970e-08],0.07233012199690042,3.41740524767431e-14
1786949718.0717165,1.1164799463662871,-9.738771442354948e-09,-1.4121243729903199e-08,"[9.95845104e-03 4.23171682e-08 0.00000000e+00 0.00000000e+00
 0.00000000e+00 7.92563577e-08 4.23171682e-08 2.24583764e-02
 0.00000000e+00 0.00000000e+00 0.00000000e+00 1.11455725e-02
 0.00000000e+00 0.00000000e+00 0.00000000e+00 0.00000000e+00
 0.00000000e+00 0.00000000e+00 0.00000000e+00 0.00000000e+00
 0.00000000e+00 0.00000000e+00 0.00000000e+00 0.00000000e+00
 0.00000000e+00 0.00000000e+00 0.00000000e+00 0.00000000e+00
 0.00000000e+00 0.00000000e+00 7.92563577e-08 1.11455725e-02
 0.00000000e+00 0.00000000e+00 0.00000000e+00 9.93852157e-03]","[[9.95845104e-06 4.23171682e-11 7.92563577e-11]
 [4.23171682e-11 2.24583764e-05 1.11455725e-05]
 [7.92563577e-11 1.11455725e-05 9.93852157e-06]]",[-1.11649106e+00  9.69189877e-09  1.40330023e-08],0.07160498490077773,2.0261570199409107e-13
1786949718.1212566,1.1213997812513479,-9.951050718566748e-09,-1.4388262137288166e-08,"[9.95815414e-03 4.27043911e-08 0.00000000e+00 0.00000000e+00
 0.00000000e+00 7.98715721e-08 4.27043911e-08 2.25670270e-02
 0.00000000e+00 0.00000000e+00 0.00000000e+00 1.11936637e-02
 0.00000000e+00 0.00000000e+00 0.00000000e+00 0.00000000e+00
 0.00000000e+00 0.00000000e+00 0.00000000e+00 0.00000000e+00
 0.00000000e+00 0.00000000e+00 0.00000000e+00 0.00000000e+00
 0.00000000e+00 0.00000000e+00 0.00000000e+00 0.00000000e+00
 0.00000000e+00 0.00000000e+00 7.98715721e-08 1.11936637e-02
 0.00000000e+00 0.00000000e+00 0.00000000e+00 9.93786299e-03]","[[9.95815414e-06 4.27043911e-11 7.98715721e-11]
 [4.27043911e-11 2.25670270e-05 1.11936637e-05]
 [7.98715721e-11 1.11936637e-05 9.93786299e-06]]",[-1.12141095e+00  9.90354510e-09  1.42989460e-08],0.07088639707320943,6.531233887052679e-14
1786949718.1731653,1.1248884312087986,-1.0145447351538963e-08,-1.4657458802247447e-08,"[9.95785697e-03 4.29783354e-08 0.00000000e+00 0.00000000e+00
 0.00000000e+00 8.01882123e-08 4.29783354e-08 2.26436951e-02
 0.00000000e+00 0.00000000e+00 0.00000000e+00 1.12273967e-02
 0.00000000e+00 0.00000000e+00 0.00000000e+00 0.00000000e+00
 0.00000000e+00 0.00000000e+00 0.00000000e+00 0.00000000e+00
 0.00000000e+00 0.00000000e+00 0.00000000e+00 0.00000000e+00
 0.00000000e+00 0.00000000e+00 0.00000000e+00 0.00000000e+00
 0.00000000e+00 0.00000000e+00 8.01882123e-08 1.12273967e-02
 0.00000000e+00 0.00000000e+00 0.00000000e+00 9.93719591e-03]","[[9.95795599e-06 4.28731192e-11 8.00493513e-11]
 [4.28731192e-11 2.26142522e-05 1.12144423e-05]
 [8.00493513e-11 1.12144423e-05 9.93741786e-06]]",[-1.12357042e+00  1.00301851e-08  1.44778274e-08],0.07017286228158476,8.482797797526587e-14
1786949718.2270696,1.1276601690438297,-1.0282978577160264e-08,-1.4838199557942744e-08,"[9.95765895e-03 4.31973371e-08 0.00000000e+00 0.00000000e+00
 0.00000000e+00 8.04903461e-08 4.31973371e-08 2.27049215e-02
 0.00000000e+00 0.00000000e+00 0.00000000e+00 1.12542918e-02
 0.00000000e+00 0.00000000e+00 0.00000000e+00 0.00000000e+00
 0.00000000e+00 0.00000000e+00 0.00000000e+00 0.00000000e+00
 0.00000000e+00 0.00000000e+00 0.00000000e+00 0.00000000e+00
 0.00000000e+00 0.00000000e+00 0.00000000e+00 0.00000000e+00
 0.00000000e+00 0.00000000e+00 8.04903461e-08 1.12542918e-02
 0.00000000e+00 0.00000000e+00 0.00000000e+00 9.93675161e-03]","[[9.95765895e-06 4.31973371e-11 8.04903461e-11]
 [4.31973371e-11 2.27049215e-05 1.12542918e-05]
 [8.04903461e-11 1.12542918e-05 9.93675161e-06]]",[-1.12767140e+00  1.02346645e-08  1.47476946e-08],0.06946827951959625,9.809861256648844e-14
1786949718.2734005,1.1304871340414215,-1.0422592562205563e-08,-1.5020340971005908e-08,"[9.95746100e-03 4.34211828e-08 0.00000000e+00 0.00000000e+00
 0.00000000e+00 8.08514705e-08 4.34211828e-08 2.27674038e-02
 0.00000000e+00 0.00000000e+00 0.00000000e+00 1.12816726e-02
 0.00000000e+00 0.00000000e+00 0.00000000e+00 0.00000000e+00
 0.00000000e+00 0.00000000e+00 0.00000000e+00 0.00000000e+00
 0.00000000e+00 0.00000000e+00 0.00000000e+00 0.00000000e+00
 0.00000000e+00 0.00000000e+00 0.00000000e+00 0.00000000e+00
 0.00000000e+00 0.00000000e+00 8.08514705e-08 1.12816726e-02
 0.00000000e+00 0.00000000e+00 0.00000000e+00 9.93630718e-03]","[[9.95746100e-06 4.34211828e-11 8.08514705e-11]
 [4.34211828e-11 2.27674038e-05 1.12816726e-05]
 [8.08514705e-11 1.12816726e-05 9.93630718e-06]]",[-1.13049839e+00  1.03739096e-08  1.49292041e-08],0.06946827951959622,9.809861256648844e-14
1786949718.3218503,1.1347175672497194,-1.0634211624948597e-08,-1.529566651115033e-08,"[9.95716404e-03 4.37590029e-08 0.00000000e+00 0.00000000e+00
 0.00000000e+00 8.13441597e-08 4.37590029e-08 2.28614716e-02
 0.00000000e+00 0.00000000e+00 0.00000000e+00 1.13227650e-02
 0.00000000e+00 0.00000000e+00 0.00000000e+00 0.00000000e+00
 0.00000000e+00 0.00000000e+00 0.00000000e+00 0.00000000e+00
 0.00000000e+00 0.00000000e+00 0.00000000e+00 0.00000000e+00
 0.00000000e+00 0.00000000e+00 0.00000000e+00 0.00000000e+00
 0.00000000e+00 0.00000000e+00 8.13441597e-08 1.13227650e-02
 0.00000000e+00 0.00000000e+00 0.00000000e+00 9.93563736e-03]","[[9.95716404e-06 4.37590029e-11 8.13441597e-11]
 [4.37590029e-11 2.28614716e-05 1.13227650e-05]
 [8.13441597e-11 1.13227650e-05 9.93563736e-06]]",[-1.13472887e+00  1.05849712e-08  1.52036339e-08],0.06877077839335283,1.9038590148845458e-13
1786949718.3708467,1.1373416194181836,-1.0773818011745504e-08,-1.5480564385939033e-08,"[9.95696603e-03 4.39692028e-08 0.00000000e+00 0.00000000e+00
 0.00000000e+00 8.16264382e-08 4.39692028e-08 2.29198916e-02
 0.00000000e+00 0.00000000e+00 0.00000000e+00 1.13481947e-02
 0.00000000e+00 0.00000000e+00 0.00000000e+00 0.00000000e+00
 0.00000000e+00 0.00000000e+00 0.00000000e+00 0.00000000e+00
 0.00000000e+00 0.00000000e+00 0.00000000e+00 0.00000000e+00
 0.00000000e+00 0.00000000e+00 0.00000000e+00 0.00000000e+00
 0.00000000e+00 0.00000000e+00 8.16264382e-08 1.13481947e-02
 0.00000000e+00 0.00000000e+00 0.00000000e+00 9.93518846e-03]","[[9.95696603e-06 4.39692028e-11 8.16264382e-11]
 [4.39692028e-11 2.29198916e-05 1.13481947e-05]
 [8.16264382e-11 1.13481947e-05 9.93518846e-06]]",[-1.13735294e+00  1.07242299e-08  1.53880011e-08],0.06808062935404749,2.7722615869585354e-12
1786949718.451623,1.141345115773132,-1.098653321032007e-08,-1.57600172911998e-08,"[9.95666906e-03 4.42897167e-08 0.00000000e+00 0.00000000e+00
 0.00000000e+00 8.20779113e-08 4.42897167e-08 2.30088152e-02
 0.00000000e+00 0.00000000e+00 0.00000000e+00 1.13867915e-02
 0.00000000e+00 0.00000000e+00 0.00000000e+00 0.00000000e+00
 0.00000000e+00 0.00000000e+00 0.00000000e+00 0.00000000e+00
 0.00000000e+00 0.00000000e+00 0.00000000e+00 0.00000000e+00
 0.00000000e+00 0.00000000e+00 0.00000000e+00 0.00000000e+00
 0.00000000e+00 0.00000000e+00 8.20779113e-08 1.13867915e-02
 0.00000000e+00 0.00000000e+00 0.00000000e+00 9.93451349e-03]","[[9.95666906e-06 4.42897167e-11 8.20779113e-11]
 [4.42897167e-11 2.30088152e-05 1.13867915e-05]
 [8.20779113e-11 1.13867915e-05 9.93451349e-06]]",[-1.14135648e+00  1.09364129e-08  1.56666173e-08],0.0667176155728085,1.46150452851046e-13
1786949718.4719975,1.1454260744871363,-1.1203248665416713e-08,-1.6042182693354334e-08,"[9.95637216e-03 4.46205612e-08 0.00000000e+00 0.00000000e+00
 0.00000000e+00 8.25849203e-08 4.46205612e-08 2.31003980e-02
 0.00000000e+00 0.00000000e+00 0.00000000e+00 1.14264071e-02
 0.00000000e+00 0.00000000e+00 0.00000000e+00 0.00000000e+00
 0.00000000e+00 0.00000000e+00 0.00000000e+00 0.00000000e+00
 0.00000000e+00 0.00000000e+00 0.00000000e+00 0.00000000e+00
 0.00000000e+00 0.00000000e+00 0.00000000e+00 0.00000000e+00
 0.00000000e+00 0.00000000e+00 8.25849203e-08 1.14264071e-02
 0.00000000e+00 0.00000000e+00 0.00000000e+00 9.93383696e-03]","[[9.95637216e-06 4.46205612e-11 8.25849203e-11]
 [4.46205612e-11 2.31003980e-05 1.14264071e-05]
 [8.25849203e-11 1.14264071e-05 9.93383696e-06]]",[-1.14543748e+00  1.11525785e-08  1.59478728e-08],0.06671761557278742,4.1217029789208937e-13
1786949718.5379632,1.1485118727133063,-1.1355219606298908e-08,-1.6231834987223692e-08,"[9.95617433e-03 4.48706621e-08 0.00000000e+00 0.00000000e+00
 0.00000000e+00 8.30147354e-08 4.48706621e-08 2.31694846e-02
 0.00000000e+00 0.00000000e+00 0.00000000e+00 1.14562198e-02
 0.00000000e+00 0.00000000e+00 0.00000000e+00 0.00000000e+00
 0.00000000e+00 0.00000000e+00 0.00000000e+00 0.00000000e+00
 0.00000000e+00 0.00000000e+00 0.00000000e+00 0.00000000e+00
 0.00000000e+00 0.00000000e+00 0.00000000e+00 0.00000000e+00
 0.00000000e+00 0.00000000e+00 8.30147354e-08 1.14562198e-02
 0.00000000e+00 0.00000000e+00 0.00000000e+00 9.93338632e-03]","[[9.95617433e-06 4.48706621e-11 8.30147354e-11]
 [4.48706621e-11 2.31694846e-05 1.14562198e-05]
 [8.30147354e-11 1.14562198e-05 9.93338632e-06]]",[-1.14852331e+00  1.13041314e-08  1.61367804e-08],0.06604739898724696,3.131175874138137e-14
1786949718.571656,1.151007153395629,-1.1498912280415119e-08,-1.6422920801062446e-08,"[9.95597638e-03 4.50712788e-08 0.00000000e+00 0.00000000e+00
 0.00000000e+00 8.33127976e-08 4.50712788e-08 2.32247444e-02
 0.00000000e+00 0.00000000e+00 0.00000000e+00 1.14799715e-02
 0.00000000e+00 0.00000000e+00 0.00000000e+00 0.00000000e+00
 0.00000000e+00 0.00000000e+00 0.00000000e+00 0.00000000e+00
 0.00000000e+00 0.00000000e+00 0.00000000e+00 0.00000000e+00
 0.00000000e+00 0.00000000e+00 0.00000000e+00 0.00000000e+00
 0.00000000e+00 0.00000000e+00 8.33127976e-08 1.14799715e-02
 0.00000000e+00 0.00000000e+00 0.00000000e+00 9.93293172e-03]","[[9.95597638e-06 4.50712788e-11 8.33127976e-11]
 [4.50712788e-11 2.32247444e-05 1.14799715e-05]
 [8.33127976e-11 1.14799715e-05 9.93293172e-06]]",[-1.15101861e+00  1.14474877e-08  1.63273199e-08],0.06538022283152059,1.8275311819415663e-13
1786949718.6267948,1.1547863866314136,-1.1717189177134705e-08,-1.671118310397901e-08,"[9.95567946e-03 4.53799601e-08 0.00000000e+00 0.00000000e+00
 0.00000000e+00 8.37583773e-08 4.53799601e-08 2.33096433e-02
 0.00000000e+00 0.00000000e+00 0.00000000e+00 1.15163685e-02
 0.00000000e+00 0.00000000e+00 0.00000000e+00 0.00000000e+00
 0.00000000e+00 0.00000000e+00 0.00000000e+00 0.00000000e+00
 0.00000000e+00 0.00000000e+00 0.00000000e+00 0.00000000e+00
 0.00000000e+00 0.00000000e+00 0.00000000e+00 0.00000000e+00
 0.00000000e+00 0.00000000e+00 8.37583773e-08 1.15163685e-02
 0.00000000e+00 0.00000000e+00 0.00000000e+00 9.93224800e-03]","[[9.95567946e-06 4.53799601e-11 8.37583773e-11]
 [4.53799601e-11 2.33096433e-05 1.15163685e-05]
 [8.37583773e-11 1.15163685e-05 9.93224800e-06]]",[-1.15479788e+00  1.16652477e-08  1.66147585e-08],0.06472441603429485,1.9810542095655137e-13
1786949718.6733363,1.1584218932550743,-1.1935698489552414e-08,-1.7001993146692485e-08,"[9.95538253e-03 4.56789324e-08 0.00000000e+00 0.00000000e+00
 0.00000000e+00 8.41697793e-08 4.56789324e-08 2.33916756e-02
 0.00000000e+00 0.00000000e+00 0.00000000e+00 1.15514120e-02
 0.00000000e+00 0.00000000e+00 0.00000000e+00 0.00000000e+00
 0.00000000e+00 0.00000000e+00 0.00000000e+00 0.00000000e+00
 0.00000000e+00 0.00000000e+00 0.00000000e+00 0.00000000e+00
 0.00000000e+00 0.00000000e+00 0.00000000e+00 0.00000000e+00
 0.00000000e+00 0.00000000e+00 8.41697793e-08 1.15514120e-02
 0.00000000e+00 0.00000000e+00 0.00000000e+00 9.93156105e-03]","[[9.95538253e-06 4.56789324e-11 8.41697793e-11]
 [4.56789324e-11 2.33916756e-05 1.15514120e-05]
 [8.41697793e-11 1.15514120e-05 9.93156105e-06]]",[-1.15843343e+00  1.18832557e-08  1.69047931e-08],0.06472441603429487,1.9984014443252818e-13
1786949718.7255807,1.160959916242325,-1.2084785192809828e-08,-1.719725473137146e-08,"[9.95518461e-03 4.58901863e-08 0.00000000e+00 0.00000000e+00
 0.00000000e+00 8.44708320e-08 4.58901863e-08 2.34495428e-02
 0.00000000e+00 0.00000000e+00 0.00000000e+00 1.15760756e-02
 0.00000000e+00 0.00000000e+00 0.00000000e+00 0.00000000e+00
 0.00000000e+00 0.00000000e+00 0.00000000e+00 0.00000000e+00
 0.00000000e+00 0.00000000e+00 0.00000000e+00 0.00000000e+00
 0.00000000e+00 0.00000000e+00 0.00000000e+00 0.00000000e+00
 0.00000000e+00 0.00000000e+00 8.44708320e-08 1.15760756e-02
 0.00000000e+00 0.00000000e+00 0.00000000e+00 9.93110225e-03]","[[9.95518461e-06 4.58901863e-11 8.44708320e-11]
 [4.58901863e-11 2.34495428e-05 1.15760756e-05]
 [8.44708320e-11 1.15760756e-05 9.93110225e-06]]",[-1.16097147e+00  1.20319881e-08  1.70994956e-08],0.06407618816375069,2.1241688963336003e-13
1786949718.7779424,1.1636314554238723,-1.2237419761388162e-08,-1.7393821494238182e-08,"[9.95498674e-03 4.61118619e-08 0.00000000e+00 0.00000000e+00
 0.00000000e+00 8.48143356e-08 4.61118619e-08 2.35101660e-02
 0.00000000e+00 0.00000000e+00 0.00000000e+00 1.16018632e-02
 0.00000000e+00 0.00000000e+00 0.00000000e+00 0.00000000e+00
 0.00000000e+00 0.00000000e+00 0.00000000e+00 0.00000000e+00
 0.00000000e+00 0.00000000e+00 0.00000000e+00 0.00000000e+00
 0.00000000e+00 0.00000000e+00 0.00000000e+00 0.00000000e+00
 0.00000000e+00 0.00000000e+00 8.48143356e-08 1.16018632e-02
 0.00000000e+00 0.00000000e+00 0.00000000e+00 9.93064311e-03]","[[9.95498674e-06 4.61118619e-11 8.48143356e-11]
 [4.61118619e-11 2.35101660e-05 1.16018632e-05]
 [8.48143356e-11 1.16018632e-05 9.93064311e-06]]",[-1.16364304e+00  1.21842491e-08  1.72954411e-08],0.06343218514275442,2.2091703466564638e-13
1786949718.8223226,1.1672805617694133,-1.2462436798709786e-08,-1.7691240916661854e-08,"[9.95468996e-03 4.64155234e-08 0.00000000e+00 0.00000000e+00
 0.00000000e+00 8.53427015e-08 4.64155234e-08 2.35930068e-02
 0.00000000e+00 0.00000000e+00 0.00000000e+00 1.16369790e-02
 0.00000000e+00 0.00000000e+00 0.00000000e+00 0.00000000e+00
 0.00000000e+00 0.00000000e+00 0.00000000e+00 0.00000000e+00
 0.00000000e+00 0.00000000e+00 0.00000000e+00 0.00000000e+00
 0.00000000e+00 0.00000000e+00 0.00000000e+00 0.00000000e+00
 0.00000000e+00 0.00000000e+00 8.53427015e-08 1.16369790e-02
 0.00000000e+00 0.00000000e+00 0.00000000e+00 9.92995248e-03]","[[9.95468996e-06 4.64155234e-11 8.53427015e-11]
 [4.64155234e-11 2.35930068e-05 1.16369790e-05]
 [8.53427015e-11 1.16369790e-05 9.92995248e-06]]",[-1.16729218e+00  1.24087538e-08  1.75919403e-08],0.06215999166355025,2.3670301829703533e-13
1786949718.874595,1.1710447600387293,-1.2692145675804554e-08,-1.7990973599779636e-08,"[9.95439314e-03 4.67296576e-08 0.00000000e+00 0.00000000e+00
 0.00000000e+00 8.58081014e-08 4.67296576e-08 2.36784472e-02
 0.00000000e+00 0.00000000e+00 0.00000000e+00 1.16730884e-02
 0.00000000e+00 0.00000000e+00 0.00000000e+00 0.00000000e+00
 0.00000000e+00 0.00000000e+00 0.00000000e+00 0.00000000e+00
 0.00000000e+00 0.00000000e+00 0.00000000e+00 0.00000000e+00
 0.00000000e+00 0.00000000e+00 0.00000000e+00 0.00000000e+00
 0.00000000e+00 0.00000000e+00 8.58081014e-08 1.16730884e-02
 0.00000000e+00 0.00000000e+00 0.00000000e+00 9.92925827e-03]","[[9.95439314e-06 4.67296576e-11 8.58081014e-11]
 [4.67296576e-11 2.36784472e-05 1.16730884e-05]
 [8.58081014e-11 1.16730884e-05 9.92925827e-06]]",[-1.17105642e+00  1.26379307e-08  1.78908128e-08],0.062159991663550254,2.3913163116340286e-13
1786949718.9308393,1.173590196479798,-1.2847463258839153e-08,-1.8192172657194305e-08,"[9.95419528e-03 4.69434440e-08 0.00000000e+00 0.00000000e+00
 0.00000000e+00 8.61334253e-08 4.69434440e-08 2.37364820e-02
 0.00000000e+00 0.00000000e+00 0.00000000e+00 1.16975518e-02
 0.00000000e+00 0.00000000e+00 0.00000000e+00 0.00000000e+00
 0.00000000e+00 0.00000000e+00 0.00000000e+00 0.00000000e+00
 0.00000000e+00 0.00000000e+00 0.00000000e+00 0.00000000e+00
 0.00000000e+00 0.00000000e+00 0.00000000e+00 0.00000000e+00
 0.00000000e+00 0.00000000e+00 8.61334253e-08 1.16975518e-02
