time,x,y,yaw,cov_prop,K_gain,innovation,v_ekf,omega_ekf
1786949395.6233947,0.00011225281121546028,-2.44067838974892e-19,4.347633364432113e-13,"[9.99930361e-03 2.13860339e-12 0.00000000e+00 0.00000000e+00
 0.00000000e+00 3.66887972e-09 2.13860339e-12 9.99930850e-03
 0.00000000e+00 0.00000000e+00 0.00000000e+00 9.19376829e-06
 0.00000000e+00 0.00000000e+00 0.00000000e+00 0.00000000e+00
 0.00000000e+00 0.00000000e+00 0.00000000e+00 0.00000000e+00
 0.00000000e+00 0.00000000e+00 0.00000000e+00 0.00000000e+00
 0.00000000e+00 0.00000000e+00 0.00000000e+00 0.00000000e+00
 0.00000000e+00 0.00000000e+00 3.66887972e-09 9.19376829e-06
 0.00000000e+00 0.00000000e+00 0.00000000e+00 9.99937457e-03]","[[9.99930361e-06 2.13860339e-15 3.66887972e-12]
 [2.13860339e-15 9.99930850e-06 9.19376829e-09]
 [3.66887972e-12 9.19376829e-09 9.99937457e-06]]",[-1.12253934e-04 -2.93262834e-36 -4.35207426e-13],0.010999999981275318,2.5164863682453076e-11
1786949395.648718,0.00011225281121546028,-2.44067838974892e-19,4.347633364432113e-13,"[9.99930361e-03 2.13860339e-12 0.00000000e+00 0.00000000e+00
 0.00000000e+00 3.66887972e-09 2.13860339e-12 9.99930850e-03
 0.00000000e+00 0.00000000e+00 0.00000000e+00 9.19376829e-06
 0.00000000e+00 0.00000000e+00 0.00000000e+00 0.00000000e+00
 0.00000000e+00 0.00000000e+00 0.00000000e+00 0.00000000e+00
 0.00000000e+00 0.00000000e+00 0.00000000e+00 0.00000000e+00
 0.00000000e+00 0.00000000e+00 0.00000000e+00 0.00000000e+00
 0.00000000e+00 0.00000000e+00 3.66887972e-09 9.19376829e-06
 0.00000000e+00 0.00000000e+00 0.00000000e+00 9.99937457e-03]","[[9.99930361e-06 2.13860339e-15 3.66887972e-12]
 [2.13860339e-15 9.99930850e-06 9.19376829e-09]
 [3.66887972e-12 9.19376829e-09 9.99937457e-06]]",[-1.12253934e-04 -2.93262834e-36 -4.35207426e-13],0.010999999981275318,2.5164863682453076e-11
1786949395.7360704,0.0016883832865168056,2.793731056258346e-15,3.042899265892629e-12,"[9.99890522e-03 1.47810380e-11 0.00000000e+00 0.00000000e+00
 0.00000000e+00 5.25005713e-09 1.47810380e-11 9.99904698e-03
 0.00000000e+00 0.00000000e+00 0.00000000e+00 3.83199857e-05
 0.00000000e+00 0.00000000e+00 0.00000000e+00 0.00000000e+00
 0.00000000e+00 0.00000000e+00 0.00000000e+00 0.00000000e+00
 0.00000000e+00 0.00000000e+00 0.00000000e+00 0.00000000e+00
 0.00000000e+00 0.00000000e+00 0.00000000e+00 0.00000000e+00
 0.00000000e+00 0.00000000e+00 5.25005713e-09 3.83199857e-05
 0.00000000e+00 0.00000000e+00 0.00000000e+00 9.99900675e-03]","[[9.99890522e-06 1.47810380e-14 5.25005713e-12]
 [1.47810380e-14 9.99904698e-06 3.83199857e-08]
 [5.25005713e-12 3.83199857e-08 9.99900675e-06]]",[-1.68840017e-03 -2.81883249e-15 -3.05178105e-12],0.031999999981275354,2.497112759625164e-11
1786949395.7909074,0.0031468184947545438,7.363923424700822e-15,4.380940055170868e-12,"[9.99870607e-03 2.73603081e-11 0.00000000e+00 0.00000000e+00
 0.00000000e+00 6.07455985e-09 2.73603081e-11 9.99908002e-03
 0.00000000e+00 0.00000000e+00 0.00000000e+00 6.16282819e-05
 0.00000000e+00 0.00000000e+00 0.00000000e+00 0.00000000e+00
 0.00000000e+00 0.00000000e+00 0.00000000e+00 0.00000000e+00
 0.00000000e+00 0.00000000e+00 0.00000000e+00 0.00000000e+00
 0.00000000e+00 0.00000000e+00 0.00000000e+00 0.00000000e+00
 0.00000000e+00 0.00000000e+00 6.07455985e-09 6.16282819e-05
 0.00000000e+00 0.00000000e+00 0.00000000e+00 9.99882354e-03]","[[9.99870607e-06 2.73603081e-14 6.07455985e-12]
 [2.73603081e-14 9.99908002e-06 6.16282819e-08]
 [6.07455985e-12 6.16282819e-08 9.99882354e-06]]",[-3.14684996e-03 -7.45036787e-15 -4.40003589e-12],0.04399999998127535,2.4620800190278125e-11
1786949395.8049843,0.0031468184947545438,7.363923424700822e-15,4.380940055170868e-12,"[9.99870607e-03 2.73603081e-11 0.00000000e+00 0.00000000e+00
 0.00000000e+00 6.07455985e-09 2.73603081e-11 9.99908002e-03
 0.00000000e+00 0.00000000e+00 0.00000000e+00 6.16282819e-05
 0.00000000e+00 0.00000000e+00 0.00000000e+00 0.00000000e+00
 0.00000000e+00 0.00000000e+00 0.00000000e+00 0.00000000e+00
 0.00000000e+00 0.00000000e+00 0.00000000e+00 0.00000000e+00
 0.00000000e+00 0.00000000e+00 0.00000000e+00 0.00000000e+00
 0.00000000e+00 0.00000000e+00 6.07455985e-09 6.16282819e-05
 0.00000000e+00 0.00000000e+00 0.00000000e+00 9.99882354e-03]","[[9.99870607e-06 2.73603081e-14 6.07455985e-12]
 [2.73603081e-14 9.99908002e-06 6.16282819e-08]
 [6.07455985e-12 6.16282819e-08 9.99882354e-06]]",[-3.14684996e-03 -7.45036787e-15 -4.40003589e-12],0.04399999998127535,2.4620800190278125e-11
1786949395.853108,0.00780527601553827,3.022109914081732e-14,6.66489086142974e-12,"[9.99830729e-03 6.50512780e-11 0.00000000e+00 0.00000000e+00
 0.00000000e+00 7.20780190e-09 6.50512780e-11 9.99971276e-03
 0.00000000e+00 0.00000000e+00 0.00000000e+00 1.18838018e-04
 0.00000000e+00 0.00000000e+00 0.00000000e+00 0.00000000e+00
 0.00000000e+00 0.00000000e+00 0.00000000e+00 0.00000000e+00
 0.00000000e+00 0.00000000e+00 0.00000000e+00 0.00000000e+00
 0.00000000e+00 0.00000000e+00 0.00000000e+00 0.00000000e+00
 0.00000000e+00 0.00000000e+00 7.20780190e-09 1.18838018e-04
 0.00000000e+00 0.00000000e+00 0.00000000e+00 9.99844663e-03]","[[9.99830729e-06 6.50512780e-14 7.20780190e-12]
 [6.50512780e-14 9.99971276e-06 1.18838018e-07]
 [7.20780190e-12 1.18838018e-07 9.99844663e-06]]",[-7.80535406e-03 -3.07299534e-14 -6.72129019e-12],0.06699999998127537,2.4273638654648266e-11
1786949395.970796,0.010488876232069944,4.7074968127292044e-14,7.498002219108457e-12,"[9.99810767e-03 8.63665747e-11 0.00000000e+00 0.00000000e+00
 0.00000000e+00 7.52172717e-09 8.63665747e-11 1.00002934e-02
 0.00000000e+00 0.00000000e+00 0.00000000e+00 1.48077378e-04
 0.00000000e+00 0.00000000e+00 0.00000000e+00 0.00000000e+00
 0.00000000e+00 0.00000000e+00 0.00000000e+00 0.00000000e+00
 0.00000000e+00 0.00000000e+00 0.00000000e+00 0.00000000e+00
 0.00000000e+00 0.00000000e+00 0.00000000e+00 0.00000000e+00
 0.00000000e+00 0.00000000e+00 7.52172717e-09 1.48077378e-04
 0.00000000e+00 0.00000000e+00 0.00000000e+00 9.99825304e-03]","[[9.99810767e-06 8.63665747e-14 7.52172717e-12]
 [8.63665747e-14 1.00002934e-05 1.48077378e-07]
 [7.52172717e-12 1.48077378e-07 9.99825304e-06]]",[-1.04889811e-02 -4.79824673e-14 -7.57705010e-12],0.07399999998127535,2.3931117504316646e-11
1786949395.9994912,0.017631936652200246,9.863097338019679e-14,9.755307672776325e-12,"[9.99791062e-03 1.53441951e-10 0.00000000e+00 0.00000000e+00
 0.00000000e+00 1.04729309e-08 1.53441951e-10 1.00032268e-02
 0.00000000e+00 0.00000000e+00 0.00000000e+00 2.30766999e-04
 0.00000000e+00 0.00000000e+00 0.00000000e+00 0.00000000e+00
 0.00000000e+00 0.00000000e+00 0.00000000e+00 0.00000000e+00
 0.00000000e+00 0.00000000e+00 0.00000000e+00 0.00000000e+00
 0.00000000e+00 0.00000000e+00 0.00000000e+00 0.00000000e+00
 0.00000000e+00 0.00000000e+00 1.04729309e-08 2.30766999e-04
 0.00000000e+00 0.00000000e+00 0.00000000e+00 9.99811296e-03]","[[9.99791062e-06 1.53441951e-13 1.04729309e-11]
 [1.53441951e-13 1.00032268e-05 2.30766999e-07]
 [1.04729309e-11 2.30766999e-07 9.99811296e-06]]",[-1.76321129e-02 -1.01339787e-13 -9.94004878e-12],0.07699999998127538,2.3931117504316646e-11
1786949396.0646803,0.021463927463519845,1.2566766549841102e-13,1.0394796134960416e-11,"[9.99761113e-03 2.03393008e-10 0.00000000e+00 0.00000000e+00
 0.00000000e+00 1.08609270e-08 2.03393008e-10 1.00053244e-02
 0.00000000e+00 0.00000000e+00 0.00000000e+00 2.77886349e-04
 0.00000000e+00 0.00000000e+00 0.00000000e+00 0.00000000e+00
 0.00000000e+00 0.00000000e+00 0.00000000e+00 0.00000000e+00
 0.00000000e+00 0.00000000e+00 0.00000000e+00 0.00000000e+00
 0.00000000e+00 0.00000000e+00 0.00000000e+00 0.00000000e+00
 0.00000000e+00 0.00000000e+00 1.08609270e-08 2.77886349e-04
 0.00000000e+00 0.00000000e+00 0.00000000e+00 9.99782077e-03]","[[9.99761113e-06 2.03393008e-13 1.08609270e-11]
 [2.03393008e-13 1.00053244e-05 2.77886349e-07]
 [1.08609270e-11 2.77886349e-07 9.99782077e-06]]",[-2.14641421e-02 -1.30037576e-13 -1.06279430e-11],0.09599999998127538,2.3931204240490445e-11
1786949396.1059573,0.02534869254942899,1.5470858560897787e-13,1.0831779917452877e-11,"[9.99741157e-03 2.52178700e-10 0.00000000e+00 0.00000000e+00
 0.00000000e+00 1.12132461e-08 2.52178700e-10 1.00077963e-02
 0.00000000e+00 0.00000000e+00 0.00000000e+00 3.22384190e-04
 0.00000000e+00 0.00000000e+00 0.00000000e+00 0.00000000e+00
 0.00000000e+00 0.00000000e+00 0.00000000e+00 0.00000000e+00
 0.00000000e+00 0.00000000e+00 0.00000000e+00 0.00000000e+00
 0.00000000e+00 0.00000000e+00 0.00000000e+00 0.00000000e+00
 0.00000000e+00 0.00000000e+00 1.12132461e-08 3.22384190e-04
 0.00000000e+00 0.00000000e+00 0.00000000e+00 9.99762783e-03]","[[9.99741157e-06 2.52178700e-13 1.12132461e-11]
 [2.52178700e-13 1.00077963e-05 3.22384190e-07]
 [1.12132461e-11 3.22384190e-07 9.99762783e-06]]",[-2.53489460e-02 -1.61106246e-13 -1.11159970e-11],0.1119999999812754,2.3592239273284576e-11
1786949396.1532705,0.029648390994865395,1.8469690982418436e-13,1.1120437903855418e-11,"[9.99721200e-03 3.05345508e-10 0.00000000e+00 0.00000000e+00
 0.00000000e+00 1.15482305e-08 3.05345508e-10 1.00108484e-02
 0.00000000e+00 0.00000000e+00 0.00000000e+00 3.69378810e-04
 0.00000000e+00 0.00000000e+00 0.00000000e+00 0.00000000e+00
 0.00000000e+00 0.00000000e+00 0.00000000e+00 0.00000000e+00
 0.00000000e+00 0.00000000e+00 0.00000000e+00 0.00000000e+00
 0.00000000e+00 0.00000000e+00 0.00000000e+00 0.00000000e+00
 0.00000000e+00 0.00000000e+00 1.15482305e-08 3.69378810e-04
 0.00000000e+00 0.00000000e+00 0.00000000e+00 9.99743448e-03]","[[9.99721200e-06 3.05345508e-13 1.15482305e-11]
 [3.05345508e-13 1.00108484e-05 3.69378810e-07]
 [1.15482305e-11 3.69378810e-07 9.99743448e-06]]",[-2.96486874e-02 -1.93756177e-13 -1.14628307e-11],0.12399999998127541,2.3592412745632174e-11
1786949396.1985006,0.038664479558698416,2.322073103612708e-13,1.1255885112859687e-11,"[9.99681281e-03 4.25598223e-10 0.00000000e+00 0.00000000e+00
 0.00000000e+00 1.21303915e-08 4.25598223e-10 1.00190374e-02
 0.00000000e+00 0.00000000e+00 0.00000000e+00 4.71484509e-04
 0.00000000e+00 0.00000000e+00 0.00000000e+00 0.00000000e+00
 0.00000000e+00 0.00000000e+00 0.00000000e+00 0.00000000e+00
 0.00000000e+00 0.00000000e+00 0.00000000e+00 0.00000000e+00
 0.00000000e+00 0.00000000e+00 0.00000000e+00 0.00000000e+00
 0.00000000e+00 0.00000000e+00 1.21303915e-08 4.71484509e-04
 0.00000000e+00 0.00000000e+00 0.00000000e+00 9.99704579e-03]","[[9.99691263e-06 3.95809179e-13 1.20128857e-11]
 [3.95809179e-13 1.00168601e-05 4.46691594e-07]
 [1.20128857e-11 4.46691594e-07 9.99714357e-06]]",[-3.64550939e-02 -2.38097396e-13 -1.17541532e-11],0.13399999998127543,2.3255182501902283e-11
1786949396.2491531,0.04263442219725701,2.5632509886265834e-13,1.1456613435711915e-11,"[9.99671324e-03 4.82310571e-10 0.00000000e+00 0.00000000e+00
 0.00000000e+00 1.25101375e-08 4.82310571e-10 1.00235652e-02
 0.00000000e+00 0.00000000e+00 0.00000000e+00 5.18225927e-04
 0.00000000e+00 0.00000000e+00 0.00000000e+00 0.00000000e+00
 0.00000000e+00 0.00000000e+00 0.00000000e+00 0.00000000e+00
 0.00000000e+00 0.00000000e+00 0.00000000e+00 0.00000000e+00
 0.00000000e+00 0.00000000e+00 0.00000000e+00 0.00000000e+00
 0.00000000e+00 0.00000000e+00 1.25101375e-08 5.18225927e-04
 0.00000000e+00 0.00000000e+00 0.00000000e+00 9.99695330e-03]","[[9.99671324e-06 4.82310571e-13 1.25101375e-11]
 [4.82310571e-13 1.00235652e-05 5.18225927e-07]
 [1.25101375e-11 5.18225927e-07 9.99695330e-06]]",[-4.26348484e-02 -2.76897326e-13 -1.19899646e-11],0.14899999998127544,2.2917258368782e-11
1786949396.3020778,0.052971596002971265,2.589229888079937e-13,1.0488498958238779e-11,"[9.99631399e-03 6.22326395e-10 0.00000000e+00 0.00000000e+00
 0.00000000e+00 1.29946936e-08 6.22326395e-10 1.00357978e-02
 0.00000000e+00 0.00000000e+00 0.00000000e+00 6.28353038e-04
 0.00000000e+00 0.00000000e+00 0.00000000e+00 0.00000000e+00
 0.00000000e+00 0.00000000e+00 0.00000000e+00 0.00000000e+00
 0.00000000e+00 0.00000000e+00 0.00000000e+00 0.00000000e+00
 0.00000000e+00 0.00000000e+00 0.00000000e+00 0.00000000e+00
 0.00000000e+00 0.00000000e+00 1.29946936e-08 6.28353038e-04
 0.00000000e+00 0.00000000e+00 0.00000000e+00 9.99656203e-03]","[[9.99641383e-06 5.87899796e-13 1.29030936e-11]
 [5.87899796e-13 1.00326151e-05 6.01677650e-07]
 [1.29030936e-11 6.01677650e-07 9.99666050e-06]]",[-5.04032465e-02 -2.93725788e-13 -1.14761534e-11],0.16599999998127546,2.2917258368782e-11
1786949396.3618844,0.0571128779187314,2.635630647619816e-13,1.0298428776422952e-11,"[9.99621430e-03 6.79196900e-10 0.00000000e+00 0.00000000e+00
 0.00000000e+00 1.32331325e-08 6.79196900e-10 1.00413902e-02
 0.00000000e+00 0.00000000e+00 0.00000000e+00 6.72106266e-04
 0.00000000e+00 0.00000000e+00 0.00000000e+00 0.00000000e+00
 0.00000000e+00 0.00000000e+00 0.00000000e+00 0.00000000e+00
 0.00000000e+00 0.00000000e+00 0.00000000e+00 0.00000000e+00
 0.00000000e+00 0.00000000e+00 0.00000000e+00 0.00000000e+00
 0.00000000e+00 0.00000000e+00 1.32331325e-08 6.72106266e-04
 0.00000000e+00 0.00000000e+00 0.00000000e+00 9.99646650e-03]","[[9.99621430e-06 6.79196900e-13 1.32331325e-11]
 [6.79196900e-13 1.00413902e-05 6.72106266e-07]
 [1.32331325e-11 6.72106266e-07 9.99646650e-06]]",[-5.71134488e-02 -3.02364808e-13 -1.10542686e-11],0.17299999998127547,2.2583497572004063e-11
1786949396.3996603,0.0672467405110894,2.1450316431761505e-13,9.033662706769974e-12,"[9.99591502e-03 8.26180950e-10 0.00000000e+00 0.00000000e+00
 0.00000000e+00 1.37286389e-08 8.26180950e-10 1.00570521e-02
 0.00000000e+00 0.00000000e+00 0.00000000e+00 7.81836239e-04
 0.00000000e+00 0.00000000e+00 0.00000000e+00 0.00000000e+00
 0.00000000e+00 0.00000000e+00 0.00000000e+00 0.00000000e+00
 0.00000000e+00 0.00000000e+00 0.00000000e+00 0.00000000e+00
 0.00000000e+00 0.00000000e+00 0.00000000e+00 0.00000000e+00
 0.00000000e+00 0.00000000e+00 1.37286389e-08 7.81836239e-04
 0.00000000e+00 0.00000000e+00 0.00000000e+00 9.99617513e-03]","[[9.99591502e-06 8.26180950e-13 1.37286389e-11]
 [8.26180950e-13 1.00570521e-05 7.81836239e-07]
 [1.37286389e-11 7.81836239e-07 9.99617513e-06]]",[-6.72474127e-02 -2.70072196e-13 -9.95692417e-12],0.19599999998127543,2.2247308162359758e-11
1786949396.4523113,0.0778705408841935,9.650051645406747e-14,7.190692485892214e-12,"[9.99561568e-03 9.84090776e-10 0.00000000e+00 0.00000000e+00
 0.00000000e+00 1.41453150e-08 9.84090776e-10 1.00758617e-02
 0.00000000e+00 0.00000000e+00 0.00000000e+00 8.95691962e-04
 0.00000000e+00 0.00000000e+00 0.00000000e+00 0.00000000e+00
 0.00000000e+00 0.00000000e+00 0.00000000e+00 0.00000000e+00
 0.00000000e+00 0.00000000e+00 0.00000000e+00 0.00000000e+00
 0.00000000e+00 0.00000000e+00 0.00000000e+00 0.00000000e+00
 0.00000000e+00 0.00000000e+00 1.41453150e-08 8.95691962e-04
 0.00000000e+00 0.00000000e+00 0.00000000e+00 9.99588164e-03]","[[9.99561568e-06 9.84090776e-13 1.41453150e-11]
 [9.84090776e-13 1.00758617e-05 8.95691962e-07]
 [1.41453150e-11 8.95691962e-07 9.99588164e-06]]",[-7.78713193e-02 -1.73142136e-13 -8.29247782e-12],0.20000000003354923,-2.5543803183758484e-12
1786949396.4990706,0.08604731324299274,-2.976079754890928e-14,4.6909143236462114e-12,"[9.99541617e-03 1.10036718e-09 0.00000000e+00 0.00000000e+00
 0.00000000e+00 1.44672564e-08 1.10036718e-09 1.00909755e-02
 0.00000000e+00 0.00000000e+00 0.00000000e+00 9.77403960e-04
 0.00000000e+00 0.00000000e+00 0.00000000e+00 0.00000000e+00
 0.00000000e+00 0.00000000e+00 0.00000000e+00 0.00000000e+00
 0.00000000e+00 0.00000000e+00 0.00000000e+00 0.00000000e+00
 0.00000000e+00 0.00000000e+00 0.00000000e+00 0.00000000e+00
 0.00000000e+00 0.00000000e+00 1.44672564e-08 9.77403960e-04
 0.00000000e+00 0.00000000e+00 0.00000000e+00 9.99568652e-03]","[[9.99541617e-06 1.10036718e-12 1.44672564e-11]
 [1.10036718e-12 1.00909755e-05 9.77403960e-07]
 [1.44672564e-11 9.77403960e-07 9.99568652e-06]]",[-8.60481733e-02 -6.49302452e-14 -5.93569638e-12],0.2000000000296155,-1.0790847382313729e-11
1786949396.553233,0.09407064759260504,-2.1655772076364946e-13,1.730171561575844e-12,"[9.99521666e-03 1.21699068e-09 0.00000000e+00 0.00000000e+00
 0.00000000e+00 1.47775809e-08 1.21699068e-09 1.01071005e-02
 0.00000000e+00 0.00000000e+00 0.00000000e+00 1.05757899e-03
 0.00000000e+00 0.00000000e+00 0.00000000e+00 0.00000000e+00
 0.00000000e+00 0.00000000e+00 0.00000000e+00 0.00000000e+00
 0.00000000e+00 0.00000000e+00 0.00000000e+00 0.00000000e+00
 0.00000000e+00 0.00000000e+00 0.00000000e+00 0.00000000e+00
 0.00000000e+00 0.00000000e+00 1.47775809e-08 1.05757899e-03
 0.00000000e+00 0.00000000e+00 0.00000000e+00 9.99549086e-03]","[[9.99531641e-06 1.15636505e-12 1.46116404e-11]
 [1.15636505e-12 1.00985940e-05 1.01609980e-06]
 [1.46116404e-11 1.01609980e-06 9.99558852e-06]]",[-8.99206094e-02  1.15914969e-14 -4.56701343e-12],0.20000000002748697,-2.0880866480332827e-12
1786949396.603192,0.10745754354378363,-6.324559136840047e-13,-3.3222313788883184e-12,"[9.99491752e-03 1.41722429e-09 0.00000000e+00 0.00000000e+00
 0.00000000e+00 1.53601088e-08 1.41722429e-09 1.01369023e-02
 0.00000000e+00 0.00000000e+00 0.00000000e+00 1.19134793e-03
 0.00000000e+00 0.00000000e+00 0.00000000e+00 0.00000000e+00
 0.00000000e+00 0.00000000e+00 0.00000000e+00 0.00000000e+00
 0.00000000e+00 0.00000000e+00 0.00000000e+00 0.00000000e+00
 0.00000000e+00 0.00000000e+00 0.00000000e+00 0.00000000e+00
 0.00000000e+00 0.00000000e+00 1.53601088e-08 1.19134793e-03
 0.00000000e+00 0.00000000e+00 0.00000000e+00 9.99519905e-03]","[[9.99491752e-06 1.41722429e-12 1.53601088e-11]
 [1.41722429e-12 1.01369023e-05 1.19134793e-06]
 [1.53601088e-11 1.19134793e-06 9.99519905e-06]]",[-1.07458618e-01  4.80169809e-13  1.67155179e-12],0.2,-3.02848024436031e-12
1786949396.6535776,0.11379304767418691,-9.924215762533449e-13,-6.870060076380469e-12,"[9.99471793e-03 1.51468862e-09 0.00000000e+00 0.00000000e+00
 0.00000000e+00 1.55654026e-08 1.51468862e-09 1.01521955e-02
 0.00000000e+00 0.00000000e+00 0.00000000e+00 1.25464475e-03
 0.00000000e+00 0.00000000e+00 0.00000000e+00 0.00000000e+00
 0.00000000e+00 0.00000000e+00 0.00000000e+00 0.00000000e+00
 0.00000000e+00 0.00000000e+00 0.00000000e+00 0.00000000e+00
 0.00000000e+00 0.00000000e+00 0.00000000e+00 0.00000000e+00
 0.00000000e+00 0.00000000e+00 1.55654026e-08 1.25464475e-03
 0.00000000e+00 0.00000000e+00 0.00000000e+00 9.99500038e-03]","[[9.99471793e-06 1.51468862e-12 1.55654026e-11]
 [1.51468862e-12 1.01521955e-05 1.25464475e-06]
 [1.55654026e-11 1.25464475e-06 9.99500038e-06]]",[-1.13794185e-01  8.20073542e-13  5.09903231e-12],0.19999999999989188,-4.33143104716649e-12
1786949396.7053766,0.11379304767418691,-9.924215762533449e-13,-6.870060076380469e-12,"[9.99471793e-03 1.51468862e-09 0.00000000e+00 0.00000000e+00
 0.00000000e+00 1.55654026e-08 1.51468862e-09 1.01521955e-02
 0.00000000e+00 0.00000000e+00 0.00000000e+00 1.25464475e-03
 0.00000000e+00 0.00000000e+00 0.00000000e+00 0.00000000e+00
 0.00000000e+00 0.00000000e+00 0.00000000e+00 0.00000000e+00
 0.00000000e+00 0.00000000e+00 0.00000000e+00 0.00000000e+00
 0.00000000e+00 0.00000000e+00 0.00000000e+00 0.00000000e+00
 0.00000000e+00 0.00000000e+00 1.55654026e-08 1.25464475e-03
 0.00000000e+00 0.00000000e+00 0.00000000e+00 9.99500038e-03]","[[9.99471793e-06 1.51468862e-12 1.55654026e-11]
 [1.51468862e-12 1.01521955e-05 1.25464475e-06]
 [1.55654026e-11 1.25464475e-06 9.99500038e-06]]",[-1.13794185e-01  8.20073542e-13  5.09903231e-12],0.19999999999989188,-4.33143104716649e-12
1786949396.7536662,0.1344814780973183,-2.057135047067716e-12,-1.5161205624281138e-11,"[9.99431954e-03 1.84250224e-09 0.00000000e+00 0.00000000e+00
 0.00000000e+00 1.67699405e-08 1.84250224e-09 1.02079771e-02
 0.00000000e+00 0.00000000e+00 0.00000000e+00 1.46136153e-03
 0.00000000e+00 0.00000000e+00 0.00000000e+00 0.00000000e+00
 0.00000000e+00 0.00000000e+00 0.00000000e+00 0.00000000e+00
 0.00000000e+00 0.00000000e+00 0.00000000e+00 0.00000000e+00
 0.00000000e+00 0.00000000e+00 0.00000000e+00 0.00000000e+00
 0.00000000e+00 0.00000000e+00 1.67699405e-08 1.46136153e-03
 0.00000000e+00 0.00000000e+00 0.00000000e+00 9.99461779e-03]","[[9.99431954e-06 1.84250224e-12 1.67699405e-11]
 [1.84250224e-12 1.02079771e-05 1.46136153e-06]
 [1.67699405e-11 1.46136153e-06 9.99461779e-06]]",[-1.34482822e-01  1.80938748e-12  1.29061206e-11],0.2,-2.9689792291343053e-12
1786949396.8331277,0.14623566149319533,-3.112013510072704e-12,-2.2732926652224705e-11,"[9.99402053e-03 2.04171204e-09 0.00000000e+00 0.00000000e+00
 0.00000000e+00 1.74272731e-08 2.04171204e-09 1.02434038e-02
 0.00000000e+00 0.00000000e+00 0.00000000e+00 1.57878816e-03
 0.00000000e+00 0.00000000e+00 0.00000000e+00 0.00000000e+00
 0.00000000e+00 0.00000000e+00 0.00000000e+00 0.00000000e+00
 0.00000000e+00 0.00000000e+00 0.00000000e+00 0.00000000e+00
 0.00000000e+00 0.00000000e+00 0.00000000e+00 0.00000000e+00
 0.00000000e+00 0.00000000e+00 1.74272731e-08 1.57878816e-03
 0.00000000e+00 0.00000000e+00 0.00000000e+00 9.99432431e-03]","[[9.99402053e-06 2.04171204e-12 1.74272731e-11]
 [2.04171204e-12 1.02434038e-05 1.57878816e-06]
 [1.74272731e-11 1.57878816e-06 9.99432431e-06]]",[-1.46237123e-01  2.81350010e-12  2.01847428e-11],0.2,-2.9689792291343053e-12
1786949396.849139,0.1592663202674836,-4.1270883407849315e-12,-2.878408622564166e-11,"[9.99382193e-03 2.27113704e-09 0.00000000e+00 0.00000000e+00
 0.00000000e+00 1.86183789e-08 2.27113704e-09 1.02860395e-02
 0.00000000e+00 0.00000000e+00 0.00000000e+00 1.70898335e-03
 0.00000000e+00 0.00000000e+00 0.00000000e+00 0.00000000e+00
 0.00000000e+00 0.00000000e+00 0.00000000e+00 0.00000000e+00
 0.00000000e+00 0.00000000e+00 0.00000000e+00 0.00000000e+00
 0.00000000e+00 0.00000000e+00 0.00000000e+00 0.00000000e+00
 0.00000000e+00 0.00000000e+00 1.86183789e-08 1.70898335e-03
 0.00000000e+00 0.00000000e+00 0.00000000e+00 9.99414298e-03]","[[9.99382193e-06 2.27113704e-12 1.86183789e-11]
 [2.27113704e-12 1.02860395e-05 1.70898335e-06]
 [1.86183789e-11 1.70898335e-06 9.99414298e-06]]",[-1.59267912e-01  3.76545194e-12  2.58189026e-11],0.2,-2.9689792291343053e-12
1786949396.8989034,0.16578860720975472,-5.0996329756916775e-12,-3.502087508877594e-11,"[9.99362238e-03 2.39276588e-09 0.00000000e+00 0.00000000e+00
 0.00000000e+00 1.88252588e-08 2.39276588e-09 1.03085506e-02
 0.00000000e+00 0.00000000e+00 0.00000000e+00 1.77412912e-03
 0.00000000e+00 0.00000000e+00 0.00000000e+00 0.00000000e+00
 0.00000000e+00 0.00000000e+00 0.00000000e+00 0.00000000e+00
 0.00000000e+00 0.00000000e+00 0.00000000e+00 0.00000000e+00
 0.00000000e+00 0.00000000e+00 0.00000000e+00 0.00000000e+00
 0.00000000e+00 0.00000000e+00 1.88252588e-08 1.77412912e-03
 0.00000000e+00 0.00000000e+00 0.00000000e+00 9.99394127e-03]","[[9.99362238e-06 2.39276588e-12 1.88252588e-11]
 [2.39276588e-12 1.03085506e-05 1.77412912e-06]
 [1.88252588e-11 1.77412912e-06 9.99394127e-06]]",[-1.65790264e-01  4.70304077e-12  3.19002602e-11],0.2,-2.9689792291343053e-12
1786949396.9491837,0.17793121594803987,-6.896978348897212e-12,-4.5208725651946224e-11,"[9.99332326e-03 2.62324870e-09 0.00000000e+00 0.00000000e+00
 0.00000000e+00 1.93202733e-08 2.62324870e-09 1.03527971e-02
 0.00000000e+00 0.00000000e+00 0.00000000e+00 1.89541937e-03
 0.00000000e+00 0.00000000e+00 0.00000000e+00 0.00000000e+00
 0.00000000e+00 0.00000000e+00 0.00000000e+00 0.00000000e+00
 0.00000000e+00 0.00000000e+00 0.00000000e+00 0.00000000e+00
 0.00000000e+00 0.00000000e+00 0.00000000e+00 0.00000000e+00
 0.00000000e+00 0.00000000e+00 1.93202733e-08 1.89541937e-03
 0.00000000e+00 0.00000000e+00 0.00000000e+00 9.99364135e-03]","[[9.99332326e-06 2.62324870e-12 1.93202733e-11]
 [2.62324870e-12 1.03527971e-05 1.89541937e-06]
 [1.93202733e-11 1.89541937e-06 9.99364135e-06]]",[-1.77932994e-01  6.43036160e-12  4.17714752e-11],0.2,-2.9689792291343053e-12
1786949397.0011632,0.1859970772721659,-8.283886911108106e-12,-5.250067047768425e-11,"[9.99312384e-03 2.77956491e-09 0.00000000e+00 0.00000000e+00
 0.00000000e+00 1.96342888e-08 2.77956491e-09 1.03838149e-02
 0.00000000e+00 0.00000000e+00 0.00000000e+00 1.97598336e-03
 0.00000000e+00 0.00000000e+00 0.00000000e+00 0.00000000e+00
 0.00000000e+00 0.00000000e+00 0.00000000e+00 0.00000000e+00
 0.00000000e+00 0.00000000e+00 0.00000000e+00 0.00000000e+00
 0.00000000e+00 0.00000000e+00 0.00000000e+00 0.00000000e+00
 0.00000000e+00 0.00000000e+00 1.96342888e-08 1.97598336e-03
 0.00000000e+00 0.00000000e+00 0.00000000e+00 9.99344035e-03]","[[9.99312384e-06 2.77956491e-12 1.96342888e-11]
 [2.77956491e-12 1.03838149e-05 1.97598336e-06]
 [1.96342888e-11 1.97598336e-06 9.99344035e-06]]",[-1.85998936e-01  7.76706797e-12  4.88493690e-11],0.2,-2.9689792291343053e-12
1786949397.057615,0.19759231081171152,-1.0643864278429617e-11,-6.430189714023982e-11,"[9.99282468e-03 3.00882805e-09 0.00000000e+00 0.00000000e+00
 0.00000000e+00 2.00697445e-08 3.00882805e-09 1.04306678e-02
 0.00000000e+00 0.00000000e+00 0.00000000e+00 2.09179079e-03
 0.00000000e+00 0.00000000e+00 0.00000000e+00 0.00000000e+00
 0.00000000e+00 0.00000000e+00 0.00000000e+00 0.00000000e+00
 0.00000000e+00 0.00000000e+00 0.00000000e+00 0.00000000e+00
 0.00000000e+00 0.00000000e+00 0.00000000e+00 0.00000000e+00
 0.00000000e+00 0.00000000e+00 2.00697445e-08 2.09179079e-03
 0.00000000e+00 0.00000000e+00 0.00000000e+00 9.99313694e-03]","[[9.99282468e-06 3.00882805e-12 2.00697445e-11]
 [3.00882805e-12 1.04306678e-05 2.09179079e-06]
 [2.00697445e-11 2.09179079e-06 9.99313694e-06]]",[-1.97594285e-01  1.00495681e-11  6.03370687e-11],0.1999999999997291,4.1772141301521515e-13
1786949397.1228137,0.20968215956705658,-1.3434655260944216e-11,-7.708722549182312e-11,"[9.99252562e-03 3.25332582e-09 0.00000000e+00 0.00000000e+00
 0.00000000e+00 2.05846572e-08 3.25332582e-09 1.04823908e-02
 0.00000000e+00 0.00000000e+00 0.00000000e+00 2.21253335e-03
 0.00000000e+00 0.00000000e+00 0.00000000e+00 0.00000000e+00
 0.00000000e+00 0.00000000e+00 0.00000000e+00 0.00000000e+00
 0.00000000e+00 0.00000000e+00 0.00000000e+00 0.00000000e+00
 0.00000000e+00 0.00000000e+00 0.00000000e+00 0.00000000e+00
 0.00000000e+00 0.00000000e+00 2.05846572e-08 2.21253335e-03
 0.00000000e+00 0.00000000e+00 0.00000000e+00 9.99283360e-03]","[[9.99252562e-06 3.25332582e-12 2.05846572e-11]
 [3.25332582e-12 1.04823908e-05 2.21253335e-06]
 [2.05846572e-11 2.21253335e-06 9.99283360e-06]]",[-2.09684255e-01  1.27527787e-11  7.27715666e-11],0.2,-2.8645488758805016e-12
1786949397.158665,0.21816130242072404,-1.5568527983473485e-11,-8.624478908814126e-11,"[9.99232626e-03 3.42840090e-09 0.00000000e+00 0.00000000e+00
 0.00000000e+00 2.09326133e-08 3.42840090e-09 1.05204181e-02
 0.00000000e+00 0.00000000e+00 0.00000000e+00 2.29721339e-03
 0.00000000e+00 0.00000000e+00 0.00000000e+00 0.00000000e+00
 0.00000000e+00 0.00000000e+00 0.00000000e+00 0.00000000e+00
 0.00000000e+00 0.00000000e+00 0.00000000e+00 0.00000000e+00
 0.00000000e+00 0.00000000e+00 0.00000000e+00 0.00000000e+00
 0.00000000e+00 0.00000000e+00 2.09326133e-08 2.29721339e-03
 0.00000000e+00 0.00000000e+00 0.00000000e+00 9.99263063e-03]","[[9.99232626e-06 3.42840090e-12 2.09326133e-11]
 [3.42840090e-12 1.05204181e-05 2.29721339e-06]
 [2.09326133e-11 2.29721339e-06 9.99263063e-06]]",[-2.18163482e-01  1.48209197e-11  8.16791079e-11],0.20000000000237633,-4.9519416345233935e-12
1786949397.2086337,0.22688656061623474,-1.7944596229121978e-11,-9.599920858249789e-11,"[9.99212693e-03 3.61170647e-09 0.00000000e+00 0.00000000e+00
 0.00000000e+00 2.12993336e-08 3.61170647e-09 1.05610536e-02
 0.00000000e+00 0.00000000e+00 0.00000000e+00 2.38434903e-03
 0.00000000e+00 0.00000000e+00 0.00000000e+00 0.00000000e+00
 0.00000000e+00 0.00000000e+00 0.00000000e+00 0.00000000e+00
 0.00000000e+00 0.00000000e+00 0.00000000e+00 0.00000000e+00
 0.00000000e+00 0.00000000e+00 0.00000000e+00 0.00000000e+00
 0.00000000e+00 0.00000000e+00 2.12993336e-08 2.38434903e-03
 0.00000000e+00 0.00000000e+00 0.00000000e+00 9.99242723e-03]","[[9.99212693e-06 3.61170647e-12 2.12993336e-11]
 [3.61170647e-12 1.05610536e-05 2.38434903e-06]
 [2.12993336e-11 2.38434903e-06 9.99242723e-06]]",[-2.26888828e-01  1.71255386e-11  9.11675180e-11],0.2000000000026167,3.824544847486067e-12
1786949397.2544198,0.23791497335243972,-2.1713395598416764e-11,-1.1148282297313017e-10,"[9.99182787e-03 3.84806032e-09 0.00000000e+00 0.00000000e+00
 0.00000000e+00 2.17652078e-08 3.84806032e-09 1.06145390e-02
 0.00000000e+00 0.00000000e+00 0.00000000e+00 2.49446684e-03
 0.00000000e+00 0.00000000e+00 0.00000000e+00 0.00000000e+00
 0.00000000e+00 0.00000000e+00 0.00000000e+00 0.00000000e+00
 0.00000000e+00 0.00000000e+00 0.00000000e+00 0.00000000e+00
 0.00000000e+00 0.00000000e+00 0.00000000e+00 0.00000000e+00
 0.00000000e+00 0.00000000e+00 2.17652078e-08 2.49446684e-03
 0.00000000e+00 0.00000000e+00 0.00000000e+00 9.99211898e-03]","[[9.99182787e-06 3.84806032e-12 2.17652078e-11]
 [3.84806032e-12 1.06145390e-05 2.49446684e-06]
 [2.17652078e-11 2.49446684e-06 9.99211898e-06]]",[-2.37917351e-01  2.07983612e-11  1.06305631e-10],0.20000000000032114,-6.849902589589618e-12
1786949397.3041973,0.2455902833936828,-2.4526021417212018e-11,-1.223052770171762e-10,"[9.99162847e-03 4.01550174e-09 0.00000000e+00 0.00000000e+00
 0.00000000e+00 2.20488374e-08 4.01550174e-09 1.06532043e-02
 0.00000000e+00 0.00000000e+00 0.00000000e+00 2.57110239e-03
 0.00000000e+00 0.00000000e+00 0.00000000e+00 0.00000000e+00
 0.00000000e+00 0.00000000e+00 0.00000000e+00 0.00000000e+00
 0.00000000e+00 0.00000000e+00 0.00000000e+00 0.00000000e+00
 0.00000000e+00 0.00000000e+00 0.00000000e+00 0.00000000e+00
 0.00000000e+00 0.00000000e+00 2.20488374e-08 2.57110239e-03
 0.00000000e+00 0.00000000e+00 0.00000000e+00 9.99191205e-03]","[[9.99162847e-06 4.01550174e-12 2.20488374e-11]
 [4.01550174e-12 1.06532043e-05 2.57110239e-06]
 [2.20488374e-11 2.57110239e-06 9.99191205e-06]]",[-2.45592737e-01  2.35403947e-11  1.16891385e-10],0.20000000000087534,-4.374625661718312e-12
1786949397.3547735,0.2575819759787856,-2.925212577282058e-11,-1.3948175947575692e-10,"[9.99132944e-03 4.28156547e-09 0.00000000e+00 0.00000000e+00
 0.00000000e+00 2.25142976e-08 4.28156547e-09 1.07159803e-02
 0.00000000e+00 0.00000000e+00 0.00000000e+00 2.69083251e-03
 0.00000000e+00 0.00000000e+00 0.00000000e+00 0.00000000e+00
 0.00000000e+00 0.00000000e+00 0.00000000e+00 0.00000000e+00
 0.00000000e+00 0.00000000e+00 0.00000000e+00 0.00000000e+00
 0.00000000e+00 0.00000000e+00 0.00000000e+00 0.00000000e+00
 0.00000000e+00 0.00000000e+00 2.25142976e-08 2.69083251e-03
 0.00000000e+00 0.00000000e+00 0.00000000e+00 9.99160091e-03]","[[9.99132944e-06 4.28156547e-12 2.25142976e-11]
 [4.28156547e-12 1.07159803e-05 2.69083251e-06]
 [2.25142976e-11 2.69083251e-06 9.99160091e-06]]",[-2.57584550e-01  2.81499220e-11  1.33683731e-10],0.20000000000023177,-5.684515358428399e-12
1786949397.3988018,0.2681140081518858,-3.3119387187787776e-11,-1.5170753542292914e-10,"[9.99113031e-03 4.51983454e-09 0.00000000e+00 0.00000000e+00
 0.00000000e+00 2.30500327e-08 4.51983454e-09 1.07735507e-02
 0.00000000e+00 0.00000000e+00 0.00000000e+00 2.79600189e-03
 0.00000000e+00 0.00000000e+00 0.00000000e+00 0.00000000e+00
 0.00000000e+00 0.00000000e+00 0.00000000e+00 0.00000000e+00
 0.00000000e+00 0.00000000e+00 0.00000000e+00 0.00000000e+00
 0.00000000e+00 0.00000000e+00 0.00000000e+00 0.00000000e+00
 0.00000000e+00 0.00000000e+00 2.30500327e-08 2.79600189e-03
 0.00000000e+00 0.00000000e+00 0.00000000e+00 9.99139682e-03]","[[9.99113031e-06 4.51983454e-12 2.30500327e-11]
 [4.51983454e-12 1.07735507e-05 2.79600189e-06]
 [2.30500327e-11 2.79600189e-06 9.99139682e-06]]",[-2.68116687e-01  3.19082948e-11  1.45528922e-10],0.2000000000005253,3.778748147720279e-12
1786949397.4489887,0.2776188812713095,-3.845612456235201e-11,-1.7095613813467025e-10,"[9.99083117e-03 4.73948910e-09 0.00000000e+00 0.00000000e+00
 0.00000000e+00 2.33737017e-08 4.73948910e-09 1.08272760e-02
 0.00000000e+00 0.00000000e+00 0.00000000e+00 2.89087163e-03
 0.00000000e+00 0.00000000e+00 0.00000000e+00 0.00000000e+00
 0.00000000e+00 0.00000000e+00 0.00000000e+00 0.00000000e+00
 0.00000000e+00 0.00000000e+00 0.00000000e+00 0.00000000e+00
 0.00000000e+00 0.00000000e+00 0.00000000e+00 0.00000000e+00
 0.00000000e+00 0.00000000e+00 2.33737017e-08 2.89087163e-03
 0.00000000e+00 0.00000000e+00 0.00000000e+00 9.99107950e-03]","[[9.99083117e-06 4.73948910e-12 2.33737017e-11]
 [4.73948910e-12 1.08272760e-05 2.89087163e-06]
 [2.33737017e-11 2.89087163e-06 9.99107950e-06]]",[-2.77621655e-01  3.71412174e-11  1.64468883e-10],0.2,-2.7793739532100403e-12
1786949397.4999907,0.28584698229133737,-4.2667537073469283e-11,-1.8456836059499437e-10,"[9.99063188e-03 4.93239616e-09 0.00000000e+00 0.00000000e+00
 0.00000000e+00 2.37266002e-08 4.93239616e-09 1.08753049e-02
 0.00000000e+00 0.00000000e+00 0.00000000e+00 2.97301230e-03
 0.00000000e+00 0.00000000e+00 0.00000000e+00 0.00000000e+00
 0.00000000e+00 0.00000000e+00 0.00000000e+00 0.00000000e+00
 0.00000000e+00 0.00000000e+00 0.00000000e+00 0.00000000e+00
 0.00000000e+00 0.00000000e+00 0.00000000e+00 0.00000000e+00
 0.00000000e+00 0.00000000e+00 2.37266002e-08 2.97301230e-03
 0.00000000e+00 0.00000000e+00 0.00000000e+00 9.99086954e-03]","[[9.99063188e-06 4.93239616e-12 2.37266002e-11]
 [4.93239616e-12 1.08753049e-05 2.97301230e-06]
 [2.37266002e-11 2.97301230e-06 9.99086954e-06]]",[-2.85849838e-01  4.12585897e-11  1.77788007e-10],0.2,-2.7783331191244542e-12
1786949397.5745032,0.29791527677007273,-4.950866568110256e-11,-2.060667192438359e-10,"[9.99033297e-03 5.22070718e-09 0.00000000e+00 0.00000000e+00
 0.00000000e+00 2.42615916e-08 5.22070718e-09 1.09481854e-02
 0.00000000e+00 0.00000000e+00 0.00000000e+00 3.09348017e-03
 0.00000000e+00 0.00000000e+00 0.00000000e+00 0.00000000e+00
 0.00000000e+00 0.00000000e+00 0.00000000e+00 0.00000000e+00
 0.00000000e+00 0.00000000e+00 0.00000000e+00 0.00000000e+00
 0.00000000e+00 0.00000000e+00 0.00000000e+00 0.00000000e+00
 0.00000000e+00 0.00000000e+00 2.42615916e-08 3.09348017e-03
 0.00000000e+00 0.00000000e+00 0.00000000e+00 9.99055288e-03]","[[9.99033297e-06 5.22070718e-12 2.42615916e-11]
 [5.22070718e-12 1.09481854e-05 3.09348017e-06]
 [2.42615916e-11 3.09348017e-06 9.99055288e-06]]",[-2.97918253e-01  4.79544618e-11  1.98840944e-10],0.20000000000160156,4.635701544852822e-12
1786949397.608111,0.30659455248651013,-5.4605734003329175e-11,-2.2109869490805067e-10,"[9.99013372e-03 5.43190735e-09 0.00000000e+00 0.00000000e+00
 0.00000000e+00 2.46275859e-08 5.43190735e-09 1.10024130e-02
 0.00000000e+00 0.00000000e+00 0.00000000e+00 3.18011871e-03
 0.00000000e+00 0.00000000e+00 0.00000000e+00 0.00000000e+00
 0.00000000e+00 0.00000000e+00 0.00000000e+00 0.00000000e+00
 0.00000000e+00 0.00000000e+00 0.00000000e+00 0.00000000e+00
 0.00000000e+00 0.00000000e+00 0.00000000e+00 0.00000000e+00
 0.00000000e+00 0.00000000e+00 2.46275859e-08 3.18011871e-03
 0.00000000e+00 0.00000000e+00 0.00000000e+00 9.99034074e-03]","[[9.99013372e-06 5.43190735e-12 2.46275859e-11]
 [5.43190735e-12 1.10024130e-05 3.18011871e-06]
 [2.46275859e-11 3.18011871e-06 9.99034074e-06]]",[-3.06597615e-01  5.29415858e-11  2.13550067e-10],0.20000000000066412,4.678202270014253e-12
1786949397.6549435,0.3176368915526409,-6.241362281643465e-11,-2.44662068382695e-10,"[9.98983471e-03 5.70444439e-09 0.00000000e+00 0.00000000e+00
 0.00000000e+00 2.50240005e-08 5.70444439e-09 1.10734208e-02
 0.00000000e+00 0.00000000e+00 0.00000000e+00 3.29016413e-03
 0.00000000e+00 0.00000000e+00 0.00000000e+00 0.00000000e+00
 0.00000000e+00 0.00000000e+00 0.00000000e+00 0.00000000e+00
 0.00000000e+00 0.00000000e+00 0.00000000e+00 0.00000000e+00
 0.00000000e+00 0.00000000e+00 0.00000000e+00 0.00000000e+00
 0.00000000e+00 0.00000000e+00 2.50240005e-08 3.29016413e-03
 0.00000000e+00 0.00000000e+00 0.00000000e+00 9.99001771e-03]","[[9.98983471e-06 5.70444439e-12 2.50240005e-11]
 [5.70444439e-12 1.10734208e-05 3.29016413e-06]
 [2.50240005e-11 3.29016413e-06 9.99001771e-06]]",[-3.17640065e-01  6.06031126e-11  2.36715980e-10],0.19884999520102986,-2.77416978278211e-12
1786949397.6996453,0.3275472618734534,-6.87045070662157e-11,-2.6146995679710017e-10,"[9.98963559e-03 5.95222746e-09 0.00000000e+00 0.00000000e+00
 0.00000000e+00 2.55042306e-08 5.95222746e-09 1.11391177e-02
 0.00000000e+00 0.00000000e+00 0.00000000e+00 3.38869177e-03
 0.00000000e+00 0.00000000e+00 0.00000000e+00 0.00000000e+00
 0.00000000e+00 0.00000000e+00 0.00000000e+00 0.00000000e+00
 0.00000000e+00 0.00000000e+00 0.00000000e+00 0.00000000e+00
 0.00000000e+00 0.00000000e+00 0.00000000e+00 0.00000000e+00
 0.00000000e+00 0.00000000e+00 2.55042306e-08 3.38869177e-03
 0.00000000e+00 0.00000000e+00 0.00000000e+00 9.98980528e-03]","[[9.98963559e-06 5.95222746e-12 2.55042306e-11]
 [5.95222746e-12 1.11391177e-05 3.38869177e-06]
 [2.55042306e-11 3.38869177e-06 9.98980528e-06]]",[-3.27550534e-01  6.67564531e-11  2.53118859e-10],0.19884999520102986,-2.77416978278211e-12
1786949397.7485864,0.3374112380377589,-7.749197752133428e-11,-2.872884152793631e-10,"[9.98933654e-03 6.20408029e-09 0.00000000e+00 0.00000000e+00
 0.00000000e+00 2.58357026e-08 6.20408029e-09 1.12065306e-02
 0.00000000e+00 0.00000000e+00 0.00000000e+00 3.48701254e-03
 0.00000000e+00 0.00000000e+00 0.00000000e+00 0.00000000e+00
 0.00000000e+00 0.00000000e+00 0.00000000e+00 0.00000000e+00
 0.00000000e+00 0.00000000e+00 0.00000000e+00 0.00000000e+00
 0.00000000e+00 0.00000000e+00 0.00000000e+00 0.00000000e+00
 0.00000000e+00 0.00000000e+00 2.58357026e-08 3.48701254e-03
 0.00000000e+00 0.00000000e+00 0.00000000e+00 9.98947697e-03]","[[9.98933654e-06 6.20408029e-12 2.58357026e-11]
 [6.20408029e-12 1.12065306e-05 3.48701254e-06]
 [2.58357026e-11 3.48701254e-06 9.98947697e-06]]",[-3.37414609e-01  7.54004466e-11  2.78574053e-10],0.196851720207973,4.958880528427301e-12
1786949397.798722,0.3453569152653976,-8.41760538804694e-11,-3.0522340210836774e-10,"[9.98913728e-03 6.40878074e-09 0.00000000e+00 0.00000000e+00
 0.00000000e+00 2.61506913e-08 6.40878074e-09 1.12620780e-02
 0.00000000e+00 0.00000000e+00 0.00000000e+00 3.56592955e-03
 0.00000000e+00 0.00000000e+00 0.00000000e+00 0.00000000e+00
 0.00000000e+00 0.00000000e+00 0.00000000e+00 0.00000000e+00
 0.00000000e+00 0.00000000e+00 0.00000000e+00 0.00000000e+00
 0.00000000e+00 0.00000000e+00 0.00000000e+00 0.00000000e+00
 0.00000000e+00 0.00000000e+00 2.61506913e-08 3.56592955e-03
 0.00000000e+00 0.00000000e+00 0.00000000e+00 9.98925864e-03]","[[9.98913728e-06 6.40878074e-12 2.61506913e-11]
 [6.40878074e-12 1.12620780e-05 3.56592955e-06]
 [2.61506913e-11 3.56592955e-06 9.98925864e-06]]",[-3.45360365e-01  8.19646943e-11  2.96195068e-10],0.1948742107686477,-2.673555821175455e-12
1786949397.8518775,0.3572673901027776,-9.493077425508895e-11,-3.3338620752942916e-10,"[9.98883841e-03 6.72057135e-09 0.00000000e+00 0.00000000e+00
 0.00000000e+00 2.66311450e-08 6.72057135e-09 1.13477805e-02
 0.00000000e+00 0.00000000e+00 0.00000000e+00 3.68435706e-03
 0.00000000e+00 0.00000000e+00 0.00000000e+00 0.00000000e+00
 0.00000000e+00 0.00000000e+00 0.00000000e+00 0.00000000e+00
 0.00000000e+00 0.00000000e+00 0.00000000e+00 0.00000000e+00
 0.00000000e+00 0.00000000e+00 0.00000000e+00 0.00000000e+00
 0.00000000e+00 0.00000000e+00 2.66311450e-08 3.68435706e-03
 0.00000000e+00 0.00000000e+00 0.00000000e+00 9.98892924e-03]","[[9.98883841e-06 6.72057135e-12 2.66311450e-11]
 [6.72057135e-12 1.13477805e-05 3.68435706e-06]
 [2.66311450e-11 3.68435706e-06 9.98892924e-06]]",[-3.57270959e-01  9.25319526e-11  3.23875149e-10],0.1929215136420679,-2.6305346789712303e-12
1786949397.902672,0.3646442573347081,-1.024066537699611e-10,-3.5313929558355994e-10,"[9.98863913e-03 6.91723382e-09 0.00000000e+00 0.00000000e+00
 0.00000000e+00 2.69129725e-08 6.91723382e-09 1.14024486e-02
 0.00000000e+00 0.00000000e+00 0.00000000e+00 3.75795617e-03
 0.00000000e+00 0.00000000e+00 0.00000000e+00 0.00000000e+00
 0.00000000e+00 0.00000000e+00 0.00000000e+00 0.00000000e+00
 0.00000000e+00 0.00000000e+00 0.00000000e+00 0.00000000e+00
 0.00000000e+00 0.00000000e+00 0.00000000e+00 0.00000000e+00
 0.00000000e+00 0.00000000e+00 2.69129725e-08 3.75795617e-03
 0.00000000e+00 0.00000000e+00 0.00000000e+00 9.98870747e-03]","[[9.98863913e-06 6.91723382e-12 2.69129725e-11]
 [6.91723382e-12 1.14024486e-05 3.75795617e-06]
 [2.69129725e-11 3.75795617e-06 9.98870747e-06]]",[-3.64647900e-01  9.98867282e-11  3.43329365e-10],0.19292151364259727,3.986741492489898e-12
1786949397.9553041,0.3761800901342837,-1.1455282819212189e-10,-3.8360115084401514e-10,"[9.98834027e-03 7.22601772e-09 0.00000000e+00 0.00000000e+00
 0.00000000e+00 2.73738065e-08 7.22601772e-09 1.14892588e-02
 0.00000000e+00 0.00000000e+00 0.00000000e+00 3.87192862e-03
 0.00000000e+00 0.00000000e+00 0.00000000e+00 0.00000000e+00
 0.00000000e+00 0.00000000e+00 0.00000000e+00 0.00000000e+00
 0.00000000e+00 0.00000000e+00 0.00000000e+00 0.00000000e+00
 0.00000000e+00 0.00000000e+00 0.00000000e+00 0.00000000e+00
 0.00000000e+00 0.00000000e+00 2.73738065e-08 3.87192862e-03
 0.00000000e+00 0.00000000e+00 0.00000000e+00 9.98837342e-03]","[[9.98834027e-06 7.22601772e-12 2.73738065e-11]
 [7.22601772e-12 1.14892588e-05 3.87192862e-06]
 [2.73738065e-11 3.87192862e-06 9.98837342e-06]]",[-3.76183848e-01  1.11837247e-10  3.73307607e-10],0.1890533199197058,-5.011737552740314e-11
1786949397.9986587,0.3841504106465339,-1.2329895205273746e-10,-4.0494407826940915e-10,"[9.98814107e-03 7.44261067e-09 0.00000000e+00 0.00000000e+00
 0.00000000e+00 2.77144077e-08 7.44261067e-09 1.15508067e-02
 0.00000000e+00 0.00000000e+00 0.00000000e+00 3.95072494e-03
 0.00000000e+00 0.00000000e+00 0.00000000e+00 0.00000000e+00
 0.00000000e+00 0.00000000e+00 0.00000000e+00 0.00000000e+00
 0.00000000e+00 0.00000000e+00 0.00000000e+00 0.00000000e+00
 0.00000000e+00 0.00000000e+00 0.00000000e+00 0.00000000e+00
 0.00000000e+00 0.00000000e+00 2.77144077e-08 3.95072494e-03
 0.00000000e+00 0.00000000e+00 0.00000000e+00 9.98814990e-03]","[[9.98814107e-06 7.44261067e-12 2.77144077e-11]
 [7.44261067e-12 1.15508067e-05 3.95072494e-06]
 [2.77144077e-11 3.95072494e-06 9.98814990e-06]]",[-3.84154248e-01  1.20442791e-10  3.94301924e-10],0.18713960681262357,-2.5129204273000028e-12
1786949398.0661027,0.39513137516649816,-1.3684023682146487e-10,-4.378573059682367e-10,"[9.98784223e-03 7.74513940e-09 0.00000000e+00 0.00000000e+00
 0.00000000e+00 2.81622931e-08 7.74513940e-09 1.16375531e-02
 0.00000000e+00 0.00000000e+00 0.00000000e+00 4.05919688e-03
 0.00000000e+00 0.00000000e+00 0.00000000e+00 0.00000000e+00
 0.00000000e+00 0.00000000e+00 0.00000000e+00 0.00000000e+00
 0.00000000e+00 0.00000000e+00 0.00000000e+00 0.00000000e+00
 0.00000000e+00 0.00000000e+00 0.00000000e+00 0.00000000e+00
 0.00000000e+00 0.00000000e+00 2.81622931e-08 4.05919688e-03
 0.00000000e+00 0.00000000e+00 0.00000000e+00 9.98781118e-03]","[[9.98784223e-06 7.74513940e-12 2.81622931e-11]
 [7.74513940e-12 1.16375531e-05 4.05919688e-06]
 [2.81622931e-11 4.05919688e-06 9.98781118e-06]]",[-3.95135322e-01  1.33783148e-10  4.26734204e-10],0.18339089972288086,-4.822722082797881e-11
1786949398.0992424,0.4060104542918992,-1.5135254393907675e-10,-4.727391811343296e-10,"[9.98754352e-03 8.05142513e-09 0.00000000e+00 0.00000000e+00
 0.00000000e+00 2.87281462e-08 8.05142513e-09 1.17261674e-02
 0.00000000e+00 0.00000000e+00 0.00000000e+00 4.16707585e-03
 0.00000000e+00 0.00000000e+00 0.00000000e+00 0.00000000e+00
 0.00000000e+00 0.00000000e+00 0.00000000e+00 0.00000000e+00
 0.00000000e+00 0.00000000e+00 0.00000000e+00 0.00000000e+00
 0.00000000e+00 0.00000000e+00 0.00000000e+00 0.00000000e+00
 0.00000000e+00 0.00000000e+00 2.87281462e-08 4.16707585e-03
 0.00000000e+00 0.00000000e+00 0.00000000e+00 9.98747190e-03]","[[9.98754352e-06 8.05142513e-12 2.87281462e-11]
 [8.05142513e-12 1.17261674e-05 4.16707585e-06]
 [2.87281462e-11 4.16707585e-06 9.98747190e-06]]",[-4.06014509e-01  1.48087206e-10  4.61080507e-10],0.1833908996880903,-2.444398849998919e-12
1786949398.1586223,0.4134807658835968,-1.6169373787430857e-10,-4.969806788324149e-10,"[9.98734436e-03 8.26422224e-09 0.00000000e+00 0.00000000e+00
 0.00000000e+00 2.90758682e-08 8.26422224e-09 1.17881020e-02
 0.00000000e+00 0.00000000e+00 0.00000000e+00 4.24083258e-03
 0.00000000e+00 0.00000000e+00 0.00000000e+00 0.00000000e+00
 0.00000000e+00 0.00000000e+00 0.00000000e+00 0.00000000e+00
 0.00000000e+00 0.00000000e+00 0.00000000e+00 0.00000000e+00
 0.00000000e+00 0.00000000e+00 0.00000000e+00 0.00000000e+00
 0.00000000e+00 0.00000000e+00 2.90758682e-08 4.24083258e-03
 0.00000000e+00 0.00000000e+00 0.00000000e+00 9.98724374e-03]","[[9.98734436e-06 8.26422224e-12 2.90758682e-11]
 [8.26422224e-12 1.17881020e-05 4.24083258e-06]
 [2.90758682e-11 4.24083258e-06 9.98724374e-06]]",[-4.13484895e-01  1.58280529e-10  4.84963625e-10],0.18154769982156793,-2.399816456666315e-12
1786949398.204971,0.4213140794691287,-1.7270574688061426e-10,-5.218603327250548e-10,"[9.98714522e-03 8.49163128e-09 0.00000000e+00 0.00000000e+00
 0.00000000e+00 2.94359387e-08 8.49163128e-09 1.18547030e-02
 0.00000000e+00 0.00000000e+00 0.00000000e+00 4.31872334e-03
 0.00000000e+00 0.00000000e+00 0.00000000e+00 0.00000000e+00
 0.00000000e+00 0.00000000e+00 0.00000000e+00 0.00000000e+00
 0.00000000e+00 0.00000000e+00 0.00000000e+00 0.00000000e+00
 0.00000000e+00 0.00000000e+00 0.00000000e+00 0.00000000e+00
 0.00000000e+00 0.00000000e+00 2.94359387e-08 4.31872334e-03
 0.00000000e+00 0.00000000e+00 0.00000000e+00 9.98701462e-03]","[[9.98714522e-06 8.49163128e-12 2.94359387e-11]
 [8.49163128e-12 1.18547030e-05 4.31872334e-06]
 [2.94359387e-11 4.31872334e-06 9.98701462e-06]]",[-4.21318287e-01  1.69132273e-10  5.09464471e-10],0.17972024202353432,6.008214759045671e-12
1786949398.2494454,0.43131961039036226,-1.8920203955701823e-10,-5.603908448392758e-10,"[9.98684639e-03 8.78661690e-09 0.00000000e+00 0.00000000e+00
 0.00000000e+00 2.98390381e-08 8.78661690e-09 1.19416672e-02
 0.00000000e+00 0.00000000e+00 0.00000000e+00 4.41839060e-03
 0.00000000e+00 0.00000000e+00 0.00000000e+00 0.00000000e+00
 0.00000000e+00 0.00000000e+00 0.00000000e+00 0.00000000e+00
 0.00000000e+00 0.00000000e+00 0.00000000e+00 0.00000000e+00
 0.00000000e+00 0.00000000e+00 0.00000000e+00 0.00000000e+00
 0.00000000e+00 0.00000000e+00 2.98390381e-08 4.41839060e-03
 0.00000000e+00 0.00000000e+00 0.00000000e+00 9.98666596e-03]","[[9.98684639e-06 8.78661690e-12 2.98390381e-11]
 [8.78661690e-12 1.19416672e-05 4.41839060e-06]
 [2.98390381e-11 4.41839060e-06 9.98666596e-06]]",[-4.31323918e-01  1.85416795e-10  5.47526913e-10],0.17791116112826627,-2.3418766925686896e-12
1786949398.2989833,0.442141630363706,-2.072488901396147e-10,-6.001044106085374e-10,"[9.98654767e-03 9.10748352e-09 0.00000000e+00 0.00000000e+00
 0.00000000e+00 3.03280610e-08 9.10748352e-09 1.20371055e-02
 0.00000000e+00 0.00000000e+00 0.00000000e+00 4.52521118e-03
 0.00000000e+00 0.00000000e+00 0.00000000e+00 0.00000000e+00
 0.00000000e+00 0.00000000e+00 0.00000000e+00 0.00000000e+00
 0.00000000e+00 0.00000000e+00 0.00000000e+00 0.00000000e+00
 0.00000000e+00 0.00000000e+00 0.00000000e+00 0.00000000e+00
 0.00000000e+00 0.00000000e+00 3.03280610e-08 4.52521118e-03
 0.00000000e+00 0.00000000e+00 0.00000000e+00 9.98631620e-03]","[[9.98664730e-06 9.02061191e-12 3.02230433e-11]
 [9.02061191e-12 1.20112404e-05 4.49649723e-06]
 [3.02230433e-11 4.49649723e-06 9.98643426e-06]]",[-4.39235715e-01  1.97559835e-10  5.73441739e-10],0.1761230041124887,-2.3132537552150723e-12
1786949398.350966,0.44754853209848366,-2.1463889470602472e-10,-6.138174413194974e-10,"[9.98644829e-03 9.26797041e-09 0.00000000e+00 0.00000000e+00
 0.00000000e+00 3.06915887e-08 9.26797041e-09 1.20852100e-02
 0.00000000e+00 0.00000000e+00 0.00000000e+00 4.57806351e-03
 0.00000000e+00 0.00000000e+00 0.00000000e+00 0.00000000e+00
 0.00000000e+00 0.00000000e+00 0.00000000e+00 0.00000000e+00
 0.00000000e+00 0.00000000e+00 0.00000000e+00 0.00000000e+00
 0.00000000e+00 0.00000000e+00 0.00000000e+00 0.00000000e+00
 0.00000000e+00 0.00000000e+00 3.06915887e-08 4.57806351e-03
 0.00000000e+00 0.00000000e+00 0.00000000e+00 9.98620291e-03]","[[9.98644829e-06 9.26797041e-12 3.06915887e-11]
 [9.26797041e-12 1.20852100e-05 4.57806351e-06]
 [3.06915887e-11 4.57806351e-06 9.98620291e-06]]",[-4.47553002e-01  2.10496278e-10  6.00088423e-10],0.17258266245936366,6.570265165262157e-12
1786949398.3994706,0.45682070819594833,-2.333115826953555e-10,-6.558606990836324e-10,"[9.98614950e-03 9.55170151e-09 0.00000000e+00 0.00000000e+00
 0.00000000e+00 3.10832842e-08 9.55170151e-09 1.21701992e-02
 0.00000000e+00 0.00000000e+00 0.00000000e+00 4.67007266e-03
 0.00000000e+00 0.00000000e+00 0.00000000e+00 0.00000000e+00
 0.00000000e+00 0.00000000e+00 0.00000000e+00 0.00000000e+00
 0.00000000e+00 0.00000000e+00 0.00000000e+00 0.00000000e+00
 0.00000000e+00 0.00000000e+00 0.00000000e+00 0.00000000e+00
 0.00000000e+00 0.00000000e+00 3.10832842e-08 4.67007266e-03
 0.00000000e+00 0.00000000e+00 0.00000000e+00 9.98584729e-03]","[[9.98614950e-06 9.55170151e-12 3.10832842e-11]
 [9.55170151e-12 1.21701992e-05 4.67007266e-06]
 [3.10832842e-11 4.67007266e-06 9.98584729e-06]]",[-4.56825270e-01  2.28953907e-10  6.41668496e-10],0.17258266246025972,6.817463260588852e-14
1786949398.458742,0.46626001973971415,-2.531629106744983e-10,-6.993601253668658e-10,"[9.98585072e-03 9.84264279e-09 0.00000000e+00 0.00000000e+00
 0.00000000e+00 3.14725867e-08 9.84264279e-09 1.22579635e-02
 0.00000000e+00 0.00000000e+00 0.00000000e+00 4.76320643e-03
 0.00000000e+00 0.00000000e+00 0.00000000e+00 0.00000000e+00
 0.00000000e+00 0.00000000e+00 0.00000000e+00 0.00000000e+00
 0.00000000e+00 0.00000000e+00 0.00000000e+00 0.00000000e+00
 0.00000000e+00 0.00000000e+00 0.00000000e+00 0.00000000e+00
 0.00000000e+00 0.00000000e+00 3.14725867e-08 4.76320643e-03
 0.00000000e+00 0.00000000e+00 0.00000000e+00 9.98548898e-03]","[[9.98585072e-06 9.84264279e-12 3.14725867e-11]
 [9.84264279e-12 1.22579635e-05 4.76320643e-06]
 [3.14725867e-11 4.76320643e-06 9.98548898e-06]]",[-4.66264676e-01  2.48579942e-10  6.84693635e-10],0.17084977303303844,6.169197097616319e-12
1786949398.5354488,0.4699564589549405,-2.6042506683808325e-10,-7.142388902536823e-10,"[9.98575118e-03 9.95876560e-09 0.00000000e+00 0.00000000e+00
 0.00000000e+00 3.16529581e-08 9.95876560e-09 1.22931846e-02
 0.00000000e+00 0.00000000e+00 0.00000000e+00 4.80005710e-03
 0.00000000e+00 0.00000000e+00 0.00000000e+00 0.00000000e+00
 0.00000000e+00 0.00000000e+00 0.00000000e+00 0.00000000e+00
 0.00000000e+00 0.00000000e+00 0.00000000e+00 0.00000000e+00
 0.00000000e+00 0.00000000e+00 0.00000000e+00 0.00000000e+00
 0.00000000e+00 0.00000000e+00 3.16529581e-08 4.80005710e-03
 0.00000000e+00 0.00000000e+00 0.00000000e+00 9.98536990e-03]","[[9.98575118e-06 9.95876560e-12 3.16529581e-11]
 [9.95876560e-12 1.22931846e-05 4.80005710e-06]
 [3.16529581e-11 4.80005710e-06 9.98536990e-06]]",[-4.69961152e-01  2.55751335e-10  6.99371228e-10],0.17084977303370935,-2.217843964036348e-12
1786949398.5487497,0.4844660043490967,-2.808628822616408e-10,-7.470530860587132e-10,"[9.98555394e-03 1.04210298e-08 0.00000000e+00 0.00000000e+00
 0.00000000e+00 3.39073064e-08 1.04210298e-08 1.24343177e-02
 0.00000000e+00 0.00000000e+00 0.00000000e+00 4.94481531e-03
 0.00000000e+00 0.00000000e+00 0.00000000e+00 0.00000000e+00
 0.00000000e+00 0.00000000e+00 0.00000000e+00 0.00000000e+00
 0.00000000e+00 0.00000000e+00 0.00000000e+00 0.00000000e+00
 0.00000000e+00 0.00000000e+00 0.00000000e+00 0.00000000e+00
 0.00000000e+00 0.00000000e+00 3.39073064e-08 4.94481531e-03
 0.00000000e+00 0.00000000e+00 0.00000000e+00 9.98516755e-03]","[[9.98565362e-06 1.03690480e-11 3.38764327e-11]
 [1.03690480e-11 1.24192296e-05 4.92948757e-06]
 [3.38764327e-11 4.92948757e-06 9.98529107e-06]]",[-4.82929530e-01  2.69690939e-10  7.14278414e-10],0.17084977303370935,-2.21767049168875e-12
1786949398.6002011,0.4901807591958872,-2.9549620114709074e-10,-7.80335795980136e-10,"[9.98535474e-03 1.06126606e-08 0.00000000e+00 0.00000000e+00
 0.00000000e+00 3.41249002e-08 1.06126606e-08 1.24903219e-02
 0.00000000e+00 0.00000000e+00 0.00000000e+00 5.00117756e-03
 0.00000000e+00 0.00000000e+00 0.00000000e+00 0.00000000e+00
 0.00000000e+00 0.00000000e+00 0.00000000e+00 0.00000000e+00
 0.00000000e+00 0.00000000e+00 0.00000000e+00 0.00000000e+00
 0.00000000e+00 0.00000000e+00 0.00000000e+00 0.00000000e+00
 0.00000000e+00 0.00000000e+00 3.41249002e-08 5.00117756e-03
 0.00000000e+00 0.00000000e+00 0.00000000e+00 9.98492289e-03]","[[9.98535474e-06 1.06126606e-11 3.41249002e-11]
 [1.06126606e-11 1.24903219e-05 5.00117756e-06]
 [3.41249002e-11 5.00117756e-06 9.98492289e-06]]",[-4.90185654e-01  2.90301472e-10  7.63617169e-10],0.1691352101903395,-1.8752360775309285e-12
1786949398.6487184,0.5013876008987785,-3.206406387608703e-10,-8.321148214918139e-10,"[9.98505617e-03 1.09925574e-08 0.00000000e+00 0.00000000e+00
 0.00000000e+00 3.46879279e-08 1.09925574e-08 1.26021205e-02
 0.00000000e+00 0.00000000e+00 0.00000000e+00 5.11175892e-03
 0.00000000e+00 0.00000000e+00 0.00000000e+00 0.00000000e+00
 0.00000000e+00 0.00000000e+00 0.00000000e+00 0.00000000e+00
 0.00000000e+00 0.00000000e+00 0.00000000e+00 0.00000000e+00
 0.00000000e+00 0.00000000e+00 0.00000000e+00 0.00000000e+00
 0.00000000e+00 0.00000000e+00 3.46879279e-08 5.11175892e-03
 0.00000000e+00 0.00000000e+00 0.00000000e+00 9.98455805e-03]","[[9.98505617e-06 1.09925574e-11 3.46879279e-11]
 [1.09925574e-11 1.26021205e-05 5.11175892e-06]
 [3.46879279e-11 5.11175892e-06 9.98455805e-06]]",[-5.01392607e-01  3.15137188e-10  8.14732282e-10],0.1674327134301486,7.684824998577255e-14
1786949398.7005913,0.5070461858011996,-3.3666380485072647e-10,-8.675371532262943e-10,"[9.98485700e-03 1.11870395e-08 0.00000000e+00 0.00000000e+00
 0.00000000e+00 3.49227846e-08 1.11870395e-08 1.26595234e-02
 0.00000000e+00 0.00000000e+00 0.00000000e+00 5.16764327e-03
 0.00000000e+00 0.00000000e+00 0.00000000e+00 0.00000000e+00
 0.00000000e+00 0.00000000e+00 0.00000000e+00 0.00000000e+00
 0.00000000e+00 0.00000000e+00 0.00000000e+00 0.00000000e+00
 0.00000000e+00 0.00000000e+00 0.00000000e+00 0.00000000e+00
 0.00000000e+00 0.00000000e+00 3.49227846e-08 5.16764327e-03
 0.00000000e+00 0.00000000e+00 0.00000000e+00 9.98431026e-03]","[[9.98485700e-06 1.11870395e-11 3.49227846e-11]
 [1.11870395e-11 1.26595234e-05 5.16764327e-06]
 [3.49227846e-11 5.16764327e-06 9.98431026e-06]]",[-5.07051249e-01  3.30999984e-10  8.49839754e-10],0.16743271342714705,-1.5171891520893155e-12
1786949398.7762008,0.5171951145494013,-3.6325265664472767e-10,-9.220322283454152e-10,"[9.98455840e-03 1.15382412e-08 0.00000000e+00 0.00000000e+00
 0.00000000e+00 3.54137396e-08 1.15382412e-08 1.27637742e-02
 0.00000000e+00 0.00000000e+00 0.00000000e+00 5.26757407e-03
 0.00000000e+00 0.00000000e+00 0.00000000e+00 0.00000000e+00
 0.00000000e+00 0.00000000e+00 0.00000000e+00 0.00000000e+00
 0.00000000e+00 0.00000000e+00 0.00000000e+00 0.00000000e+00
 0.00000000e+00 0.00000000e+00 0.00000000e+00 0.00000000e+00
 0.00000000e+00 0.00000000e+00 3.54137396e-08 5.26757407e-03
 0.00000000e+00 0.00000000e+00 0.00000000e+00 9.98393895e-03]","[[9.98455840e-06 1.15382412e-11 3.54137396e-11]
 [1.15382412e-11 1.27637742e-05 5.26757407e-06]
 [3.54137396e-11 5.26757407e-06 9.98393895e-06]]",[-5.17200279e-01  3.57294396e-10  9.03727315e-10],0.16408065416780895,-1.6577017536434369e-12
1786949398.798773,0.5271127841590171,-3.910815708701146e-10,-9.784271171042747e-10,"[9.98425981e-03 1.18872353e-08 0.00000000e+00 0.00000000e+00
 0.00000000e+00 3.59064710e-08 1.18872353e-08 1.28678492e-02
 0.00000000e+00 0.00000000e+00 0.00000000e+00 5.36547226e-03
 0.00000000e+00 0.00000000e+00 0.00000000e+00 0.00000000e+00
 0.00000000e+00 0.00000000e+00 0.00000000e+00 0.00000000e+00
 0.00000000e+00 0.00000000e+00 0.00000000e+00 0.00000000e+00
 0.00000000e+00 0.00000000e+00 0.00000000e+00 0.00000000e+00
 0.00000000e+00 0.00000000e+00 3.59064710e-08 5.36547226e-03
 0.00000000e+00 0.00000000e+00 0.00000000e+00 9.98356450e-03]","[[9.98425981e-06 1.18872353e-11 3.59064710e-11]
 [1.18872353e-11 1.28678492e-05 5.36547226e-06]
 [3.59064710e-11 5.36547226e-06 9.98356450e-06]]",[-5.27118047e-01  3.84825695e-10  9.59512025e-10],0.16408065416510126,-8.352867009175924e-12
1786949398.8510387,0.5336102308919475,-4.103473411703419e-10,-1.0171583575413479e-09,"[9.98406084e-03 1.21200264e-08 0.00000000e+00 0.00000000e+00
 0.00000000e+00 3.63123490e-08 1.21200264e-08 1.29375694e-02
 0.00000000e+00 0.00000000e+00 0.00000000e+00 5.43006228e-03
 0.00000000e+00 0.00000000e+00 0.00000000e+00 0.00000000e+00
 0.00000000e+00 0.00000000e+00 0.00000000e+00 0.00000000e+00
 0.00000000e+00 0.00000000e+00 0.00000000e+00 0.00000000e+00
 0.00000000e+00 0.00000000e+00 0.00000000e+00 0.00000000e+00
 0.00000000e+00 0.00000000e+00 3.63123490e-08 5.43006228e-03
 0.00000000e+00 0.00000000e+00 0.00000000e+00 9.98331460e-03]","[[9.98406084e-06 1.21200264e-11 3.63123490e-11]
 [1.21200264e-11 1.29375694e-05 5.43006228e-06]
 [3.63123490e-11 5.43006228e-06 9.98331460e-06]]",[-5.33615559e-01  4.03890550e-10  9.97793848e-10],0.16243398748117371,-2.1040461040122693e-12
1786949398.9001615,0.5406245083767126,-4.3081170912419373e-10,-1.0569389807812968e-09,"[9.98386184e-03 1.23724444e-08 0.00000000e+00 0.00000000e+00
 0.00000000e+00 3.66722762e-08 1.23724444e-08 1.30132217e-02
 0.00000000e+00 0.00000000e+00 0.00000000e+00 5.49927650e-03
 0.00000000e+00 0.00000000e+00 0.00000000e+00 0.00000000e+00
 0.00000000e+00 0.00000000e+00 0.00000000e+00 0.00000000e+00
 0.00000000e+00 0.00000000e+00 0.00000000e+00 0.00000000e+00
 0.00000000e+00 0.00000000e+00 0.00000000e+00 0.00000000e+00
 0.00000000e+00 0.00000000e+00 3.66722762e-08 5.49927650e-03
 0.00000000e+00 0.00000000e+00 0.00000000e+00 9.98306247e-03]","[[9.98386184e-06 1.23724444e-11 3.66722762e-11]
 [1.23724444e-11 1.30132217e-05 5.49927650e-06]
 [3.66722762e-11 5.49927650e-06 9.98306247e-06]]",[-5.40629906e-01  4.24134018e-10  1.03712550e-09],0.16079729763684636,-4.235500838944972e-11
1786949398.9551284,0.5501741569522208,-4.6175619742734747e-10,-1.117863135391417e-09,"[9.98356326e-03 1.27224283e-08 0.00000000e+00 0.00000000e+00
 0.00000000e+00 3.71280074e-08 1.27224283e-08 1.31185216e-02
 0.00000000e+00 0.00000000e+00 0.00000000e+00 5.59419469e-03
 0.00000000e+00 0.00000000e+00 0.00000000e+00 0.00000000e+00
 0.00000000e+00 0.00000000e+00 0.00000000e+00 0.00000000e+00
 0.00000000e+00 0.00000000e+00 0.00000000e+00 0.00000000e+00
 0.00000000e+00 0.00000000e+00 0.00000000e+00 0.00000000e+00
 0.00000000e+00 0.00000000e+00 3.71280074e-08 5.59419469e-03
 0.00000000e+00 0.00000000e+00 0.00000000e+00 9.98268006e-03]","[[9.98356326e-06 1.27224283e-11 3.71280074e-11]
 [1.27224283e-11 1.31185216e-05 5.59419469e-06]
 [3.71280074e-11 5.59419469e-06 9.98268006e-06]]",[-5.50179650e-01  4.54768682e-10  1.09744969e-09],0.16079729760659134,2.8296809340133677e-12
1786949399.0021255,0.5570575762551846,-4.838437984463821e-10,-1.1595084892235263e-09,"[9.98336427e-03 1.29741385e-08 0.00000000e+00 0.00000000e+00
 0.00000000e+00 3.74895382e-08 1.29741385e-08 1.31945665e-02
 0.00000000e+00 0.00000000e+00 0.00000000e+00 5.66173935e-03
 0.00000000e+00 0.00000000e+00 0.00000000e+00 0.00000000e+00
 0.00000000e+00 0.00000000e+00 0.00000000e+00 0.00000000e+00
 0.00000000e+00 0.00000000e+00 0.00000000e+00 0.00000000e+00
 0.00000000e+00 0.00000000e+00 0.00000000e+00 0.00000000e+00
 0.00000000e+00 0.00000000e+00 3.74895382e-08 5.66173935e-03
 0.00000000e+00 0.00000000e+00 0.00000000e+00 9.98242445e-03]","[[9.98336427e-06 1.29741385e-11 3.74895382e-11]
 [1.29741385e-11 1.31945665e-05 5.66173935e-06]
 [3.74895382e-11 5.66173935e-06 9.98242445e-06]]",[-5.57063138e-01  4.76629120e-10  1.13863852e-09],0.15757234041137272,-1.955380302121057e-12
1786949399.0723705,0.5661087741813261,-5.167906811088732e-10,-1.2234462332116891e-09,"[9.98306570e-03 1.33109444e-08 0.00000000e+00 0.00000000e+00
 0.00000000e+00 3.79229786e-08 1.33109444e-08 1.32966023e-02
 0.00000000e+00 0.00000000e+00 0.00000000e+00 5.75113263e-03
 0.00000000e+00 0.00000000e+00 0.00000000e+00 0.00000000e+00
 0.00000000e+00 0.00000000e+00 0.00000000e+00 0.00000000e+00
 0.00000000e+00 0.00000000e+00 0.00000000e+00 0.00000000e+00
 0.00000000e+00 0.00000000e+00 0.00000000e+00 0.00000000e+00
 0.00000000e+00 0.00000000e+00 3.79229786e-08 5.75113263e-03
 0.00000000e+00 0.00000000e+00 0.00000000e+00 9.98203631e-03]","[[9.98306570e-06 1.33109444e-11 3.79229786e-11]
 [1.33109444e-11 1.32966023e-05 5.75113263e-06]
 [3.79229786e-11 5.75113263e-06 9.98203631e-06]]",[-5.66114426e-01  5.09268848e-10  1.20199228e-09],0.15598536685869083,-1.9366452885805074e-12
1786949399.1036987,0.5720838271272548,-5.395614318901001e-10,-1.2672058957718946e-09,"[9.98286677e-03 1.35373443e-08 0.00000000e+00 0.00000000e+00
 0.00000000e+00 3.83230499e-08 1.35373443e-08 1.33653933e-02
 0.00000000e+00 0.00000000e+00 0.00000000e+00 5.81061859e-03
 0.00000000e+00 0.00000000e+00 0.00000000e+00 0.00000000e+00
 0.00000000e+00 0.00000000e+00 0.00000000e+00 0.00000000e+00
 0.00000000e+00 0.00000000e+00 0.00000000e+00 0.00000000e+00
 0.00000000e+00 0.00000000e+00 0.00000000e+00 0.00000000e+00
 0.00000000e+00 0.00000000e+00 3.83230499e-08 5.81061859e-03
 0.00000000e+00 0.00000000e+00 0.00000000e+00 9.98177778e-03]","[[9.98286677e-06 1.35373443e-11 3.83230499e-11]
 [1.35373443e-11 1.33653933e-05 5.81061859e-06]
 [3.83230499e-11 5.81061859e-06 9.98177778e-06]]",[-5.72089538e-01  5.31831203e-10  1.24529720e-09],0.15598536685614917,5.257079493947714e-12
1786949399.1500425,0.5814603242990345,-5.755293757016873e-10,-1.3341674431899264e-09,"[9.98256826e-03 1.38948063e-08 0.00000000e+00 0.00000000e+00
 0.00000000e+00 3.87882182e-08 1.38948063e-08 1.34740598e-02
 0.00000000e+00 0.00000000e+00 0.00000000e+00 5.90335098e-03
 0.00000000e+00 0.00000000e+00 0.00000000e+00 0.00000000e+00
 0.00000000e+00 0.00000000e+00 0.00000000e+00 0.00000000e+00
 0.00000000e+00 0.00000000e+00 0.00000000e+00 0.00000000e+00
 0.00000000e+00 0.00000000e+00 0.00000000e+00 0.00000000e+00
 0.00000000e+00 0.00000000e+00 3.87882182e-08 5.90335098e-03
 0.00000000e+00 0.00000000e+00 0.00000000e+00 9.98138493e-03]","[[9.98256826e-06 1.38948063e-11 3.87882182e-11]
 [1.38948063e-11 1.34740598e-05 5.90335098e-06]
 [3.87882182e-11 5.90335098e-06 9.98138493e-06]]",[-5.81466129e-01  5.67465406e-10  1.31162992e-09],0.1544191652959076,-1.713039432527097e-12
1786949399.2035944,0.5880263153542642,-6.008625335481e-10,-1.3801160214654828e-09,"[9.98236930e-03 1.41474647e-08 0.00000000e+00 0.00000000e+00
 0.00000000e+00 3.91379416e-08 1.41474647e-08 1.35511260e-02
 0.00000000e+00 0.00000000e+00 0.00000000e+00 5.96823304e-03
 0.00000000e+00 0.00000000e+00 0.00000000e+00 0.00000000e+00
 0.00000000e+00 0.00000000e+00 0.00000000e+00 0.00000000e+00
 0.00000000e+00 0.00000000e+00 0.00000000e+00 0.00000000e+00
 0.00000000e+00 0.00000000e+00 0.00000000e+00 0.00000000e+00
 0.00000000e+00 0.00000000e+00 3.91379416e-08 5.96823304e-03
 0.00000000e+00 0.00000000e+00 0.00000000e+00 9.98112199e-03]","[[9.98236930e-06 1.41474647e-11 3.91379416e-11]
 [1.41474647e-11 1.35511260e-05 5.96823304e-06]
 [3.91379416e-11 5.96823304e-06 9.98112199e-06]]",[-5.88032185e-01  5.92559498e-10  1.35711886e-09],0.1528655764300016,5.341040110184991e-12
1786949399.2507188,0.5975312419108587,-6.398336451047161e-10,-1.4505934231578976e-09,"[9.98207086e-03 1.45169500e-08 0.00000000e+00 0.00000000e+00
 0.00000000e+00 3.96406206e-08 1.45169500e-08 1.36640928e-02
 0.00000000e+00 0.00000000e+00 0.00000000e+00 6.06208075e-03
 0.00000000e+00 0.00000000e+00 0.00000000e+00 0.00000000e+00
 0.00000000e+00 0.00000000e+00 0.00000000e+00 0.00000000e+00
 0.00000000e+00 0.00000000e+00 0.00000000e+00 0.00000000e+00
 0.00000000e+00 0.00000000e+00 0.00000000e+00 0.00000000e+00
 0.00000000e+00 0.00000000e+00 3.96406206e-08 6.06208075e-03
 0.00000000e+00 0.00000000e+00 0.00000000e+00 9.98072435e-03]","[[9.98207086e-06 1.45169500e-11 3.96406206e-11]
 [1.45169500e-11 1.36640928e-05 6.06208075e-06]
 [3.96406206e-11 6.06208075e-06 9.98072435e-06]]",[-5.97537207e-01  6.31176502e-10  1.42692480e-09],0.15286557643355303,-1.8807871926540543e-12
1786949399.2991135,0.6034573285342963,-6.66194007330529e-10,-1.4987691088208521e-09,"[9.98187195e-03 1.47493060e-08 0.00000000e+00 0.00000000e+00
 0.00000000e+00 4.00179965e-08 1.47493060e-08 1.37352582e-02
 0.00000000e+00 0.00000000e+00 0.00000000e+00 6.12046295e-03
 0.00000000e+00 0.00000000e+00 0.00000000e+00 0.00000000e+00
 0.00000000e+00 0.00000000e+00 0.00000000e+00 0.00000000e+00
 0.00000000e+00 0.00000000e+00 0.00000000e+00 0.00000000e+00
 0.00000000e+00 0.00000000e+00 0.00000000e+00 0.00000000e+00
 0.00000000e+00 0.00000000e+00 4.00179965e-08 6.12046295e-03
 0.00000000e+00 0.00000000e+00 0.00000000e+00 9.98045806e-03]","[[9.98187195e-06 1.47493060e-11 4.00179965e-11]
 [1.47493060e-11 1.37352582e-05 6.12046295e-06]
 [4.00179965e-11 6.12046295e-06 9.98045806e-06]]",[-6.03463352e-01  6.57311395e-10  1.47463863e-09],0.1513322599026274,-2.1692717067089973e-12
1786949399.3526046,0.6119145027517245,-7.0642022891736e-10,-1.5724643809278405e-09,"[9.98157349e-03 1.50850881e-08 0.00000000e+00 0.00000000e+00
 0.00000000e+00 4.04781097e-08 1.50850881e-08 1.38381779e-02
 0.00000000e+00 0.00000000e+00 0.00000000e+00 6.20392147e-03
 0.00000000e+00 0.00000000e+00 0.00000000e+00 0.00000000e+00
 0.00000000e+00 0.00000000e+00 0.00000000e+00 0.00000000e+00
 0.00000000e+00 0.00000000e+00 0.00000000e+00 0.00000000e+00
 0.00000000e+00 0.00000000e+00 0.00000000e+00 0.00000000e+00
 0.00000000e+00 0.00000000e+00 4.04781097e-08 6.20392147e-03
 0.00000000e+00 0.00000000e+00 0.00000000e+00 9.98005410e-03]","[[9.98157349e-06 1.50850881e-11 4.04781097e-11]
 [1.50850881e-11 1.38381779e-05 6.20392147e-06]
 [4.04781097e-11 6.20392147e-06 9.98005410e-06]]",[-6.11920611e-01  6.97208603e-10  1.54771485e-09],0.15133225990262478,-1.8620521791135047e-12
1786949399.3987625,0.6208866744307998,-7.491468293853653e-10,-1.648155389943895e-09,"[9.98127506e-03 1.54474746e-08 0.00000000e+00 0.00000000e+00
 0.00000000e+00 4.09373078e-08 1.54474746e-08 1.39494556e-02
 0.00000000e+00 0.00000000e+00 0.00000000e+00 6.29289516e-03
 0.00000000e+00 0.00000000e+00 0.00000000e+00 0.00000000e+00
 0.00000000e+00 0.00000000e+00 0.00000000e+00 0.00000000e+00
 0.00000000e+00 0.00000000e+00 0.00000000e+00 0.00000000e+00
 0.00000000e+00 0.00000000e+00 0.00000000e+00 0.00000000e+00
 0.00000000e+00 0.00000000e+00 4.09373078e-08 6.29289516e-03
 0.00000000e+00 0.00000000e+00 0.00000000e+00 9.97964690e-03]","[[9.98137457e-06 1.53430754e-11 4.08244845e-11]
 [1.53430754e-11 1.39173845e-05 6.26737783e-06]
 [4.08244845e-11 6.26737783e-06 9.97978378e-06]]",[-6.18327052e-01  7.25935531e-10  1.59751856e-09],0.14981203737921034,-1.8398477186210016e-12
1786949399.4508014,0.6269773873568789,-7.787978744071165e-10,-1.699762108842151e-09,"[9.98107612e-03 1.56956992e-08 0.00000000e+00 0.00000000e+00
 0.00000000e+00 4.12567166e-08 1.56956992e-08 1.40258904e-02
 0.00000000e+00 0.00000000e+00 0.00000000e+00 6.35328102e-03
 0.00000000e+00 0.00000000e+00 0.00000000e+00 0.00000000e+00
 0.00000000e+00 0.00000000e+00 0.00000000e+00 0.00000000e+00
 0.00000000e+00 0.00000000e+00 0.00000000e+00 0.00000000e+00
 0.00000000e+00 0.00000000e+00 0.00000000e+00 0.00000000e+00
 0.00000000e+00 0.00000000e+00 4.12567166e-08 6.35328102e-03
 0.00000000e+00 0.00000000e+00 0.00000000e+00 9.97937389e-03]","[[9.98107612e-06 1.56956992e-11 4.12567166e-11]
 [1.56956992e-11 1.40258904e-05 6.35328102e-06]
 [4.12567166e-11 6.35328102e-06 9.97937389e-06]]",[-6.26983645e-01  7.68978348e-10  1.67391656e-09],0.14830783611532292,-1.8176432581284985e-12
1786949399.4987373,0.635881531101287,-8.244106967680718e-10,-1.7791088602336913e-09,"[9.98077775e-03 1.60592517e-08 0.00000000e+00 0.00000000e+00
 0.00000000e+00 4.17487901e-08 1.60592517e-08 1.41380463e-02
 0.00000000e+00 0.00000000e+00 0.00000000e+00 6.44085810e-03
 0.00000000e+00 0.00000000e+00 0.00000000e+00 0.00000000e+00
 0.00000000e+00 0.00000000e+00 0.00000000e+00 0.00000000e+00
 0.00000000e+00 0.00000000e+00 0.00000000e+00 0.00000000e+00
 0.00000000e+00 0.00000000e+00 0.00000000e+00 0.00000000e+00
 0.00000000e+00 0.00000000e+00 4.17487901e-08 6.44085810e-03
 0.00000000e+00 0.00000000e+00 0.00000000e+00 9.97896173e-03]","[[9.98087729e-06 1.59778926e-11 4.16804349e-11]
 [1.59778926e-11 1.41129850e-05 6.42138270e-06]
 [4.16804349e-11 6.42138270e-06 9.97910139e-06]]",[-6.33914993e-01  8.00646795e-10  1.72610459e-09],0.14681197207143135,-3.8643394040249746e-11
1786949399.5599735,0.6426085267332392,-8.572920554518415e-10,-1.8331944851013304e-09,"[9.98057891e-03 1.63366771e-08 0.00000000e+00 0.00000000e+00
 0.00000000e+00 4.21536653e-08 1.63366771e-08 1.42238090e-02
 0.00000000e+00 0.00000000e+00 0.00000000e+00 6.50701631e-03
 0.00000000e+00 0.00000000e+00 0.00000000e+00 0.00000000e+00
 0.00000000e+00 0.00000000e+00 0.00000000e+00 0.00000000e+00
 0.00000000e+00 0.00000000e+00 0.00000000e+00 0.00000000e+00
 0.00000000e+00 0.00000000e+00 0.00000000e+00 0.00000000e+00
 0.00000000e+00 0.00000000e+00 4.21536653e-08 6.50701631e-03
 0.00000000e+00 0.00000000e+00 0.00000000e+00 9.97868663e-03]","[[9.98057891e-06 1.63366771e-11 4.21536653e-11]
 [1.63366771e-11 1.42238090e-05 6.50701631e-06]
 [4.21536653e-11 6.50701631e-06 9.97868663e-06]]",[-6.42614940e-01  8.46817660e-10  1.80612947e-09],0.14533188543812486,-3.821977456741621e-11
1786949399.6022022,0.6504900388810338,-9.041050485323641e-10,-1.9158705732991166e-09,"[9.98028046e-03 1.66652482e-08 0.00000000e+00 0.00000000e+00
 0.00000000e+00 4.25351276e-08 1.66652482e-08 1.43253925e-02
 0.00000000e+00 0.00000000e+00 0.00000000e+00 6.58453143e-03
 0.00000000e+00 0.00000000e+00 0.00000000e+00 0.00000000e+00
 0.00000000e+00 0.00000000e+00 0.00000000e+00 0.00000000e+00
 0.00000000e+00 0.00000000e+00 0.00000000e+00 0.00000000e+00
 0.00000000e+00 0.00000000e+00 0.00000000e+00 0.00000000e+00
 0.00000000e+00 0.00000000e+00 4.25351276e-08 6.58453143e-03
 0.00000000e+00 0.00000000e+00 0.00000000e+00 9.97826659e-03]","[[9.98028046e-06 1.66652482e-11 4.25351276e-11]
 [1.66652482e-11 1.43253925e-05 6.58453143e-06]
 [4.25351276e-11 6.58453143e-06 9.97826659e-06]]",[-6.50496531e-01  8.93289592e-10  1.88822646e-09],0.14533188540720748,4.883073112527114e-12
1786949399.6559567,0.6537499175759226,-9.213227155066574e-10,-1.943840644003103e-09,"[9.98018104e-03 1.68035346e-08 0.00000000e+00 0.00000000e+00
 0.00000000e+00 4.27290836e-08 1.68035346e-08 1.43682642e-02
 0.00000000e+00 0.00000000e+00 0.00000000e+00 6.61696337e-03
 0.00000000e+00 0.00000000e+00 0.00000000e+00 0.00000000e+00
 0.00000000e+00 0.00000000e+00 0.00000000e+00 0.00000000e+00
 0.00000000e+00 0.00000000e+00 0.00000000e+00 0.00000000e+00
 0.00000000e+00 0.00000000e+00 0.00000000e+00 0.00000000e+00
 0.00000000e+00 0.00000000e+00 4.27290836e-08 6.61696337e-03
 0.00000000e+00 0.00000000e+00 0.00000000e+00 9.97812720e-03]","[[9.98018104e-06 1.68035346e-11 4.27290836e-11]
 [1.68035346e-11 1.43682642e-05 6.61696337e-06]
 [4.27290836e-11 6.61696337e-06 9.97812720e-06]]",[-6.53756442e-01  9.10363055e-10  1.91593141e-09],0.14533188541041325,-1.7527646001269659e-12
1786949399.7049692,0.6620588936315132,-9.71367083718574e-10,-2.029132417646906e-09,"[9.97988266e-03 1.71556826e-08 0.00000000e+00 0.00000000e+00
 0.00000000e+00 4.31539571e-08 1.71556826e-08 1.44775161e-02
 0.00000000e+00 0.00000000e+00 0.00000000e+00 6.69890827e-03
 0.00000000e+00 0.00000000e+00 0.00000000e+00 0.00000000e+00
 0.00000000e+00 0.00000000e+00 0.00000000e+00 0.00000000e+00
 0.00000000e+00 0.00000000e+00 0.00000000e+00 0.00000000e+00
 0.00000000e+00 0.00000000e+00 0.00000000e+00 0.00000000e+00
 0.00000000e+00 0.00000000e+00 4.31539571e-08 6.69890827e-03
 0.00000000e+00 0.00000000e+00 0.00000000e+00 9.97770368e-03]","[[9.97988266e-06 1.71556826e-11 4.31539571e-11]
 [1.71556826e-11 1.44775161e-05 6.69890827e-06]
 [4.31539571e-11 6.69890827e-06 9.97770368e-06]]",[-6.62065501e-01  9.60036199e-10  2.00058814e-09],0.14242373304139666,-3.744175108844061e-11
1786949399.749777,0.6711321338353354,-1.0249194700453104e-09,-2.1168760078182913e-09,"[9.97958442e-03 1.75429873e-08 0.00000000e+00 0.00000000e+00
 0.00000000e+00 4.37204551e-08 1.75429873e-08 1.45978768e-02
 0.00000000e+00 0.00000000e+00 0.00000000e+00 6.78802357e-03
 0.00000000e+00 0.00000000e+00 0.00000000e+00 0.00000000e+00
 0.00000000e+00 0.00000000e+00 0.00000000e+00 0.00000000e+00
 0.00000000e+00 0.00000000e+00 0.00000000e+00 0.00000000e+00
 0.00000000e+00 0.00000000e+00 0.00000000e+00 0.00000000e+00
 0.00000000e+00 0.00000000e+00 4.37204551e-08 6.78802357e-03
 0.00000000e+00 0.00000000e+00 0.00000000e+00 9.97727941e-03]","[[9.97958442e-06 1.75429873e-11 4.37204551e-11]
 [1.75429873e-11 1.45978768e-05 6.78802357e-06]
 [4.37204551e-11 6.78802357e-06 9.97727941e-06]]",[-6.71138832e-01  1.01317465e-09  2.08756123e-09],0.14242373301422712,-1.6878859421254333e-12
1786949399.798726,0.6765191302743895,-1.0603006813018455e-09,-2.1764292590376044e-09,"[9.97938551e-03 1.77750086e-08 0.00000000e+00 0.00000000e+00
 0.00000000e+00 4.39964345e-08 1.77750086e-08 1.46699945e-02
 0.00000000e+00 0.00000000e+00 0.00000000e+00 6.84086393e-03
 0.00000000e+00 0.00000000e+00 0.00000000e+00 0.00000000e+00
 0.00000000e+00 0.00000000e+00 0.00000000e+00 0.00000000e+00
 0.00000000e+00 0.00000000e+00 0.00000000e+00 0.00000000e+00
 0.00000000e+00 0.00000000e+00 0.00000000e+00 0.00000000e+00
 0.00000000e+00 0.00000000e+00 4.39964345e-08 6.84086393e-03
 0.00000000e+00 0.00000000e+00 0.00000000e+00 9.97699270e-03]","[[9.97938551e-06 1.77750086e-11 4.39964345e-11]
 [1.77750086e-11 1.46699945e-05 6.84086393e-06]
 [4.39964345e-11 6.84086393e-06 9.97699270e-06]]",[-6.76525882e-01  1.04830549e-09  2.14669305e-09],0.1409900633140819,-7.749009767188397e-12
1786949399.863552,0.6850511079654301,-1.1159686273919739e-09,-2.26743024356324e-09,"[9.97908722e-03 1.81465695e-08 0.00000000e+00 0.00000000e+00
 0.00000000e+00 4.44669192e-08 1.81465695e-08 1.47857017e-02
 0.00000000e+00 0.00000000e+00 0.00000000e+00 6.92478795e-03
 0.00000000e+00 0.00000000e+00 0.00000000e+00 0.00000000e+00
 0.00000000e+00 0.00000000e+00 0.00000000e+00 0.00000000e+00
 0.00000000e+00 0.00000000e+00 0.00000000e+00 0.00000000e+00
 0.00000000e+00 0.00000000e+00 0.00000000e+00 0.00000000e+00
 0.00000000e+00 0.00000000e+00 4.44669192e-08 6.92478795e-03
 0.00000000e+00 0.00000000e+00 0.00000000e+00 9.97656098e-03]","[[9.97908722e-06 1.81465695e-11 4.44669192e-11]
 [1.81465695e-11 1.47857017e-05 6.92478795e-06]
 [4.44669192e-11 6.92478795e-06 9.97656098e-06]]",[-6.85057944e-01  1.10356898e-09  2.23699770e-09],0.13957012699641258,-1.6207521436051309e-12
1786949399.8998036,0.6908775020376452,-1.1545174875264058e-09,-2.3290320783075913e-09,"[9.97888839e-03 1.84038204e-08 0.00000000e+00 0.00000000e+00
 0.00000000e+00 4.48062106e-08 1.84038204e-08 1.48659367e-02
 0.00000000e+00 0.00000000e+00 0.00000000e+00 6.98238481e-03
 0.00000000e+00 0.00000000e+00 0.00000000e+00 0.00000000e+00
 0.00000000e+00 0.00000000e+00 0.00000000e+00 0.00000000e+00
 0.00000000e+00 0.00000000e+00 0.00000000e+00 0.00000000e+00
 0.00000000e+00 0.00000000e+00 0.00000000e+00 0.00000000e+00
 0.00000000e+00 0.00000000e+00 4.48062106e-08 6.98238481e-03
 0.00000000e+00 0.00000000e+00 0.00000000e+00 9.97627178e-03]","[[9.97888839e-06 1.84038204e-11 4.48062106e-11]
 [1.84038204e-11 1.48659367e-05 6.98238481e-06]
 [4.48062106e-11 6.98238481e-06 9.97627178e-06]]",[-6.90884396e-01  1.14183560e-09  2.29810704e-09],0.1381722958481379,-3.604980897131682e-11
1786949399.9545703,0.693659762482083,-1.1738313837030087e-09,-2.360215578534053e-09,"[9.97878896e-03 1.85268104e-08 0.00000000e+00 0.00000000e+00
 0.00000000e+00 4.49593000e-08 1.85268104e-08 1.49043017e-02
 0.00000000e+00 0.00000000e+00 0.00000000e+00 7.00975736e-03
 0.00000000e+00 0.00000000e+00 0.00000000e+00 0.00000000e+00
 0.00000000e+00 0.00000000e+00 0.00000000e+00 0.00000000e+00
 0.00000000e+00 0.00000000e+00 0.00000000e+00 0.00000000e+00
 0.00000000e+00 0.00000000e+00 0.00000000e+00 0.00000000e+00
 0.00000000e+00 0.00000000e+00 4.49593000e-08 7.00975736e-03
 0.00000000e+00 0.00000000e+00 0.00000000e+00 9.97612625e-03]","[[9.97878896e-06 1.85268104e-11 4.49593000e-11]
 [1.85268104e-11 1.49043017e-05 7.00975736e-06]
 [4.49593000e-11 7.00975736e-06 9.97612625e-06]]",[-6.93666684e-01  1.16101358e-09  2.32906006e-09],0.13817229582196636,-1.6091294963160863e-12
1786949399.9995322,0.7043163214931065,-1.2389708859986448e-09,-2.457190895199801e-09,"[9.97849138e-03 1.90051270e-08 0.00000000e+00 0.00000000e+00
 0.00000000e+00 4.61252642e-08 1.90051270e-08 1.50532842e-02
 0.00000000e+00 0.00000000e+00 0.00000000e+00 7.11503101e-03
 0.00000000e+00 0.00000000e+00 0.00000000e+00 0.00000000e+00
 0.00000000e+00 0.00000000e+00 0.00000000e+00 0.00000000e+00
 0.00000000e+00 0.00000000e+00 0.00000000e+00 0.00000000e+00
 0.00000000e+00 0.00000000e+00 0.00000000e+00 0.00000000e+00
 0.00000000e+00 0.00000000e+00 4.61252642e-08 7.11503101e-03
 0.00000000e+00 0.00000000e+00 0.00000000e+00 9.97570041e-03]","[[9.97849138e-06 1.90051270e-11 4.61252642e-11]
 [1.90051270e-11 1.50532842e-05 7.11503101e-06]
 [4.61252642e-11 7.11503101e-06 9.97570041e-06]]",[-7.04323350e-01  1.22562083e-09  2.42473686e-09],0.13677659455001018,4.580537338316759e-12
1786949400.0515072,0.7124869030682964,-1.3002868282490067e-09,-2.55632626178226e-09,"[9.97819319e-03 1.93756435e-08 0.00000000e+00 0.00000000e+00
 0.00000000e+00 4.66534167e-08 1.93756435e-08 1.51676763e-02
 0.00000000e+00 0.00000000e+00 0.00000000e+00 7.19482017e-03
 0.00000000e+00 0.00000000e+00 0.00000000e+00 0.00000000e+00
 0.00000000e+00 0.00000000e+00 0.00000000e+00 0.00000000e+00
 0.00000000e+00 0.00000000e+00 0.00000000e+00 0.00000000e+00
 0.00000000e+00 0.00000000e+00 0.00000000e+00 0.00000000e+00
 0.00000000e+00 0.00000000e+00 4.66534167e-08 7.19482017e-03
 0.00000000e+00 0.00000000e+00 0.00000000e+00 9.97525825e-03]","[[9.97819319e-06 1.93756435e-11 4.66534167e-11]
 [1.93756435e-11 1.51676763e-05 7.19482017e-06]
 [4.66534167e-11 7.19482017e-06 9.97525825e-06]]",[-7.12494012e-01  1.28651947e-09  2.52312038e-09],0.1340257088820468,-1.557608209079575e-12
1786949400.09984,0.7178678353633067,-1.342150615772513e-09,-2.6237687578145596e-09,"[9.97799443e-03 1.96255607e-08 0.00000000e+00 0.00000000e+00
 0.00000000e+00 4.70255463e-08 1.96255607e-08 1.52448142e-02
 0.00000000e+00 0.00000000e+00 0.00000000e+00 7.24812350e-03
 0.00000000e+00 0.00000000e+00 0.00000000e+00 0.00000000e+00
 0.00000000e+00 0.00000000e+00 0.00000000e+00 0.00000000e+00
 0.00000000e+00 0.00000000e+00 0.00000000e+00 0.00000000e+00
 0.00000000e+00 0.00000000e+00 0.00000000e+00 0.00000000e+00
 0.00000000e+00 0.00000000e+00 4.70255463e-08 7.24812350e-03
 0.00000000e+00 0.00000000e+00 0.00000000e+00 9.97496198e-03]","[[9.97799443e-06 1.96255607e-11 4.70255463e-11]
 [1.96255607e-11 1.52448142e-05 7.24812350e-06]
 [4.70255463e-11 7.24812350e-06 9.97496198e-06]]",[-7.17874998e-01  1.32810094e-09  2.59004596e-09],0.13267926581518352,-3.467139769730565e-11
1786949400.1609228,0.7204488587406691,-1.3631273769727309e-09,-2.657763786828582e-09,"[9.97789501e-03 1.97452571e-08 0.00000000e+00 0.00000000e+00
 0.00000000e+00 4.71683829e-08 1.97452571e-08 1.52817357e-02
 0.00000000e+00 0.00000000e+00 0.00000000e+00 7.27349775e-03
 0.00000000e+00 0.00000000e+00 0.00000000e+00 0.00000000e+00
 0.00000000e+00 0.00000000e+00 0.00000000e+00 0.00000000e+00
 0.00000000e+00 0.00000000e+00 0.00000000e+00 0.00000000e+00
 0.00000000e+00 0.00000000e+00 0.00000000e+00 0.00000000e+00
 0.00000000e+00 0.00000000e+00 4.71683829e-08 7.27349775e-03
 0.00000000e+00 0.00000000e+00 0.00000000e+00 9.97481250e-03]","[[9.97789501e-06 1.97452571e-11 4.71683829e-11]
 [1.97452571e-11 1.52817357e-05 7.27349775e-06]
 [4.71683829e-11 7.27349775e-06 9.97481250e-06]]",[-7.20456047e-01  1.34894149e-09  2.62381716e-09],0.13267926578665667,-6.598367685572981e-12
1786949400.199135,0.7311070928444552,-1.4356172852392372e-09,-2.7622326648213402e-09,"[9.97759718e-03 2.02486761e-08 0.00000000e+00 0.00000000e+00
 0.00000000e+00 4.80255619e-08 2.02486761e-08 1.54369657e-02
 0.00000000e+00 0.00000000e+00 0.00000000e+00 7.37920228e-03
 0.00000000e+00 0.00000000e+00 0.00000000e+00 0.00000000e+00
 0.00000000e+00 0.00000000e+00 0.00000000e+00 0.00000000e+00
 0.00000000e+00 0.00000000e+00 0.00000000e+00 0.00000000e+00
 0.00000000e+00 0.00000000e+00 0.00000000e+00 0.00000000e+00
 0.00000000e+00 0.00000000e+00 4.80255619e-08 7.37920228e-03
 0.00000000e+00 0.00000000e+00 0.00000000e+00 9.97436947e-03]","[[9.97759718e-06 2.02486761e-11 4.80255619e-11]
 [2.02486761e-11 1.54369657e-05 7.37920228e-06]
 [4.80255619e-11 7.37920228e-06 9.97436947e-06]]",[-7.31114388e-01  1.42085524e-09  2.72715805e-09],0.13134776058124986,-1.472953703451907e-12
1786949400.2487297,0.7389729172796734,-1.5028532147127539e-09,-2.869238180380762e-09,"[9.97729903e-03 2.06228779e-08 0.00000000e+00 0.00000000e+00
 0.00000000e+00 4.85345484e-08 2.06228779e-08 1.55520197e-02
 0.00000000e+00 0.00000000e+00 0.00000000e+00 7.45658158e-03
 0.00000000e+00 0.00000000e+00 0.00000000e+00 0.00000000e+00
 0.00000000e+00 0.00000000e+00 0.00000000e+00 0.00000000e+00
 0.00000000e+00 0.00000000e+00 0.00000000e+00 0.00000000e+00
 0.00000000e+00 0.00000000e+00 0.00000000e+00 0.00000000e+00
 0.00000000e+00 0.00000000e+00 4.85345484e-08 7.45658158e-03
 0.00000000e+00 0.00000000e+00 0.00000000e+00 9.97391564e-03]","[[9.97729903e-06 2.06228779e-11 4.85345484e-11]
 [2.06228779e-11 1.55520197e-05 7.45658158e-06]
 [4.85345484e-11 7.45658158e-06 9.97391564e-06]]",[-7.38980290e-01  1.48765758e-09  2.83341128e-09],0.130020967923359,-1.4698312011951487e-12
1786949400.300275,0.7450702297832295,-1.5513956250090009e-09,-2.9418840696848747e-09,"[9.97710036e-03 2.09154129e-08 0.00000000e+00 0.00000000e+00
 0.00000000e+00 4.89677163e-08 2.09154129e-08 1.56420181e-02
 0.00000000e+00 0.00000000e+00 0.00000000e+00 7.51654620e-03
 0.00000000e+00 0.00000000e+00 0.00000000e+00 0.00000000e+00
 0.00000000e+00 0.00000000e+00 0.00000000e+00 0.00000000e+00
 0.00000000e+00 0.00000000e+00 0.00000000e+00 0.00000000e+00
 0.00000000e+00 0.00000000e+00 0.00000000e+00 0.00000000e+00
 0.00000000e+00 0.00000000e+00 4.89677163e-08 7.51654620e-03
 0.00000000e+00 0.00000000e+00 0.00000000e+00 9.97361304e-03]","[[9.97710036e-06 2.09154129e-11 4.89677163e-11]
 [2.09154129e-11 1.56420181e-05 7.51654620e-06]
 [4.89677163e-11 7.51654620e-06 9.97361304e-06]]",[-7.45077663e-01  1.53585788e-09  2.90543989e-09],0.12871345381566068,-1.358808898732633e-12
1786949400.3508136,0.7522933591982985,-1.620393238043193e-09,-3.0526563499222448e-09,"[9.97680215e-03 2.12659947e-08 0.00000000e+00 0.00000000e+00
 0.00000000e+00 4.93829452e-08 2.12659947e-08 1.57497907e-02
 0.00000000e+00 0.00000000e+00 0.00000000e+00 7.58772789e-03
 0.00000000e+00 0.00000000e+00 0.00000000e+00 0.00000000e+00
 0.00000000e+00 0.00000000e+00 0.00000000e+00 0.00000000e+00
 0.00000000e+00 0.00000000e+00 0.00000000e+00 0.00000000e+00
 0.00000000e+00 0.00000000e+00 0.00000000e+00 0.00000000e+00
 0.00000000e+00 0.00000000e+00 4.93829452e-08 7.58772789e-03
 0.00000000e+00 0.00000000e+00 0.00000000e+00 9.97315164e-03]","[[9.97680215e-06 2.12659947e-11 4.93829452e-11]
 [2.12659947e-11 1.57497907e-05 7.58772789e-06]
 [4.93829452e-11 7.58772789e-06 9.97315164e-06]]",[-7.52300865e-01  1.60444296e-09  3.01554781e-09],0.12741978170695764,-1.2888995426507677e-12
1786949400.3989155,0.7572250799999395,-1.667916776684997e-09,-3.1276856660156227e-09,"[9.97660336e-03 2.15076413e-08 0.00000000e+00 0.00000000e+00
 0.00000000e+00 4.96685732e-08 2.15076413e-08 1.58241012e-02
 0.00000000e+00 0.00000000e+00 0.00000000e+00 7.63641718e-03
 0.00000000e+00 0.00000000e+00 0.00000000e+00 0.00000000e+00
 0.00000000e+00 0.00000000e+00 0.00000000e+00 0.00000000e+00
 0.00000000e+00 0.00000000e+00 0.00000000e+00 0.00000000e+00
 0.00000000e+00 0.00000000e+00 0.00000000e+00 0.00000000e+00
 0.00000000e+00 0.00000000e+00 4.96685732e-08 7.63641718e-03
 0.00000000e+00 0.00000000e+00 0.00000000e+00 9.97284229e-03]","[[9.97660336e-06 2.15076413e-11 4.96685732e-11]
 [2.15076413e-11 1.58241012e-05 7.63641718e-06]
 [4.96685732e-11 7.63641718e-06 9.97284229e-06]]",[-7.57232635e-01  1.65168022e-09  3.09011838e-09],0.1274197817068372,-6.938893903907228e-16
1786949400.459136,0.7646742373277156,-1.741159041557861e-09,-3.2419031903430096e-09,"[9.97630522e-03 2.18745935e-08 0.00000000e+00 0.00000000e+00
 0.00000000e+00 5.01242441e-08 2.18745935e-08 1.59370287e-02
 0.00000000e+00 0.00000000e+00 0.00000000e+00 7.70981312e-03
 0.00000000e+00 0.00000000e+00 0.00000000e+00 0.00000000e+00
 0.00000000e+00 0.00000000e+00 0.00000000e+00 0.00000000e+00
 0.00000000e+00 0.00000000e+00 0.00000000e+00 0.00000000e+00
 0.00000000e+00 0.00000000e+00 0.00000000e+00 0.00000000e+00
 0.00000000e+00 0.00000000e+00 5.01242441e-08 7.70981312e-03
 0.00000000e+00 0.00000000e+00 0.00000000e+00 9.97237603e-03]","[[9.97630522e-06 2.18745935e-11 5.01242441e-11]
 [2.18745935e-11 1.59370287e-05 7.70981312e-06]
 [5.01242441e-11 7.70981312e-06 9.97237603e-06]]",[-7.64681866e-01  1.72448412e-09  3.20361915e-09],0.1261429965456527,-1.3681764055029078e-12
1786949400.5011153,0.7695831844535757,-1.7910091784359262e-09,-3.319366115306366e-09,"[9.97610645e-03 2.21187540e-08 0.00000000e+00 0.00000000e+00
 0.00000000e+00 5.04160262e-08 2.21187540e-08 1.60121896e-02
 0.00000000e+00 0.00000000e+00 0.00000000e+00 7.75827377e-03
 0.00000000e+00 0.00000000e+00 0.00000000e+00 0.00000000e+00
 0.00000000e+00 0.00000000e+00 0.00000000e+00 0.00000000e+00
 0.00000000e+00 0.00000000e+00 0.00000000e+00 0.00000000e+00
 0.00000000e+00 0.00000000e+00 0.00000000e+00 0.00000000e+00
 0.00000000e+00 0.00000000e+00 5.04160262e-08 7.75827377e-03
 0.00000000e+00 0.00000000e+00 0.00000000e+00 9.97206309e-03]","[[9.97610645e-06 2.21187540e-11 5.04160262e-11]
 [2.21187540e-11 1.60121896e-05 7.75827377e-06]
 [5.04160262e-11 7.75827377e-06 9.97206309e-06]]",[-7.69590862e-01  1.77404065e-09  3.28061267e-09],0.12487518265461334,-4.260047176130044e-12
1786949400.5519454,0.7769842674168701,-1.8677490838292444e-09,-3.437232276581881e-09,"[9.97580834e-03 2.24888273e-08 0.00000000e+00 0.00000000e+00
 0.00000000e+00 5.08729911e-08 2.24888273e-08 1.61261587e-02
 0.00000000e+00 0.00000000e+00 0.00000000e+00 7.83117727e-03
 0.00000000e+00 0.00000000e+00 0.00000000e+00 0.00000000e+00
 0.00000000e+00 0.00000000e+00 0.00000000e+00 0.00000000e+00
 0.00000000e+00 0.00000000e+00 0.00000000e+00 0.00000000e+00
 0.00000000e+00 0.00000000e+00 0.00000000e+00 0.00000000e+00
 0.00000000e+00 0.00000000e+00 5.08729911e-08 7.83117727e-03
 0.00000000e+00 0.00000000e+00 0.00000000e+00 9.97159124e-03]","[[9.97580834e-06 2.24888273e-11 5.08729911e-11]
 [2.24888273e-11 1.61261587e-05 7.83117727e-06]
 [5.08729911e-11 7.83117727e-06 9.97159124e-06]]",[-7.76992019e-01  1.85033189e-09  3.39775275e-09],0.12362326129118557,-9.261688638240173e-13
1786949400.6044164,0.7821179932532245,-1.9208580499527193e-09,-3.5169827050651747e-09,"[9.97560964e-03 2.27479967e-08 0.00000000e+00 0.00000000e+00
 0.00000000e+00 5.12056787e-08 2.27479967e-08 1.62060061e-02
 0.00000000e+00 0.00000000e+00 0.00000000e+00 7.88184730e-03
 0.00000000e+00 0.00000000e+00 0.00000000e+00 0.00000000e+00
 0.00000000e+00 0.00000000e+00 0.00000000e+00 0.00000000e+00
 0.00000000e+00 0.00000000e+00 0.00000000e+00 0.00000000e+00
 0.00000000e+00 0.00000000e+00 0.00000000e+00 0.00000000e+00
 0.00000000e+00 0.00000000e+00 5.12056787e-08 7.88184730e-03
 0.00000000e+00 0.00000000e+00 0.00000000e+00 9.97127535e-03]","[[9.97560964e-06 2.27479967e-11 5.12056787e-11]
 [2.27479967e-11 1.62060061e-05 7.88184730e-06]
 [5.12056787e-11 7.88184730e-06 9.97127535e-06]]",[-7.82125795e-01  1.90312450e-09  3.47698315e-09],0.12238452483743589,-1.2742411292787637e-12
1786949400.6490273,0.7896251503128787,-2.0017949714905567e-09,-3.638755075030531e-09,"[9.97531161e-03 2.31296259e-08 0.00000000e+00 0.00000000e+00
 0.00000000e+00 5.17131732e-08 2.31296259e-08 1.63235335e-02
 0.00000000e+00 0.00000000e+00 0.00000000e+00 7.95583435e-03
 0.00000000e+00 0.00000000e+00 0.00000000e+00 0.00000000e+00
 0.00000000e+00 0.00000000e+00 0.00000000e+00 0.00000000e+00
 0.00000000e+00 0.00000000e+00 0.00000000e+00 0.00000000e+00
 0.00000000e+00 0.00000000e+00 0.00000000e+00 0.00000000e+00
 0.00000000e+00 0.00000000e+00 5.17131732e-08 7.95583435e-03
 0.00000000e+00 0.00000000e+00 0.00000000e+00 9.97079868e-03]","[[9.97531161e-06 2.31296259e-11 5.17131732e-11]
 [2.31296259e-11 1.63235335e-05 7.95583435e-06]
 [5.17131732e-11 7.95583435e-06 9.97079868e-06]]",[-7.89633027e-01  1.98359206e-09  3.59797214e-09],0.1199238238521213,-1.2298322082937574e-12
1786949400.7221365,0.7940701373572926,-2.0549397658535636e-09,-3.721052355132315e-09,"[9.97511286e-03 2.33561418e-08 0.00000000e+00 0.00000000e+00
 0.00000000e+00 5.19798100e-08 2.33561418e-08 1.63932726e-02
 0.00000000e+00 0.00000000e+00 0.00000000e+00 7.99940899e-03
 0.00000000e+00 0.00000000e+00 0.00000000e+00 0.00000000e+00
 0.00000000e+00 0.00000000e+00 0.00000000e+00 0.00000000e+00
 0.00000000e+00 0.00000000e+00 0.00000000e+00 0.00000000e+00
 0.00000000e+00 0.00000000e+00 0.00000000e+00 0.00000000e+00
 0.00000000e+00 0.00000000e+00 5.19798100e-08 7.99940899e-03
 0.00000000e+00 0.00000000e+00 0.00000000e+00 9.97047771e-03]","[[9.97511286e-06 2.33561418e-11 5.19798100e-11]
 [2.33561418e-11 1.63932726e-05 7.99940899e-06]
 [5.19798100e-11 7.99940899e-06 9.97047771e-06]]",[-7.94078058e-01  2.03645599e-09  3.67982933e-09],0.11871234093020717,-5.369142630495816e-12
1786949400.7535255,0.8018138912784256,-2.1217186856057814e-09,-3.8055874007625334e-09,"[9.97491473e-03 2.37554256e-08 0.00000000e+00 0.00000000e+00
 0.00000000e+00 5.28807169e-08 2.37554256e-08 1.65160817e-02
 0.00000000e+00 0.00000000e+00 0.00000000e+00 8.07557077e-03
 0.00000000e+00 0.00000000e+00 0.00000000e+00 0.00000000e+00
 0.00000000e+00 0.00000000e+00 0.00000000e+00 0.00000000e+00
 0.00000000e+00 0.00000000e+00 0.00000000e+00 0.00000000e+00
 0.00000000e+00 0.00000000e+00 0.00000000e+00 0.00000000e+00
 0.00000000e+00 0.00000000e+00 5.28807169e-08 8.07557077e-03
 0.00000000e+00 0.00000000e+00 0.00000000e+00 9.97016722e-03]","[[9.97491473e-06 2.37554256e-11 5.28807169e-11]
 [2.37554256e-11 1.65160817e-05 8.07557077e-06]
 [5.28807169e-11 8.07557077e-06 9.97016722e-06]]",[-8.01821889e-01  2.10273618e-09  3.76324083e-09],0.1175167306697629,-3.065213013964119e-11
1786949400.7985659,0.8081994362688113,-2.204167725453946e-09,-3.933953607315743e-09,"[9.97461662e-03 2.40896996e-08 0.00000000e+00 0.00000000e+00
 0.00000000e+00 5.32667978e-08 2.40896996e-08 1.66182272e-02
 0.00000000e+00 0.00000000e+00 0.00000000e+00 8.13836185e-03
 0.00000000e+00 0.00000000e+00 0.00000000e+00 0.00000000e+00
 0.00000000e+00 0.00000000e+00 0.00000000e+00 0.00000000e+00
 0.00000000e+00 0.00000000e+00 0.00000000e+00 0.00000000e+00
 0.00000000e+00 0.00000000e+00 0.00000000e+00 0.00000000e+00
 0.00000000e+00 0.00000000e+00 5.32667978e-08 8.13836185e-03
 0.00000000e+00 0.00000000e+00 0.00000000e+00 9.96967926e-03]","[[9.97461662e-06 2.40896996e-11 5.32667978e-11]
 [2.40896996e-11 1.66182272e-05 8.13836185e-06]
 [5.32667978e-11 8.13836185e-06 9.96967926e-06]]",[-8.08207498e-01  2.18476622e-09  3.89095955e-09],0.11632960723529104,-9.090818375856458e-13
1786949400.8506017,0.8127599959668413,-2.261531626660853e-09,-4.0207255302959766e-09,"[9.97441794e-03 2.43306300e-08 0.00000000e+00 0.00000000e+00
 0.00000000e+00 5.35693308e-08 2.43306300e-08 1.66918745e-02
 0.00000000e+00 0.00000000e+00 0.00000000e+00 8.18333211e-03
 0.00000000e+00 0.00000000e+00 0.00000000e+00 0.00000000e+00
 0.00000000e+00 0.00000000e+00 0.00000000e+00 0.00000000e+00
 0.00000000e+00 0.00000000e+00 0.00000000e+00 0.00000000e+00
 0.00000000e+00 0.00000000e+00 0.00000000e+00 0.00000000e+00
 0.00000000e+00 0.00000000e+00 5.35693308e-08 8.18333211e-03
 0.00000000e+00 0.00000000e+00 0.00000000e+00 9.96935308e-03]","[[9.97441794e-06 2.43306300e-11 5.35693308e-11]
 [2.43306300e-11 1.66918745e-05 8.18333211e-06]
 [5.35693308e-11 8.18333211e-06 9.96935308e-06]]",[-8.12768103e-01  2.24182643e-09  3.97724387e-09],0.11400230379714418,-2.961389813926907e-11
1786949400.9157014,0.8150028521952395,-2.290437436801905e-09,-4.064466541109368e-09,"[9.97431859e-03 2.44489830e-08 0.00000000e+00 0.00000000e+00
 0.00000000e+00 5.37155329e-08 2.44489830e-08 1.67280480e-02
 0.00000000e+00 0.00000000e+00 0.00000000e+00 8.20532859e-03
 0.00000000e+00 0.00000000e+00 0.00000000e+00 0.00000000e+00
 0.00000000e+00 0.00000000e+00 0.00000000e+00 0.00000000e+00
 0.00000000e+00 0.00000000e+00 0.00000000e+00 0.00000000e+00
 0.00000000e+00 0.00000000e+00 0.00000000e+00 0.00000000e+00
 0.00000000e+00 0.00000000e+00 5.37155329e-08 8.20532859e-03
 0.00000000e+00 0.00000000e+00 0.00000000e+00 9.96918936e-03]","[[9.97431859e-06 2.44489830e-11 5.37155329e-11]
 [2.44489830e-11 1.67280480e-05 8.20532859e-06]
 [5.37155329e-11 8.20532859e-06 9.96918936e-06]]",[-8.15010981e-01  2.27058222e-09  4.02074640e-09],0.11400230377510981,-5.9445504074773226e-12
1786949400.9501941,0.821936104875375,-2.338979494266724e-09,-4.1098826564223145e-09,"[9.97422050e-03 2.48209582e-08 0.00000000e+00 0.00000000e+00
 0.00000000e+00 5.51446296e-08 2.48209582e-08 1.68420900e-02
 0.00000000e+00 0.00000000e+00 0.00000000e+00 8.27430738e-03
 0.00000000e+00 0.00000000e+00 0.00000000e+00 0.00000000e+00
 0.00000000e+00 0.00000000e+00 0.00000000e+00 0.00000000e+00
 0.00000000e+00 0.00000000e+00 0.00000000e+00 0.00000000e+00
 0.00000000e+00 0.00000000e+00 0.00000000e+00 0.00000000e+00
 0.00000000e+00 0.00000000e+00 5.51446296e-08 8.27430738e-03
 0.00000000e+00 0.00000000e+00 0.00000000e+00 9.96905056e-03]","[[9.97422050e-06 2.48209582e-11 5.51446296e-11]
 [2.48209582e-11 1.68420900e-05 8.27430738e-06]
 [5.51446296e-11 8.27430738e-06 9.96905056e-06]]",[-8.21944303e-01  2.31865073e-09  4.06461664e-09],0.11400230377549536,-1.1253151188661548e-12
1786949401.0010912,0.8287330369248211,-2.4292891380311826e-09,-4.2476879791308875e-09,"[9.97392254e-03 2.51932339e-08 0.00000000e+00 0.00000000e+00
 0.00000000e+00 5.56461914e-08 2.51932339e-08 1.69537750e-02
 0.00000000e+00 0.00000000e+00 0.00000000e+00 8.34128293e-03
 0.00000000e+00 0.00000000e+00 0.00000000e+00 0.00000000e+00
 0.00000000e+00 0.00000000e+00 0.00000000e+00 0.00000000e+00
 0.00000000e+00 0.00000000e+00 0.00000000e+00 0.00000000e+00
 0.00000000e+00 0.00000000e+00 0.00000000e+00 0.00000000e+00
 0.00000000e+00 0.00000000e+00 5.56461914e-08 8.34128293e-03
 0.00000000e+00 0.00000000e+00 0.00000000e+00 9.96855487e-03]","[[9.97392254e-06 2.51932339e-11 5.56461914e-11]
 [2.51932339e-11 1.69537750e-05 8.34128293e-06]
 [5.56461914e-11 8.34128293e-06 9.96855487e-06]]",[-8.28741303e-01  2.40848634e-09  4.20163371e-09],0.11285765565788336,-5.673066183486952e-12
1786949401.0515206,0.8357072913391619,-2.5227605267636597e-09,-4.387843866027197e-09,"[9.97362461e-03 2.55776474e-08 0.00000000e+00 0.00000000e+00
 0.00000000e+00 5.61508914e-08 2.55776474e-08 1.70689979e-02
 0.00000000e+00 0.00000000e+00 0.00000000e+00 8.40981383e-03
 0.00000000e+00 0.00000000e+00 0.00000000e+00 0.00000000e+00
 0.00000000e+00 0.00000000e+00 0.00000000e+00 0.00000000e+00
 0.00000000e+00 0.00000000e+00 0.00000000e+00 0.00000000e+00
 0.00000000e+00 0.00000000e+00 0.00000000e+00 0.00000000e+00
 0.00000000e+00 0.00000000e+00 5.61508914e-08 8.40981383e-03
 0.00000000e+00 0.00000000e+00 0.00000000e+00 9.96805592e-03]","[[9.97362461e-06 2.55776474e-11 5.61508914e-11]
 [2.55776474e-11 1.70689979e-05 8.40981383e-06]
 [5.61508914e-11 8.40981383e-06 9.96805592e-06]]",[-8.35715626e-01  2.50146409e-09  4.34098180e-09],0.11172278353701207,-1.0785643211885798e-12
1786949401.1018634,0.842053995779299,-2.6158191069043172e-09,-4.529896457938776e-09,"[9.97332661e-03 2.59319236e-08 0.00000000e+00 0.00000000e+00
 0.00000000e+00 5.65752751e-08 2.59319236e-08 1.71751462e-02
 0.00000000e+00 0.00000000e+00 0.00000000e+00 8.47244629e-03
 0.00000000e+00 0.00000000e+00 0.00000000e+00 0.00000000e+00
 0.00000000e+00 0.00000000e+00 0.00000000e+00 0.00000000e+00
 0.00000000e+00 0.00000000e+00 0.00000000e+00 0.00000000e+00
 0.00000000e+00 0.00000000e+00 0.00000000e+00 0.00000000e+00
 0.00000000e+00 0.00000000e+00 5.65752751e-08 8.47244629e-03
 0.00000000e+00 0.00000000e+00 0.00000000e+00 9.96755227e-03]","[[9.97332661e-06 2.59319236e-11 5.65752751e-11]
 [2.59319236e-11 1.71751462e-05 8.47244629e-06]
 [5.65752751e-11 8.47244629e-06 9.96755227e-06]]",[-8.42062394e-01  2.59406534e-09  4.48232340e-09],0.11060271852132864,-1.0500281200087613e-12
1786949401.1574821,0.847141421387921,-2.6831238441519118e-09,-4.62611282614489e-09,"[9.97312808e-03 2.62155208e-08 0.00000000e+00 0.00000000e+00
 0.00000000e+00 5.69863354e-08 2.62155208e-08 1.72601067e-02
 0.00000000e+00 0.00000000e+00 0.00000000e+00 8.52224580e-03
 0.00000000e+00 0.00000000e+00 0.00000000e+00 0.00000000e+00
 0.00000000e+00 0.00000000e+00 0.00000000e+00 0.00000000e+00
 0.00000000e+00 0.00000000e+00 0.00000000e+00 0.00000000e+00
 0.00000000e+00 0.00000000e+00 0.00000000e+00 0.00000000e+00
 0.00000000e+00 0.00000000e+00 5.69863354e-08 8.52224580e-03
 0.00000000e+00 0.00000000e+00 0.00000000e+00 9.96721714e-03]","[[9.97312808e-06 2.62155208e-11 5.69863354e-11]
 [2.62155208e-11 1.72601067e-05 8.52224580e-06]
 [5.69863354e-11 8.52224580e-06 9.96721714e-06]]",[-8.47149870e-01  2.66100031e-09  4.57790517e-09],0.10839286552762073,-1.2258423442990107e-12
1786949401.1993177,0.8509162597010838,-2.7454086703131656e-09,-4.723194724221003e-09,"[9.97292940e-03 2.64275058e-08 0.00000000e+00 0.00000000e+00
 0.00000000e+00 5.72304218e-08 2.64275058e-08 1.73235359e-02
 0.00000000e+00 0.00000000e+00 0.00000000e+00 8.55922513e-03
 0.00000000e+00 0.00000000e+00 0.00000000e+00 0.00000000e+00
 0.00000000e+00 0.00000000e+00 0.00000000e+00 0.00000000e+00
 0.00000000e+00 0.00000000e+00 0.00000000e+00 0.00000000e+00
 0.00000000e+00 0.00000000e+00 0.00000000e+00 0.00000000e+00
 0.00000000e+00 0.00000000e+00 5.72304218e-08 8.55922513e-03
 0.00000000e+00 0.00000000e+00 0.00000000e+00 9.96687733e-03]","[[9.97292940e-06 2.64275058e-11 5.72304218e-11]
 [2.64275058e-11 1.73235359e-05 8.55922513e-06]
 [5.72304218e-11 8.55922513e-06 9.96687733e-06]]",[-8.50924746e-01  2.72300803e-09  4.67456562e-09],0.10730176928500179,-1.2040715646755018e-12
1786949401.253759,0.8572360066694262,-2.8438320426944144e-09,-4.8707535782455125e-09,"[9.97263147e-03 2.67849944e-08 0.00000000e+00 0.00000000e+00
 0.00000000e+00 5.76786438e-08 2.67849944e-08 1.74304690e-02
 0.00000000e+00 0.00000000e+00 0.00000000e+00 8.62120761e-03
 0.00000000e+00 0.00000000e+00 0.00000000e+00 0.00000000e+00
 0.00000000e+00 0.00000000e+00 0.00000000e+00 0.00000000e+00
 0.00000000e+00 0.00000000e+00 0.00000000e+00 0.00000000e+00
 0.00000000e+00 0.00000000e+00 0.00000000e+00 0.00000000e+00
 0.00000000e+00 0.00000000e+00 5.76786438e-08 8.62120761e-03
 0.00000000e+00 0.00000000e+00 0.00000000e+00 9.96636658e-03]","[[9.97263147e-06 2.67849944e-11 5.76786438e-11]
 [2.67849944e-11 1.74304690e-05 8.62120761e-06]
 [5.76786438e-11 8.62120761e-06 9.96636658e-06]]",[-8.57244556e-01  2.82096149e-09  4.82138107e-09],0.1062222050128199,-5.108153483535105e-12
1786949401.2991035,0.8635167830445268,-2.9444256860451465e-09,-5.020669213706697e-09,"[9.97233356e-03 2.71431190e-08 0.00000000e+00 0.00000000e+00
 0.00000000e+00 5.81318856e-08 2.71431190e-08 1.75375235e-02
 0.00000000e+00 0.00000000e+00 0.00000000e+00 8.68280953e-03
 0.00000000e+00 0.00000000e+00 0.00000000e+00 0.00000000e+00
 0.00000000e+00 0.00000000e+00 0.00000000e+00 0.00000000e+00
 0.00000000e+00 0.00000000e+00 0.00000000e+00 0.00000000e+00
 0.00000000e+00 0.00000000e+00 0.00000000e+00 0.00000000e+00
 0.00000000e+00 0.00000000e+00 5.81318856e-08 8.68280953e-03
 0.00000000e+00 0.00000000e+00 0.00000000e+00 9.96585276e-03]","[[9.97233356e-06 2.71431190e-11 5.81318856e-11]
 [2.71431190e-11 1.75375235e-05 8.68280953e-06]
 [5.81318856e-11 8.68280953e-06 9.96585276e-06]]",[-8.63525394e-01  2.92108130e-09  4.97054575e-09],0.10409396995525422,-8.891325176119125e-13
1786949401.3613005,0.8677843491109497,-3.0132196623242615e-09,-5.1219228858201404e-09,"[9.97213498e-03 2.73856895e-08 0.00000000e+00 0.00000000e+00
 0.00000000e+00 5.84445353e-08 2.73856895e-08 1.76099931e-02
 0.00000000e+00 0.00000000e+00 0.00000000e+00 8.72425978e-03
 0.00000000e+00 0.00000000e+00 0.00000000e+00 0.00000000e+00
 0.00000000e+00 0.00000000e+00 0.00000000e+00 0.00000000e+00
 0.00000000e+00 0.00000000e+00 0.00000000e+00 0.00000000e+00
 0.00000000e+00 0.00000000e+00 0.00000000e+00 0.00000000e+00
 0.00000000e+00 0.00000000e+00 5.84445353e-08 8.72425978e-03
 0.00000000e+00 0.00000000e+00 0.00000000e+00 9.96550867e-03]","[[9.97213498e-06 2.73856895e-11 5.84445353e-11]
 [2.73856895e-11 1.76099931e-05 8.72425978e-06]
 [5.84445353e-11 8.72425978e-06 9.96550867e-06]]",[-8.67793003e-01  2.98955144e-09  5.07128162e-09],0.10409396995525422,-8.857498068337577e-13
1786949401.3984566,0.8739984332881113,-3.1174690394329783e-09,-5.275439196594789e-09,"[9.97183711e-03 2.77453641e-08 0.00000000e+00 0.00000000e+00
 0.00000000e+00 5.89038848e-08 2.77453641e-08 1.77173588e-02
 0.00000000e+00 0.00000000e+00 0.00000000e+00 8.78530267e-03
 0.00000000e+00 0.00000000e+00 0.00000000e+00 0.00000000e+00
 0.00000000e+00 0.00000000e+00 0.00000000e+00 0.00000000e+00
 0.00000000e+00 0.00000000e+00 0.00000000e+00 0.00000000e+00
 0.00000000e+00 0.00000000e+00 0.00000000e+00 0.00000000e+00
 0.00000000e+00 0.00000000e+00 5.89038848e-08 8.78530267e-03
 0.00000000e+00 0.00000000e+00 0.00000000e+00 9.96498965e-03]","[[9.97193641e-06 2.76332774e-11 5.87702329e-11]
 [2.76332774e-11 1.76839173e-05 8.76633728e-06]
 [5.87702329e-11 8.76633728e-06 9.96516340e-06]]",[-8.72068719e-01  3.05914959e-09  5.17284882e-09],0.1030487856553847,-2.6620892989992484e-11
1786949401.449581,0.8762513141582506,-3.1537258859519114e-09,-5.327146723743681e-09,"[9.97173785e-03 2.78773938e-08 0.00000000e+00 0.00000000e+00
 0.00000000e+00 5.90883830e-08 2.78773938e-08 1.77567549e-02
 0.00000000e+00 0.00000000e+00 0.00000000e+00 8.80759551e-03
 0.00000000e+00 0.00000000e+00 0.00000000e+00 0.00000000e+00
 0.00000000e+00 0.00000000e+00 0.00000000e+00 0.00000000e+00
 0.00000000e+00 0.00000000e+00 0.00000000e+00 0.00000000e+00
 0.00000000e+00 0.00000000e+00 0.00000000e+00 0.00000000e+00
 0.00000000e+00 0.00000000e+00 5.90883830e-08 8.80759551e-03
 0.00000000e+00 0.00000000e+00 0.00000000e+00 9.96481655e-03]","[[9.97173785e-06 2.78773938e-11 5.90883830e-11]
 [2.78773938e-11 1.77567549e-05 8.80759551e-06]
 [5.90883830e-11 8.80759551e-06 9.96481655e-06]]",[-8.76260052e-01  3.12940007e-09  5.27544985e-09],0.10304878563581574,-8.690964614643804e-13
1786949401.509976,0.882377560386005,-3.260785511710464e-09,-5.4840212371232155e-09,"[9.97144006e-03 2.82370275e-08 0.00000000e+00 0.00000000e+00
 0.00000000e+00 5.96089508e-08 2.82370275e-08 1.78639182e-02
 0.00000000e+00 0.00000000e+00 0.00000000e+00 8.86794053e-03
 0.00000000e+00 0.00000000e+00 0.00000000e+00 0.00000000e+00
 0.00000000e+00 0.00000000e+00 0.00000000e+00 0.00000000e+00
 0.00000000e+00 0.00000000e+00 0.00000000e+00 0.00000000e+00
 0.00000000e+00 0.00000000e+00 0.00000000e+00 0.00000000e+00
 0.00000000e+00 0.00000000e+00 5.96089508e-08 8.86794053e-03
 0.00000000e+00 0.00000000e+00 0.00000000e+00 9.96429435e-03]","[[9.97144006e-06 2.82370275e-11 5.96089508e-11]
 [2.82370275e-11 1.78639182e-05 8.86794053e-06]
 [5.96089508e-11 8.86794053e-06 9.96429435e-06]]",[-8.82386359e-01  3.23597552e-09  5.43150591e-09],0.1020141170421707,-8.472389456670726e-13
1786949401.5490093,0.886386094504343,-3.3330694345393535e-09,-5.58989254884068e-09,"[9.97124151e-03 2.84748570e-08 0.00000000e+00 0.00000000e+00
 0.00000000e+00 5.99141728e-08 2.84748570e-08 1.79346864e-02
 0.00000000e+00 0.00000000e+00 0.00000000e+00 8.90756219e-03
 0.00000000e+00 0.00000000e+00 0.00000000e+00 0.00000000e+00
 0.00000000e+00 0.00000000e+00 0.00000000e+00 0.00000000e+00
 0.00000000e+00 0.00000000e+00 0.00000000e+00 0.00000000e+00
 0.00000000e+00 0.00000000e+00 0.00000000e+00 0.00000000e+00
 0.00000000e+00 0.00000000e+00 5.99141728e-08 8.90756219e-03
 0.00000000e+00 0.00000000e+00 0.00000000e+00 9.96394372e-03]","[[9.97124151e-06 2.84748570e-11 5.99141728e-11]
 [2.84748570e-11 1.79346864e-05 8.90756219e-06]
 [5.99141728e-11 8.90756219e-06 9.96394372e-06]]",[-8.86394933e-01  3.30793811e-09  5.53686963e-09],0.10098362918581513,-8.592952738251114e-13
1786949401.599071,0.8941930540590264,-3.479655162295764e-09,-5.804873914883046e-09,"[9.97084441e-03 2.89374660e-08 0.00000000e+00 0.00000000e+00
 0.00000000e+00 6.05151766e-08 2.89374660e-08 1.80721664e-02
 0.00000000e+00 0.00000000e+00 0.00000000e+00 8.98402211e-03
 0.00000000e+00 0.00000000e+00 0.00000000e+00 0.00000000e+00
 0.00000000e+00 0.00000000e+00 0.00000000e+00 0.00000000e+00
 0.00000000e+00 0.00000000e+00 0.00000000e+00 0.00000000e+00
 0.00000000e+00 0.00000000e+00 0.00000000e+00 0.00000000e+00
 0.00000000e+00 0.00000000e+00 6.05151766e-08 8.98402211e-03
 0.00000000e+00 0.00000000e+00 0.00000000e+00 9.96323802e-03]","[[9.97084441e-06 2.89374660e-11 6.05151766e-11]
 [2.89374660e-11 1.80721664e-05 8.98402211e-06]
 [6.05151766e-11 8.98402211e-06 9.96323802e-06]]",[-8.94201970e-01  3.45389331e-09  5.75084957e-09],0.09895930956783813,-9.854096705286253e-13
1786949401.654215,0.8981914185232963,-3.5550918350337092e-09,-5.913843192928425e-09,"[9.97064588e-03 2.91753523e-08 0.00000000e+00 0.00000000e+00
 0.00000000e+00 6.08256592e-08 2.91753523e-08 1.81427936e-02
 0.00000000e+00 0.00000000e+00 0.00000000e+00 9.02304603e-03
 0.00000000e+00 0.00000000e+00 0.00000000e+00 0.00000000e+00
 0.00000000e+00 0.00000000e+00 0.00000000e+00 0.00000000e+00
 0.00000000e+00 0.00000000e+00 0.00000000e+00 0.00000000e+00
 0.00000000e+00 0.00000000e+00 0.00000000e+00 0.00000000e+00
 0.00000000e+00 0.00000000e+00 6.08256592e-08 9.02304603e-03
 0.00000000e+00 0.00000000e+00 0.00000000e+00 9.96288337e-03]","[[9.97064588e-06 2.91753523e-11 6.08256592e-11]
 [2.91753523e-11 1.81427936e-05 9.02304603e-06]
 [6.08256592e-11 9.02304603e-06 9.96288337e-06]]",[-8.98200374e-01  3.52900342e-09  5.85929971e-09],0.09796113717569922,-4.56926163572291e-13
1786949401.7022605,0.902104558084486,-3.631109673142974e-09,-6.023780141362067e-09,"[9.97044736e-03 2.94101065e-08 0.00000000e+00 0.00000000e+00
 0.00000000e+00 6.11282254e-08 2.94101065e-08 1.82124329e-02
 0.00000000e+00 0.00000000e+00 0.00000000e+00 9.06135546e-03
 0.00000000e+00 0.00000000e+00 0.00000000e+00 0.00000000e+00
 0.00000000e+00 0.00000000e+00 0.00000000e+00 0.00000000e+00
 0.00000000e+00 0.00000000e+00 0.00000000e+00 0.00000000e+00
 0.00000000e+00 0.00000000e+00 0.00000000e+00 0.00000000e+00
 0.00000000e+00 0.00000000e+00 6.11282254e-08 9.06135546e-03
 0.00000000e+00 0.00000000e+00 0.00000000e+00 9.96252718e-03]","[[9.97044736e-06 2.94101065e-11 6.11282254e-11]
 [2.94101065e-11 1.82124329e-05 9.06135546e-06]
 [6.11282254e-11 9.06135546e-06 9.96252718e-06]]",[-9.02113553e-01  3.60469815e-09  5.96872773e-09],0.0979611371773847,-7.579874228280659e-13
1786949401.7533104,0.9086034581633592,-3.751102690076735e-09,-6.190734591626779e-09,"[9.97014969e-03 2.98049971e-08 0.00000000e+00 0.00000000e+00
 0.00000000e+00 6.16953590e-08 2.98049971e-08 1.83294557e-02
 0.00000000e+00 0.00000000e+00 0.00000000e+00 9.12537175e-03
 0.00000000e+00 0.00000000e+00 0.00000000e+00 0.00000000e+00
 0.00000000e+00 0.00000000e+00 0.00000000e+00 0.00000000e+00
 0.00000000e+00 0.00000000e+00 0.00000000e+00 0.00000000e+00
 0.00000000e+00 0.00000000e+00 0.00000000e+00 0.00000000e+00
 0.00000000e+00 0.00000000e+00 6.16953590e-08 9.12537175e-03
 0.00000000e+00 0.00000000e+00 0.00000000e+00 9.96199241e-03]","[[9.97014969e-06 2.98049971e-11 6.16953590e-11]
 [2.98049971e-11 1.83294557e-05 9.12537175e-06]
 [6.16953590e-11 9.12537175e-06 9.96199241e-06]]",[-9.08612517e-01  3.72414574e-09  6.13477269e-09],0.09697903039302043,-2.4935782605428614e-11
1786949401.8003297,0.9118527843893057,-3.8257374739964265e-09,-6.303304989074832e-09,"[9.96995110e-03 3.00026520e-08 0.00000000e+00 0.00000000e+00
 0.00000000e+00 6.19182066e-08 3.00026520e-08 1.83879315e-02
 0.00000000e+00 0.00000000e+00 0.00000000e+00 9.15717463e-03
 0.00000000e+00 0.00000000e+00 0.00000000e+00 0.00000000e+00
 0.00000000e+00 0.00000000e+00 0.00000000e+00 0.00000000e+00
 0.00000000e+00 0.00000000e+00 0.00000000e+00 0.00000000e+00
 0.00000000e+00 0.00000000e+00 0.00000000e+00 0.00000000e+00
 0.00000000e+00 0.00000000e+00 6.19182066e-08 9.15717463e-03
 0.00000000e+00 0.00000000e+00 0.00000000e+00 9.96163116e-03]","[[9.96995110e-06 3.00026520e-11 6.19182066e-11]
 [3.00026520e-11 1.83879315e-05 9.15717463e-06]
 [6.19182066e-11 9.15717463e-06 9.96163116e-06]]",[-9.11861876e-01  3.79850625e-09  6.24694119e-09],0.0969790303730435,-4.821663901477535e-13
1786949401.8554702,0.9176329143309513,-3.9453661458220985e-09,-6.474228708697183e-09,"[9.96965337e-03 3.03547042e-08 0.00000000e+00 0.00000000e+00
 0.00000000e+00 6.23822121e-08 3.03547042e-08 1.84920037e-02
 0.00000000e+00 0.00000000e+00 0.00000000e+00 9.21351436e-03
 0.00000000e+00 0.00000000e+00 0.00000000e+00 0.00000000e+00
 0.00000000e+00 0.00000000e+00 0.00000000e+00 0.00000000e+00
 0.00000000e+00 0.00000000e+00 0.00000000e+00 0.00000000e+00
 0.00000000e+00 0.00000000e+00 0.00000000e+00 0.00000000e+00
 0.00000000e+00 0.00000000e+00 6.23822121e-08 9.21351436e-03
 0.00000000e+00 0.00000000e+00 0.00000000e+00 9.96108924e-03]","[[9.96965337e-06 3.03547042e-11 6.23822121e-11]
 [3.03547042e-11 1.84920037e-05 9.21351436e-06]
 [6.23822121e-11 9.21351436e-06 9.96108924e-06]]",[-9.17642063e-01  3.91764296e-09  6.41708420e-09],0.09600089216153343,-4.0202216555762504e-13
1786949401.8995056,0.9234583283700569,-4.067797774807394e-09,-6.64759314261687e-09,"[9.96935568e-03 3.07138836e-08 0.00000000e+00 0.00000000e+00
 0.00000000e+00 6.28741389e-08 3.07138836e-08 1.85980204e-02
 0.00000000e+00 0.00000000e+00 0.00000000e+00 9.27054876e-03
 0.00000000e+00 0.00000000e+00 0.00000000e+00 0.00000000e+00
 0.00000000e+00 0.00000000e+00 0.00000000e+00 0.00000000e+00
 0.00000000e+00 0.00000000e+00 0.00000000e+00 0.00000000e+00
 0.00000000e+00 0.00000000e+00 0.00000000e+00 0.00000000e+00
 0.00000000e+00 0.00000000e+00 6.28741389e-08 9.27054876e-03
 0.00000000e+00 0.00000000e+00 0.00000000e+00 9.96054473e-03]","[[9.96945495e-06 3.06095715e-11 6.27519804e-11]
 [3.06095715e-11 1.85672577e-05 9.25404041e-06]
 [6.27519804e-11 9.25404041e-06 9.96072738e-06]]",[-9.21760105e-01  4.00017895e-09  6.53184129e-09],0.09503745975768688,-6.963180032570904e-13
1786949401.9527245,0.9254532810306599,-4.109520635629357e-09,-6.705893174085986e-09,"[9.96925645e-03 3.08361483e-08 0.00000000e+00 0.00000000e+00
 0.00000000e+00 6.30411851e-08 3.08361483e-08 1.86340772e-02
 0.00000000e+00 0.00000000e+00 0.00000000e+00 9.28986561e-03
 0.00000000e+00 0.00000000e+00 0.00000000e+00 0.00000000e+00
 0.00000000e+00 0.00000000e+00 0.00000000e+00 0.00000000e+00
 0.00000000e+00 0.00000000e+00 0.00000000e+00 0.00000000e+00
 0.00000000e+00 0.00000000e+00 0.00000000e+00 0.00000000e+00
 0.00000000e+00 0.00000000e+00 6.30411851e-08 9.28986561e-03
 0.00000000e+00 0.00000000e+00 0.00000000e+00 9.96036264e-03]","[[9.96925645e-06 3.08361483e-11 6.30411851e-11]
 [3.08361483e-11 1.86340772e-05 9.28986561e-06]
 [6.30411851e-11 9.28986561e-06 9.96036264e-06]]",[-9.25462507e-01  4.08112074e-09  6.64765487e-09],0.0940779325496722,3.516371221978787e-12
1786949401.999116,0.9315065986262819,-4.236923497199477e-09,-6.882475034331037e-09,"[9.96895888e-03 3.12157794e-08 0.00000000e+00 0.00000000e+00
 0.00000000e+00 6.36284917e-08 3.12157794e-08 1.87458986e-02
 0.00000000e+00 0.00000000e+00 0.00000000e+00 9.34951605e-03
 0.00000000e+00 0.00000000e+00 0.00000000e+00 0.00000000e+00
 0.00000000e+00 0.00000000e+00 0.00000000e+00 0.00000000e+00
 0.00000000e+00 0.00000000e+00 0.00000000e+00 0.00000000e+00
 0.00000000e+00 0.00000000e+00 0.00000000e+00 0.00000000e+00
 0.00000000e+00 0.00000000e+00 6.36284917e-08 9.34951605e-03
 0.00000000e+00 0.00000000e+00 0.00000000e+00 9.95981592e-03]","[[9.96895888e-06 3.12157794e-11 6.36284917e-11]
 [3.12157794e-11 1.87458986e-05 9.34951605e-06]
 [6.36284917e-11 9.34951605e-06 9.95981592e-06]]",[-9.31515885e-01  4.20798818e-09  6.82331125e-09],0.0931352341707885,-4.1798162153661167e-13
1786949402.0490873,0.9364339687654524,-4.358987524495812e-09,-7.061320417278694e-09,"[9.96866111e-03 3.15248005e-08 0.00000000e+00 0.00000000e+00
 0.00000000e+00 6.40008666e-08 3.15248005e-08 1.88367026e-02
 0.00000000e+00 0.00000000e+00 0.00000000e+00 9.39765037e-03
 0.00000000e+00 0.00000000e+00 0.00000000e+00 0.00000000e+00
 0.00000000e+00 0.00000000e+00 0.00000000e+00 0.00000000e+00
 0.00000000e+00 0.00000000e+00 0.00000000e+00 0.00000000e+00
 0.00000000e+00 0.00000000e+00 0.00000000e+00 0.00000000e+00
 0.00000000e+00 0.00000000e+00 6.40008666e-08 9.39765037e-03
 0.00000000e+00 0.00000000e+00 0.00000000e+00 9.95926206e-03]","[[9.96866111e-06 3.15248005e-11 6.40008666e-11]
 [3.15248005e-11 1.88367026e-05 9.39765037e-06]
 [6.40008666e-11 9.39765037e-06 9.95926206e-06]]",[-9.36443304e-01  4.32961369e-09  7.00149760e-09],0.09127109936551582,-2.352840144936863e-11
1786949402.0990698,0.9419452208183159,-4.487552897687016e-09,-7.242563881959541e-09,"[9.96836346e-03 3.18740744e-08 0.00000000e+00 0.00000000e+00
 0.00000000e+00 6.44682613e-08 3.18740744e-08 1.89392180e-02
 0.00000000e+00 0.00000000e+00 0.00000000e+00 9.45170434e-03
 0.00000000e+00 0.00000000e+00 0.00000000e+00 0.00000000e+00
 0.00000000e+00 0.00000000e+00 0.00000000e+00 0.00000000e+00
 0.00000000e+00 0.00000000e+00 0.00000000e+00 0.00000000e+00
 0.00000000e+00 0.00000000e+00 0.00000000e+00 0.00000000e+00
 0.00000000e+00 0.00000000e+00 6.44682613e-08 9.45170434e-03
 0.00000000e+00 0.00000000e+00 0.00000000e+00 9.95870710e-03]","[[9.96836346e-06 3.18740744e-11 6.44682613e-11]
 [3.18740744e-11 1.89392180e-05 9.45170434e-06]
 [6.44682613e-11 9.45170434e-06 9.95870710e-06]]",[-9.41954611e-01  4.45768127e-09  7.18195148e-09],0.09127109934811312,-6.273627450870123e-13
1786949402.1585746,0.9458072207600552,-4.576044101717657e-09,-7.364570286938488e-09,"[9.96816508e-03 3.21203600e-08 0.00000000e+00 0.00000000e+00
 0.00000000e+00 6.48251309e-08 3.21203600e-08 1.90114183e-02
 0.00000000e+00 0.00000000e+00 0.00000000e+00 9.48958893e-03
 0.00000000e+00 0.00000000e+00 0.00000000e+00 0.00000000e+00
 0.00000000e+00 0.00000000e+00 0.00000000e+00 0.00000000e+00
 0.00000000e+00 0.00000000e+00 0.00000000e+00 0.00000000e+00
 0.00000000e+00 0.00000000e+00 0.00000000e+00 0.00000000e+00
 0.00000000e+00 0.00000000e+00 6.48251309e-08 9.48958893e-03
 0.00000000e+00 0.00000000e+00 0.00000000e+00 9.95833635e-03]","[[9.96816508e-06 3.21203600e-11 6.48251309e-11]
 [3.21203600e-11 1.90114183e-05 9.48958893e-06]
 [6.48251309e-11 9.48958893e-06 9.95833635e-06]]",[-9.45816649e-01  4.54581986e-09  7.30337346e-09],0.08944652847815295,-7.820133429703446e-13
1786949402.1993198,0.9490863753797398,-4.661332181886251e-09,-7.487617192936113e-09,"[9.96796660e-03 3.23304437e-08 0.00000000e+00 0.00000000e+00
 0.00000000e+00 6.50822482e-08 3.23304437e-08 1.90729085e-02
 0.00000000e+00 0.00000000e+00 0.00000000e+00 9.52172063e-03
 0.00000000e+00 0.00000000e+00 0.00000000e+00 0.00000000e+00
 0.00000000e+00 0.00000000e+00 0.00000000e+00 0.00000000e+00
 0.00000000e+00 0.00000000e+00 0.00000000e+00 0.00000000e+00
 0.00000000e+00 0.00000000e+00 0.00000000e+00 0.00000000e+00
 0.00000000e+00 0.00000000e+00 6.50822482e-08 9.52172063e-03
 0.00000000e+00 0.00000000e+00 0.00000000e+00 9.95796229e-03]","[[9.96796660e-06 3.23304437e-11 6.50822482e-11]
 [3.23304437e-11 1.90729085e-05 9.52172063e-06]
 [6.50822482e-11 9.52172063e-06 9.95796229e-06]]",[-9.49095836e-01  4.63080652e-09  7.42596606e-09],0.0894465284781514,-6.003877950355729e-13
1786949402.2523391,0.9543917861722758,-4.794181317998284e-09,-7.674309188132611e-09,"[9.96766899e-03 3.26725110e-08 0.00000000e+00 0.00000000e+00
 0.00000000e+00 6.55449636e-08 3.26725110e-08 1.91729158e-02
 0.00000000e+00 0.00000000e+00 0.00000000e+00 9.57375265e-03
 0.00000000e+00 0.00000000e+00 0.00000000e+00 0.00000000e+00
 0.00000000e+00 0.00000000e+00 0.00000000e+00 0.00000000e+00
 0.00000000e+00 0.00000000e+00 0.00000000e+00 0.00000000e+00
 0.00000000e+00 0.00000000e+00 0.00000000e+00 0.00000000e+00
 0.00000000e+00 0.00000000e+00 6.55449636e-08 9.57375265e-03
 0.00000000e+00 0.00000000e+00 0.00000000e+00 9.95740022e-03]","[[9.96766899e-06 3.26725110e-11 6.55449636e-11]
 [3.26725110e-11 1.91729158e-05 9.57375265e-06]
 [6.55449636e-11 9.57375265e-06 9.95740022e-06]]",[-9.54401299e-01  4.76316283e-09  7.61187424e-09],0.08854843806145135,-5.92755011741275e-13
1786949402.3017595,0.9580609498465378,-4.885153000994233e-09,-7.800120105372343e-09,"[9.96747061e-03 3.29099366e-08 0.00000000e+00 0.00000000e+00
 0.00000000e+00 6.58787585e-08 3.29099366e-08 1.92422461e-02
 0.00000000e+00 0.00000000e+00 0.00000000e+00 9.60965761e-03
 0.00000000e+00 0.00000000e+00 0.00000000e+00 0.00000000e+00
 0.00000000e+00 0.00000000e+00 0.00000000e+00 0.00000000e+00
 0.00000000e+00 0.00000000e+00 0.00000000e+00 0.00000000e+00
 0.00000000e+00 0.00000000e+00 0.00000000e+00 0.00000000e+00
 0.00000000e+00 0.00000000e+00 6.58787585e-08 9.60965761e-03
 0.00000000e+00 0.00000000e+00 0.00000000e+00 9.95702442e-03]","[[9.96747061e-06 3.29099366e-11 6.58787585e-11]
 [3.29099366e-11 1.92422461e-05 9.60965761e-06]
 [6.58787585e-11 9.60965761e-06 9.95702442e-06]]",[-9.58070499e-01  4.85379071e-09  7.73712738e-09],0.08765666704788039,-1.7564075194265172e-13
1786949402.3496823,0.9631695424391539,-5.020607395691971e-09,-7.990852868289267e-09,"[9.96717300e-03 3.32395248e-08 0.00000000e+00 0.00000000e+00
 0.00000000e+00 6.63202637e-08 3.32395248e-08 1.93383220e-02
 0.00000000e+00 0.00000000e+00 0.00000000e+00 9.65917783e-03
 0.00000000e+00 0.00000000e+00 0.00000000e+00 0.00000000e+00
 0.00000000e+00 0.00000000e+00 0.00000000e+00 0.00000000e+00
 0.00000000e+00 0.00000000e+00 0.00000000e+00 0.00000000e+00
 0.00000000e+00 0.00000000e+00 0.00000000e+00 0.00000000e+00
 0.00000000e+00 0.00000000e+00 6.63202637e-08 9.65917783e-03
 0.00000000e+00 0.00000000e+00 0.00000000e+00 9.95645706e-03]","[[9.96717300e-06 3.32395248e-11 6.63202637e-11]
 [3.32395248e-11 1.93383220e-05 9.65917783e-06]
 [6.63202637e-11 9.65917783e-06 9.95645706e-06]]",[-9.63179143e-01  4.98876482e-09  7.92710164e-09],0.08589639572669178,-5.684688830775997e-13
1786949402.399477,0.9667989865307459,-5.081877224559317e-09,-8.055536238060768e-09,"[9.96707433e-03 3.34770960e-08 0.00000000e+00 0.00000000e+00
 0.00000000e+00 6.70112520e-08 3.34770960e-08 1.94075768e-02
 0.00000000e+00 0.00000000e+00 0.00000000e+00 9.69476225e-03
 0.00000000e+00 0.00000000e+00 0.00000000e+00 0.00000000e+00
 0.00000000e+00 0.00000000e+00 0.00000000e+00 0.00000000e+00
 0.00000000e+00 0.00000000e+00 0.00000000e+00 0.00000000e+00
 0.00000000e+00 0.00000000e+00 0.00000000e+00 0.00000000e+00
 0.00000000e+00 0.00000000e+00 6.70112520e-08 9.69476225e-03
 0.00000000e+00 0.00000000e+00 0.00000000e+00 9.95627800e-03]","[[9.96707433e-06 3.34770960e-11 6.70112520e-11]
 [3.34770960e-11 1.94075768e-05 9.69476225e-06]
 [6.70112520e-11 9.69476225e-06 9.95627800e-06]]",[-9.66808623e-01  5.04968675e-09  7.99087774e-09],0.08503524147405073,-2.176774385742597e-11
1786949402.4598398,0.9716424164791988,-5.218963420813142e-09,-8.251075822585108e-09,"[9.96677673e-03 3.37986406e-08 0.00000000e+00 0.00000000e+00
 0.00000000e+00 6.74354455e-08 3.37986406e-08 1.95005392e-02
 0.00000000e+00 0.00000000e+00 0.00000000e+00 9.74224824e-03
 0.00000000e+00 0.00000000e+00 0.00000000e+00 0.00000000e+00
 0.00000000e+00 0.00000000e+00 0.00000000e+00 0.00000000e+00
 0.00000000e+00 0.00000000e+00 0.00000000e+00 0.00000000e+00
 0.00000000e+00 0.00000000e+00 0.00000000e+00 0.00000000e+00
 0.00000000e+00 0.00000000e+00 6.74354455e-08 9.74224824e-03
 0.00000000e+00 0.00000000e+00 0.00000000e+00 9.95570546e-03]","[[9.96677673e-06 3.37986406e-11 6.74354455e-11]
 [3.37986406e-11 1.95005392e-05 9.74224824e-06]
