time,x,y,yaw,cov_prop,K_gain,innovation,v_ekf,omega_ekf
1787152150.408134,2.220329153670699,0.1410300833911414,2.038787377137398,"[ 5.95572253e-05 -1.38745694e-06  0.00000000e+00  0.00000000e+00
  0.00000000e+00 -3.09580114e-06 -1.38745694e-06  4.96333442e-05
  0.00000000e+00  0.00000000e+00  0.00000000e+00  3.98346959e-07
  0.00000000e+00  0.00000000e+00  0.00000000e+00  0.00000000e+00
  0.00000000e+00  0.00000000e+00  0.00000000e+00  0.00000000e+00
  0.00000000e+00  0.00000000e+00  0.00000000e+00  0.00000000e+00
  0.00000000e+00  0.00000000e+00  0.00000000e+00  0.00000000e+00
  0.00000000e+00  0.00000000e+00 -3.09580114e-06  3.98346959e-07
  0.00000000e+00  0.00000000e+00  0.00000000e+00  3.80391338e-06]","[[-0.0002615   0.04957218]
 [-0.00120927 -0.00915556]]",[],0.0,0.0
1787152150.4522681,2.220329153670699,0.1410300833911414,2.038787377137398,"[ 5.95572253e-05 -1.38745694e-06  0.00000000e+00  0.00000000e+00
  0.00000000e+00 -3.09580114e-06 -1.38745694e-06  4.96333442e-05
  0.00000000e+00  0.00000000e+00  0.00000000e+00  3.98346959e-07
  0.00000000e+00  0.00000000e+00  0.00000000e+00  0.00000000e+00
  0.00000000e+00  0.00000000e+00  0.00000000e+00  0.00000000e+00
  0.00000000e+00  0.00000000e+00  0.00000000e+00  0.00000000e+00
  0.00000000e+00  0.00000000e+00  0.00000000e+00  0.00000000e+00
  0.00000000e+00  0.00000000e+00 -3.09580114e-06  3.98346959e-07
  0.00000000e+00  0.00000000e+00  0.00000000e+00  3.80391338e-06]","[[-0.0002615   0.04957218]
 [-0.00120927 -0.00915556]]",[],0.0,0.0
1787152150.504253,2.220329153670699,0.1410300833911414,2.038787377137398,"[ 5.95572253e-05 -1.38745694e-06  0.00000000e+00  0.00000000e+00
  0.00000000e+00 -3.09580114e-06 -1.38745694e-06  4.96333442e-05
  0.00000000e+00  0.00000000e+00  0.00000000e+00  3.98346959e-07
  0.00000000e+00  0.00000000e+00  0.00000000e+00  0.00000000e+00
  0.00000000e+00  0.00000000e+00  0.00000000e+00  0.00000000e+00
  0.00000000e+00  0.00000000e+00  0.00000000e+00  0.00000000e+00
  0.00000000e+00  0.00000000e+00  0.00000000e+00  0.00000000e+00
  0.00000000e+00  0.00000000e+00 -3.09580114e-06  3.98346959e-07
  0.00000000e+00  0.00000000e+00  0.00000000e+00  3.80391338e-06]","[[-0.0002615   0.04957218]
 [-0.00120927 -0.00915556]]",[],0.0,0.0
1787152150.5541909,2.220329153670699,0.1410300833911414,2.038787377137398,"[ 5.95572253e-05 -1.38745694e-06  0.00000000e+00  0.00000000e+00
  0.00000000e+00 -3.09580114e-06 -1.38745694e-06  4.96333442e-05
  0.00000000e+00  0.00000000e+00  0.00000000e+00  3.98346959e-07
  0.00000000e+00  0.00000000e+00  0.00000000e+00  0.00000000e+00
  0.00000000e+00  0.00000000e+00  0.00000000e+00  0.00000000e+00
  0.00000000e+00  0.00000000e+00  0.00000000e+00  0.00000000e+00
  0.00000000e+00  0.00000000e+00  0.00000000e+00  0.00000000e+00
  0.00000000e+00  0.00000000e+00 -3.09580114e-06  3.98346959e-07
  0.00000000e+00  0.00000000e+00  0.00000000e+00  3.80391338e-06]","[[-0.0002615   0.04957218]
 [-0.00120927 -0.00915556]]",[],0.0,0.0
1787152150.6032624,2.220329153670699,0.1410300833911414,2.038787377137398,"[ 5.95572253e-05 -1.38745694e-06  0.00000000e+00  0.00000000e+00
  0.00000000e+00 -3.09580114e-06 -1.38745694e-06  4.96333442e-05
  0.00000000e+00  0.00000000e+00  0.00000000e+00  3.98346959e-07
  0.00000000e+00  0.00000000e+00  0.00000000e+00  0.00000000e+00
  0.00000000e+00  0.00000000e+00  0.00000000e+00  0.00000000e+00
  0.00000000e+00  0.00000000e+00  0.00000000e+00  0.00000000e+00
  0.00000000e+00  0.00000000e+00  0.00000000e+00  0.00000000e+00
  0.00000000e+00  0.00000000e+00 -3.09580114e-06  3.98346959e-07
  0.00000000e+00  0.00000000e+00  0.00000000e+00  3.80391338e-06]","[[-0.0002615   0.04957218]
 [-0.00120927 -0.00915556]]",[],0.0,0.0
1787152150.6572711,2.220329153670699,0.1410300833911414,2.038787377137398,"[ 5.95572253e-05 -1.38745694e-06  0.00000000e+00  0.00000000e+00
  0.00000000e+00 -3.09580114e-06 -1.38745694e-06  4.96333442e-05
  0.00000000e+00  0.00000000e+00  0.00000000e+00  3.98346959e-07
  0.00000000e+00  0.00000000e+00  0.00000000e+00  0.00000000e+00
  0.00000000e+00  0.00000000e+00  0.00000000e+00  0.00000000e+00
  0.00000000e+00  0.00000000e+00  0.00000000e+00  0.00000000e+00
  0.00000000e+00  0.00000000e+00  0.00000000e+00  0.00000000e+00
  0.00000000e+00  0.00000000e+00 -3.09580114e-06  3.98346959e-07
  0.00000000e+00  0.00000000e+00  0.00000000e+00  3.80391338e-06]","[[-0.0002615   0.04957218]
 [-0.00120927 -0.00915556]]",[],0.0,0.0
1787152150.7048874,2.220329153670699,0.1410300833911414,2.038787377137398,"[ 5.95572253e-05 -1.38745694e-06  0.00000000e+00  0.00000000e+00
  0.00000000e+00 -3.09580114e-06 -1.38745694e-06  4.96333442e-05
  0.00000000e+00  0.00000000e+00  0.00000000e+00  3.98346959e-07
  0.00000000e+00  0.00000000e+00  0.00000000e+00  0.00000000e+00
  0.00000000e+00  0.00000000e+00  0.00000000e+00  0.00000000e+00
  0.00000000e+00  0.00000000e+00  0.00000000e+00  0.00000000e+00
  0.00000000e+00  0.00000000e+00  0.00000000e+00  0.00000000e+00
  0.00000000e+00  0.00000000e+00 -3.09580114e-06  3.98346959e-07
  0.00000000e+00  0.00000000e+00  0.00000000e+00  3.80391338e-06]","[[-0.0002615   0.04957218]
 [-0.00120927 -0.00915556]]",[],0.0,0.0
1787152150.7561996,2.220329153670699,0.1410300833911414,2.038787377137398,"[ 5.95572253e-05 -1.38745694e-06  0.00000000e+00  0.00000000e+00
  0.00000000e+00 -3.09580114e-06 -1.38745694e-06  4.96333442e-05
  0.00000000e+00  0.00000000e+00  0.00000000e+00  3.98346959e-07
  0.00000000e+00  0.00000000e+00  0.00000000e+00  0.00000000e+00
  0.00000000e+00  0.00000000e+00  0.00000000e+00  0.00000000e+00
  0.00000000e+00  0.00000000e+00  0.00000000e+00  0.00000000e+00
  0.00000000e+00  0.00000000e+00  0.00000000e+00  0.00000000e+00
  0.00000000e+00  0.00000000e+00 -3.09580114e-06  3.98346959e-07
  0.00000000e+00  0.00000000e+00  0.00000000e+00  3.80391338e-06]","[[-0.0002615   0.04957218]
 [-0.00120927 -0.00915556]]",[],0.0,0.0
1787152150.8021393,2.220329153670699,0.1410300833911414,2.038787377137398,"[ 5.95572253e-05 -1.38745694e-06  0.00000000e+00  0.00000000e+00
  0.00000000e+00 -3.09580114e-06 -1.38745694e-06  4.96333442e-05
  0.00000000e+00  0.00000000e+00  0.00000000e+00  3.98346959e-07
  0.00000000e+00  0.00000000e+00  0.00000000e+00  0.00000000e+00
  0.00000000e+00  0.00000000e+00  0.00000000e+00  0.00000000e+00
  0.00000000e+00  0.00000000e+00  0.00000000e+00  0.00000000e+00
  0.00000000e+00  0.00000000e+00  0.00000000e+00  0.00000000e+00
  0.00000000e+00  0.00000000e+00 -3.09580114e-06  3.98346959e-07
  0.00000000e+00  0.00000000e+00  0.00000000e+00  3.80391338e-06]","[[-0.0002615   0.04957218]
 [-0.00120927 -0.00915556]]",[],0.0,0.0
1787152150.8563159,2.220329153670699,0.1410300833911414,2.038787377137398,"[ 5.95572253e-05 -1.38745694e-06  0.00000000e+00  0.00000000e+00
  0.00000000e+00 -3.09580114e-06 -1.38745694e-06  4.96333442e-05
  0.00000000e+00  0.00000000e+00  0.00000000e+00  3.98346959e-07
  0.00000000e+00  0.00000000e+00  0.00000000e+00  0.00000000e+00
  0.00000000e+00  0.00000000e+00  0.00000000e+00  0.00000000e+00
  0.00000000e+00  0.00000000e+00  0.00000000e+00  0.00000000e+00
  0.00000000e+00  0.00000000e+00  0.00000000e+00  0.00000000e+00
  0.00000000e+00  0.00000000e+00 -3.09580114e-06  3.98346959e-07
  0.00000000e+00  0.00000000e+00  0.00000000e+00  3.80391338e-06]","[[-0.0002615   0.04957218]
 [-0.00120927 -0.00915556]]",[],0.0,0.0
1787152150.9054112,2.220329153670699,0.1410300833911414,2.038787377137398,"[ 5.95572253e-05 -1.38745694e-06  0.00000000e+00  0.00000000e+00
  0.00000000e+00 -3.09580114e-06 -1.38745694e-06  4.96333442e-05
  0.00000000e+00  0.00000000e+00  0.00000000e+00  3.98346959e-07
  0.00000000e+00  0.00000000e+00  0.00000000e+00  0.00000000e+00
  0.00000000e+00  0.00000000e+00  0.00000000e+00  0.00000000e+00
  0.00000000e+00  0.00000000e+00  0.00000000e+00  0.00000000e+00
  0.00000000e+00  0.00000000e+00  0.00000000e+00  0.00000000e+00
  0.00000000e+00  0.00000000e+00 -3.09580114e-06  3.98346959e-07
  0.00000000e+00  0.00000000e+00  0.00000000e+00  3.80391338e-06]","[[-0.0002615   0.04957218]
 [-0.00120927 -0.00915556]]",[],0.0,0.0
1787152150.9547505,2.220329153670699,0.1410300833911414,2.038787377137398,"[ 5.95572253e-05 -1.38745694e-06  0.00000000e+00  0.00000000e+00
  0.00000000e+00 -3.09580114e-06 -1.38745694e-06  4.96333442e-05
  0.00000000e+00  0.00000000e+00  0.00000000e+00  3.98346959e-07
  0.00000000e+00  0.00000000e+00  0.00000000e+00  0.00000000e+00
  0.00000000e+00  0.00000000e+00  0.00000000e+00  0.00000000e+00
  0.00000000e+00  0.00000000e+00  0.00000000e+00  0.00000000e+00
  0.00000000e+00  0.00000000e+00  0.00000000e+00  0.00000000e+00
  0.00000000e+00  0.00000000e+00 -3.09580114e-06  3.98346959e-07
  0.00000000e+00  0.00000000e+00  0.00000000e+00  3.80391338e-06]","[[-0.0002615   0.04957218]
 [-0.00120927 -0.00915556]]",[],0.0,0.0
1787152151.005647,2.220329153670699,0.1410300833911414,2.038787377137398,"[ 5.95572253e-05 -1.38745694e-06  0.00000000e+00  0.00000000e+00
  0.00000000e+00 -3.09580114e-06 -1.38745694e-06  4.96333442e-05
  0.00000000e+00  0.00000000e+00  0.00000000e+00  3.98346959e-07
  0.00000000e+00  0.00000000e+00  0.00000000e+00  0.00000000e+00
  0.00000000e+00  0.00000000e+00  0.00000000e+00  0.00000000e+00
  0.00000000e+00  0.00000000e+00  0.00000000e+00  0.00000000e+00
  0.00000000e+00  0.00000000e+00  0.00000000e+00  0.00000000e+00
  0.00000000e+00  0.00000000e+00 -3.09580114e-06  3.98346959e-07
  0.00000000e+00  0.00000000e+00  0.00000000e+00  3.80391338e-06]","[[-0.0002615   0.04957218]
 [-0.00120927 -0.00915556]]",[],0.0,0.0
1787152151.0522957,2.220329153670699,0.1410300833911414,2.038787377137398,"[ 5.95572253e-05 -1.38745694e-06  0.00000000e+00  0.00000000e+00
  0.00000000e+00 -3.09580114e-06 -1.38745694e-06  4.96333442e-05
  0.00000000e+00  0.00000000e+00  0.00000000e+00  3.98346959e-07
  0.00000000e+00  0.00000000e+00  0.00000000e+00  0.00000000e+00
  0.00000000e+00  0.00000000e+00  0.00000000e+00  0.00000000e+00
  0.00000000e+00  0.00000000e+00  0.00000000e+00  0.00000000e+00
  0.00000000e+00  0.00000000e+00  0.00000000e+00  0.00000000e+00
  0.00000000e+00  0.00000000e+00 -3.09580114e-06  3.98346959e-07
  0.00000000e+00  0.00000000e+00  0.00000000e+00  3.80391338e-06]","[[-0.0002615   0.04957218]
 [-0.00120927 -0.00915556]]",[],0.0,0.0
1787152151.1031559,2.220329153670699,0.1410300833911414,2.038787377137398,"[ 5.95572253e-05 -1.38745694e-06  0.00000000e+00  0.00000000e+00
  0.00000000e+00 -3.09580114e-06 -1.38745694e-06  4.96333442e-05
  0.00000000e+00  0.00000000e+00  0.00000000e+00  3.98346959e-07
  0.00000000e+00  0.00000000e+00  0.00000000e+00  0.00000000e+00
  0.00000000e+00  0.00000000e+00  0.00000000e+00  0.00000000e+00
  0.00000000e+00  0.00000000e+00  0.00000000e+00  0.00000000e+00
  0.00000000e+00  0.00000000e+00  0.00000000e+00  0.00000000e+00
  0.00000000e+00  0.00000000e+00 -3.09580114e-06  3.98346959e-07
  0.00000000e+00  0.00000000e+00  0.00000000e+00  3.80391338e-06]","[[-0.0002615   0.04957218]
 [-0.00120927 -0.00915556]]",[],0.0,0.0
1787152151.1520193,2.220329153670699,0.1410300833911414,2.038787377137398,"[ 5.95572253e-05 -1.38745694e-06  0.00000000e+00  0.00000000e+00
  0.00000000e+00 -3.09580114e-06 -1.38745694e-06  4.96333442e-05
  0.00000000e+00  0.00000000e+00  0.00000000e+00  3.98346959e-07
  0.00000000e+00  0.00000000e+00  0.00000000e+00  0.00000000e+00
  0.00000000e+00  0.00000000e+00  0.00000000e+00  0.00000000e+00
  0.00000000e+00  0.00000000e+00  0.00000000e+00  0.00000000e+00
  0.00000000e+00  0.00000000e+00  0.00000000e+00  0.00000000e+00
  0.00000000e+00  0.00000000e+00 -3.09580114e-06  3.98346959e-07
  0.00000000e+00  0.00000000e+00  0.00000000e+00  3.80391338e-06]","[[-0.0002615   0.04957218]
 [-0.00120927 -0.00915556]]",[],0.0,0.0
1787152151.2021108,2.220329153670699,0.1410300833911414,2.038787377137398,"[ 5.95572253e-05 -1.38745694e-06  0.00000000e+00  0.00000000e+00
  0.00000000e+00 -3.09580114e-06 -1.38745694e-06  4.96333442e-05
  0.00000000e+00  0.00000000e+00  0.00000000e+00  3.98346959e-07
  0.00000000e+00  0.00000000e+00  0.00000000e+00  0.00000000e+00
  0.00000000e+00  0.00000000e+00  0.00000000e+00  0.00000000e+00
  0.00000000e+00  0.00000000e+00  0.00000000e+00  0.00000000e+00
  0.00000000e+00  0.00000000e+00  0.00000000e+00  0.00000000e+00
  0.00000000e+00  0.00000000e+00 -3.09580114e-06  3.98346959e-07
  0.00000000e+00  0.00000000e+00  0.00000000e+00  3.80391338e-06]","[[-0.0002615   0.04957218]
 [-0.00120927 -0.00915556]]",[],0.0,0.0
1787152151.2526531,2.220329153670699,0.1410300833911414,2.038787377137398,"[ 5.95572253e-05 -1.38745694e-06  0.00000000e+00  0.00000000e+00
  0.00000000e+00 -3.09580114e-06 -1.38745694e-06  4.96333442e-05
  0.00000000e+00  0.00000000e+00  0.00000000e+00  3.98346959e-07
  0.00000000e+00  0.00000000e+00  0.00000000e+00  0.00000000e+00
  0.00000000e+00  0.00000000e+00  0.00000000e+00  0.00000000e+00
  0.00000000e+00  0.00000000e+00  0.00000000e+00  0.00000000e+00
  0.00000000e+00  0.00000000e+00  0.00000000e+00  0.00000000e+00
  0.00000000e+00  0.00000000e+00 -3.09580114e-06  3.98346959e-07
  0.00000000e+00  0.00000000e+00  0.00000000e+00  3.80391338e-06]","[[-0.0002615   0.04957218]
 [-0.00120927 -0.00915556]]",[],0.0,0.0
1787152151.3029313,2.220329153670699,0.1410300833911414,2.038787377137398,"[ 5.95572253e-05 -1.38745694e-06  0.00000000e+00  0.00000000e+00
  0.00000000e+00 -3.09580114e-06 -1.38745694e-06  4.96333442e-05
  0.00000000e+00  0.00000000e+00  0.00000000e+00  3.98346959e-07
  0.00000000e+00  0.00000000e+00  0.00000000e+00  0.00000000e+00
  0.00000000e+00  0.00000000e+00  0.00000000e+00  0.00000000e+00
  0.00000000e+00  0.00000000e+00  0.00000000e+00  0.00000000e+00
  0.00000000e+00  0.00000000e+00  0.00000000e+00  0.00000000e+00
  0.00000000e+00  0.00000000e+00 -3.09580114e-06  3.98346959e-07
  0.00000000e+00  0.00000000e+00  0.00000000e+00  3.80391338e-06]","[[-0.0002615   0.04957218]
 [-0.00120927 -0.00915556]]",[],0.0,0.0
1787152151.3564155,2.220329153670699,0.1410300833911414,2.038787377137398,"[ 5.95572253e-05 -1.38745694e-06  0.00000000e+00  0.00000000e+00
  0.00000000e+00 -3.09580114e-06 -1.38745694e-06  4.96333442e-05
  0.00000000e+00  0.00000000e+00  0.00000000e+00  3.98346959e-07
  0.00000000e+00  0.00000000e+00  0.00000000e+00  0.00000000e+00
  0.00000000e+00  0.00000000e+00  0.00000000e+00  0.00000000e+00
  0.00000000e+00  0.00000000e+00  0.00000000e+00  0.00000000e+00
  0.00000000e+00  0.00000000e+00  0.00000000e+00  0.00000000e+00
  0.00000000e+00  0.00000000e+00 -3.09580114e-06  3.98346959e-07
  0.00000000e+00  0.00000000e+00  0.00000000e+00  3.80391338e-06]","[[-0.0002615   0.04957218]
 [-0.00120927 -0.00915556]]",[],0.0,0.0
1787152151.4092622,2.220329153670699,0.1410300833911414,2.038787377137398,"[ 5.95572253e-05 -1.38745694e-06  0.00000000e+00  0.00000000e+00
  0.00000000e+00 -3.09580114e-06 -1.38745694e-06  4.96333442e-05
  0.00000000e+00  0.00000000e+00  0.00000000e+00  3.98346959e-07
  0.00000000e+00  0.00000000e+00  0.00000000e+00  0.00000000e+00
  0.00000000e+00  0.00000000e+00  0.00000000e+00  0.00000000e+00
  0.00000000e+00  0.00000000e+00  0.00000000e+00  0.00000000e+00
  0.00000000e+00  0.00000000e+00  0.00000000e+00  0.00000000e+00
  0.00000000e+00  0.00000000e+00 -3.09580114e-06  3.98346959e-07
  0.00000000e+00  0.00000000e+00  0.00000000e+00  3.80391338e-06]","[[-0.0002615   0.04957218]
 [-0.00120927 -0.00915556]]",[],0.0,0.0
1787152151.453846,2.220329153670699,0.1410300833911414,2.038787377137398,"[ 5.95572253e-05 -1.38745694e-06  0.00000000e+00  0.00000000e+00
  0.00000000e+00 -3.09580114e-06 -1.38745694e-06  4.96333442e-05
  0.00000000e+00  0.00000000e+00  0.00000000e+00  3.98346959e-07
  0.00000000e+00  0.00000000e+00  0.00000000e+00  0.00000000e+00
  0.00000000e+00  0.00000000e+00  0.00000000e+00  0.00000000e+00
  0.00000000e+00  0.00000000e+00  0.00000000e+00  0.00000000e+00
  0.00000000e+00  0.00000000e+00  0.00000000e+00  0.00000000e+00
  0.00000000e+00  0.00000000e+00 -3.09580114e-06  3.98346959e-07
  0.00000000e+00  0.00000000e+00  0.00000000e+00  3.80391338e-06]","[[-0.0002615   0.04957218]
 [-0.00120927 -0.00915556]]",[],0.0,0.0
1787152151.5028455,2.212848732992764,0.1385153289189872,2.0325902163253655,"[ 2.77671166e-05 -9.62677228e-07  0.00000000e+00  0.00000000e+00
  0.00000000e+00 -8.67260384e-07 -9.62677228e-07  2.46898400e-05
  0.00000000e+00  0.00000000e+00  0.00000000e+00  1.66757137e-07
  0.00000000e+00  0.00000000e+00  0.00000000e+00  0.00000000e+00
  0.00000000e+00  0.00000000e+00  0.00000000e+00  0.00000000e+00
  0.00000000e+00  0.00000000e+00  0.00000000e+00  0.00000000e+00
  0.00000000e+00  0.00000000e+00  0.00000000e+00  0.00000000e+00
  0.00000000e+00  0.00000000e+00 -8.67260384e-07  1.66757137e-07
  0.00000000e+00  0.00000000e+00  0.00000000e+00  3.13080866e-06]","[[ 0.00032559  0.01518836]
 [-0.00056547  0.00529772]]",[],0.0,0.0
1787152151.5541048,2.212848732992764,0.1385153289189872,2.0325902163253655,"[ 2.77671166e-05 -9.62677228e-07  0.00000000e+00  0.00000000e+00
  0.00000000e+00 -8.67260384e-07 -9.62677228e-07  2.46898400e-05
  0.00000000e+00  0.00000000e+00  0.00000000e+00  1.66757137e-07
  0.00000000e+00  0.00000000e+00  0.00000000e+00  0.00000000e+00
  0.00000000e+00  0.00000000e+00  0.00000000e+00  0.00000000e+00
  0.00000000e+00  0.00000000e+00  0.00000000e+00  0.00000000e+00
  0.00000000e+00  0.00000000e+00  0.00000000e+00  0.00000000e+00
  0.00000000e+00  0.00000000e+00 -8.67260384e-07  1.66757137e-07
  0.00000000e+00  0.00000000e+00  0.00000000e+00  3.13080866e-06]","[[ 0.00032559  0.01518836]
 [-0.00056547  0.00529772]]",[],0.0,0.0
1787152151.6077821,2.212848732992764,0.1385153289189872,2.0325902163253655,"[ 2.77671166e-05 -9.62677228e-07  0.00000000e+00  0.00000000e+00
  0.00000000e+00 -8.67260384e-07 -9.62677228e-07  2.46898400e-05
  0.00000000e+00  0.00000000e+00  0.00000000e+00  1.66757137e-07
  0.00000000e+00  0.00000000e+00  0.00000000e+00  0.00000000e+00
  0.00000000e+00  0.00000000e+00  0.00000000e+00  0.00000000e+00
  0.00000000e+00  0.00000000e+00  0.00000000e+00  0.00000000e+00
  0.00000000e+00  0.00000000e+00  0.00000000e+00  0.00000000e+00
  0.00000000e+00  0.00000000e+00 -8.67260384e-07  1.66757137e-07
  0.00000000e+00  0.00000000e+00  0.00000000e+00  3.13080866e-06]","[[ 0.00032559  0.01518836]
 [-0.00056547  0.00529772]]",[],0.0,0.0
1787152151.6523223,2.212848732992764,0.1385153289189872,2.0325902163253655,"[ 2.77671166e-05 -9.62677228e-07  0.00000000e+00  0.00000000e+00
  0.00000000e+00 -8.67260384e-07 -9.62677228e-07  2.46898400e-05
  0.00000000e+00  0.00000000e+00  0.00000000e+00  1.66757137e-07
  0.00000000e+00  0.00000000e+00  0.00000000e+00  0.00000000e+00
  0.00000000e+00  0.00000000e+00  0.00000000e+00  0.00000000e+00
  0.00000000e+00  0.00000000e+00  0.00000000e+00  0.00000000e+00
  0.00000000e+00  0.00000000e+00  0.00000000e+00  0.00000000e+00
  0.00000000e+00  0.00000000e+00 -8.67260384e-07  1.66757137e-07
  0.00000000e+00  0.00000000e+00  0.00000000e+00  3.13080866e-06]","[[ 0.00032559  0.01518836]
 [-0.00056547  0.00529772]]",[],0.0,0.0
1787152151.7073004,2.212848732992764,0.1385153289189872,2.0325902163253655,"[ 2.77671166e-05 -9.62677228e-07  0.00000000e+00  0.00000000e+00
  0.00000000e+00 -8.67260384e-07 -9.62677228e-07  2.46898400e-05
  0.00000000e+00  0.00000000e+00  0.00000000e+00  1.66757137e-07
  0.00000000e+00  0.00000000e+00  0.00000000e+00  0.00000000e+00
  0.00000000e+00  0.00000000e+00  0.00000000e+00  0.00000000e+00
  0.00000000e+00  0.00000000e+00  0.00000000e+00  0.00000000e+00
  0.00000000e+00  0.00000000e+00  0.00000000e+00  0.00000000e+00
  0.00000000e+00  0.00000000e+00 -8.67260384e-07  1.66757137e-07
  0.00000000e+00  0.00000000e+00  0.00000000e+00  3.13080866e-06]","[[ 0.00032559  0.01518836]
 [-0.00056547  0.00529772]]",[],0.0,0.0
1787152151.7572687,2.212848732992764,0.1385153289189872,2.0325902163253655,"[ 2.77671166e-05 -9.62677228e-07  0.00000000e+00  0.00000000e+00
  0.00000000e+00 -8.67260384e-07 -9.62677228e-07  2.46898400e-05
  0.00000000e+00  0.00000000e+00  0.00000000e+00  1.66757137e-07
  0.00000000e+00  0.00000000e+00  0.00000000e+00  0.00000000e+00
  0.00000000e+00  0.00000000e+00  0.00000000e+00  0.00000000e+00
  0.00000000e+00  0.00000000e+00  0.00000000e+00  0.00000000e+00
  0.00000000e+00  0.00000000e+00  0.00000000e+00  0.00000000e+00
  0.00000000e+00  0.00000000e+00 -8.67260384e-07  1.66757137e-07
  0.00000000e+00  0.00000000e+00  0.00000000e+00  3.13080866e-06]","[[ 0.00032559  0.01518836]
 [-0.00056547  0.00529772]]",[],0.0,0.0
1787152151.8206942,2.212848732992764,0.1385153289189872,2.0325902163253655,"[ 2.77671166e-05 -9.62677228e-07  0.00000000e+00  0.00000000e+00
  0.00000000e+00 -8.67260384e-07 -9.62677228e-07  2.46898400e-05
  0.00000000e+00  0.00000000e+00  0.00000000e+00  1.66757137e-07
  0.00000000e+00  0.00000000e+00  0.00000000e+00  0.00000000e+00
  0.00000000e+00  0.00000000e+00  0.00000000e+00  0.00000000e+00
  0.00000000e+00  0.00000000e+00  0.00000000e+00  0.00000000e+00
  0.00000000e+00  0.00000000e+00  0.00000000e+00  0.00000000e+00
  0.00000000e+00  0.00000000e+00 -8.67260384e-07  1.66757137e-07
  0.00000000e+00  0.00000000e+00  0.00000000e+00  3.13080866e-06]","[[ 0.00032559  0.01518836]
 [-0.00056547  0.00529772]]",[],0.0,0.0
1787152151.8582022,2.212848732992764,0.1385153289189872,2.0325902163253655,"[ 2.77671166e-05 -9.62677228e-07  0.00000000e+00  0.00000000e+00
  0.00000000e+00 -8.67260384e-07 -9.62677228e-07  2.46898400e-05
  0.00000000e+00  0.00000000e+00  0.00000000e+00  1.66757137e-07
  0.00000000e+00  0.00000000e+00  0.00000000e+00  0.00000000e+00
  0.00000000e+00  0.00000000e+00  0.00000000e+00  0.00000000e+00
  0.00000000e+00  0.00000000e+00  0.00000000e+00  0.00000000e+00
  0.00000000e+00  0.00000000e+00  0.00000000e+00  0.00000000e+00
  0.00000000e+00  0.00000000e+00 -8.67260384e-07  1.66757137e-07
  0.00000000e+00  0.00000000e+00  0.00000000e+00  3.13080866e-06]","[[ 0.00032559  0.01518836]
 [-0.00056547  0.00529772]]",[],0.0,0.0
1787152151.911425,2.212848732992764,0.1385153289189872,2.0325902163253655,"[ 2.77671166e-05 -9.62677228e-07  0.00000000e+00  0.00000000e+00
  0.00000000e+00 -8.67260384e-07 -9.62677228e-07  2.46898400e-05
  0.00000000e+00  0.00000000e+00  0.00000000e+00  1.66757137e-07
  0.00000000e+00  0.00000000e+00  0.00000000e+00  0.00000000e+00
  0.00000000e+00  0.00000000e+00  0.00000000e+00  0.00000000e+00
  0.00000000e+00  0.00000000e+00  0.00000000e+00  0.00000000e+00
  0.00000000e+00  0.00000000e+00  0.00000000e+00  0.00000000e+00
  0.00000000e+00  0.00000000e+00 -8.67260384e-07  1.66757137e-07
  0.00000000e+00  0.00000000e+00  0.00000000e+00  3.13080866e-06]","[[ 0.00032559  0.01518836]
 [-0.00056547  0.00529772]]",[],0.0,0.0
1787152151.9524379,2.212848732992764,0.1385153289189872,2.0325902163253655,"[ 2.77671166e-05 -9.62677228e-07  0.00000000e+00  0.00000000e+00
  0.00000000e+00 -8.67260384e-07 -9.62677228e-07  2.46898400e-05
  0.00000000e+00  0.00000000e+00  0.00000000e+00  1.66757137e-07
  0.00000000e+00  0.00000000e+00  0.00000000e+00  0.00000000e+00
  0.00000000e+00  0.00000000e+00  0.00000000e+00  0.00000000e+00
  0.00000000e+00  0.00000000e+00  0.00000000e+00  0.00000000e+00
  0.00000000e+00  0.00000000e+00  0.00000000e+00  0.00000000e+00
  0.00000000e+00  0.00000000e+00 -8.67260384e-07  1.66757137e-07
  0.00000000e+00  0.00000000e+00  0.00000000e+00  3.13080866e-06]","[[ 0.00032559  0.01518836]
 [-0.00056547  0.00529772]]",[],0.0,0.0
1787152152.0041044,2.212848732992764,0.1385153289189872,2.0325902163253655,"[ 2.77671166e-05 -9.62677228e-07  0.00000000e+00  0.00000000e+00
  0.00000000e+00 -8.67260384e-07 -9.62677228e-07  2.46898400e-05
  0.00000000e+00  0.00000000e+00  0.00000000e+00  1.66757137e-07
  0.00000000e+00  0.00000000e+00  0.00000000e+00  0.00000000e+00
  0.00000000e+00  0.00000000e+00  0.00000000e+00  0.00000000e+00
  0.00000000e+00  0.00000000e+00  0.00000000e+00  0.00000000e+00
  0.00000000e+00  0.00000000e+00  0.00000000e+00  0.00000000e+00
  0.00000000e+00  0.00000000e+00 -8.67260384e-07  1.66757137e-07
  0.00000000e+00  0.00000000e+00  0.00000000e+00  3.13080866e-06]","[[ 0.00032559  0.01518836]
 [-0.00056547  0.00529772]]",[],0.0,0.0
1787152152.0529292,2.212848732992764,0.1385153289189872,2.0325902163253655,"[ 2.77671166e-05 -9.62677228e-07  0.00000000e+00  0.00000000e+00
  0.00000000e+00 -8.67260384e-07 -9.62677228e-07  2.46898400e-05
  0.00000000e+00  0.00000000e+00  0.00000000e+00  1.66757137e-07
  0.00000000e+00  0.00000000e+00  0.00000000e+00  0.00000000e+00
  0.00000000e+00  0.00000000e+00  0.00000000e+00  0.00000000e+00
  0.00000000e+00  0.00000000e+00  0.00000000e+00  0.00000000e+00
  0.00000000e+00  0.00000000e+00  0.00000000e+00  0.00000000e+00
  0.00000000e+00  0.00000000e+00 -8.67260384e-07  1.66757137e-07
  0.00000000e+00  0.00000000e+00  0.00000000e+00  3.13080866e-06]","[[ 0.00032559  0.01518836]
 [-0.00056547  0.00529772]]",[],0.0,0.0
1787152152.1042535,2.212848732992764,0.1385153289189872,2.0325902163253655,"[ 2.77671166e-05 -9.62677228e-07  0.00000000e+00  0.00000000e+00
  0.00000000e+00 -8.67260384e-07 -9.62677228e-07  2.46898400e-05
  0.00000000e+00  0.00000000e+00  0.00000000e+00  1.66757137e-07
  0.00000000e+00  0.00000000e+00  0.00000000e+00  0.00000000e+00
  0.00000000e+00  0.00000000e+00  0.00000000e+00  0.00000000e+00
  0.00000000e+00  0.00000000e+00  0.00000000e+00  0.00000000e+00
  0.00000000e+00  0.00000000e+00  0.00000000e+00  0.00000000e+00
  0.00000000e+00  0.00000000e+00 -8.67260384e-07  1.66757137e-07
  0.00000000e+00  0.00000000e+00  0.00000000e+00  3.13080866e-06]","[[ 0.00032559  0.01518836]
 [-0.00056547  0.00529772]]",[],0.0,0.0
1787152152.1556263,2.212848732992764,0.1385153289189872,2.0325902163253655,"[ 2.77671166e-05 -9.62677228e-07  0.00000000e+00  0.00000000e+00
  0.00000000e+00 -8.67260384e-07 -9.62677228e-07  2.46898400e-05
  0.00000000e+00  0.00000000e+00  0.00000000e+00  1.66757137e-07
  0.00000000e+00  0.00000000e+00  0.00000000e+00  0.00000000e+00
  0.00000000e+00  0.00000000e+00  0.00000000e+00  0.00000000e+00
  0.00000000e+00  0.00000000e+00  0.00000000e+00  0.00000000e+00
  0.00000000e+00  0.00000000e+00  0.00000000e+00  0.00000000e+00
  0.00000000e+00  0.00000000e+00 -8.67260384e-07  1.66757137e-07
  0.00000000e+00  0.00000000e+00  0.00000000e+00  3.13080866e-06]","[[ 0.00032559  0.01518836]
 [-0.00056547  0.00529772]]",[],0.0,0.0
1787152152.204792,2.212848732992764,0.1385153289189872,2.0325902163253655,"[ 2.77671166e-05 -9.62677228e-07  0.00000000e+00  0.00000000e+00
  0.00000000e+00 -8.67260384e-07 -9.62677228e-07  2.46898400e-05
  0.00000000e+00  0.00000000e+00  0.00000000e+00  1.66757137e-07
  0.00000000e+00  0.00000000e+00  0.00000000e+00  0.00000000e+00
  0.00000000e+00  0.00000000e+00  0.00000000e+00  0.00000000e+00
  0.00000000e+00  0.00000000e+00  0.00000000e+00  0.00000000e+00
  0.00000000e+00  0.00000000e+00  0.00000000e+00  0.00000000e+00
  0.00000000e+00  0.00000000e+00 -8.67260384e-07  1.66757137e-07
  0.00000000e+00  0.00000000e+00  0.00000000e+00  3.13080866e-06]","[[ 0.00032559  0.01518836]
 [-0.00056547  0.00529772]]",[],0.0,0.0
1787152152.2525408,2.212848732992764,0.1385153289189872,2.0325902163253655,"[ 2.77671166e-05 -9.62677228e-07  0.00000000e+00  0.00000000e+00
  0.00000000e+00 -8.67260384e-07 -9.62677228e-07  2.46898400e-05
  0.00000000e+00  0.00000000e+00  0.00000000e+00  1.66757137e-07
  0.00000000e+00  0.00000000e+00  0.00000000e+00  0.00000000e+00
  0.00000000e+00  0.00000000e+00  0.00000000e+00  0.00000000e+00
  0.00000000e+00  0.00000000e+00  0.00000000e+00  0.00000000e+00
  0.00000000e+00  0.00000000e+00  0.00000000e+00  0.00000000e+00
  0.00000000e+00  0.00000000e+00 -8.67260384e-07  1.66757137e-07
  0.00000000e+00  0.00000000e+00  0.00000000e+00  3.13080866e-06]","[[ 0.00032559  0.01518836]
 [-0.00056547  0.00529772]]",[],0.0,0.0
1787152152.3038807,2.212848732992764,0.1385153289189872,2.0325902163253655,"[ 2.77671166e-05 -9.62677228e-07  0.00000000e+00  0.00000000e+00
  0.00000000e+00 -8.67260384e-07 -9.62677228e-07  2.46898400e-05
  0.00000000e+00  0.00000000e+00  0.00000000e+00  1.66757137e-07
  0.00000000e+00  0.00000000e+00  0.00000000e+00  0.00000000e+00
  0.00000000e+00  0.00000000e+00  0.00000000e+00  0.00000000e+00
  0.00000000e+00  0.00000000e+00  0.00000000e+00  0.00000000e+00
  0.00000000e+00  0.00000000e+00  0.00000000e+00  0.00000000e+00
  0.00000000e+00  0.00000000e+00 -8.67260384e-07  1.66757137e-07
  0.00000000e+00  0.00000000e+00  0.00000000e+00  3.13080866e-06]","[[ 0.00032559  0.01518836]
 [-0.00056547  0.00529772]]",[],0.0,0.0
1787152152.3530922,2.212848732992764,0.1385153289189872,2.0325902163253655,"[ 2.77671166e-05 -9.62677228e-07  0.00000000e+00  0.00000000e+00
  0.00000000e+00 -8.67260384e-07 -9.62677228e-07  2.46898400e-05
  0.00000000e+00  0.00000000e+00  0.00000000e+00  1.66757137e-07
  0.00000000e+00  0.00000000e+00  0.00000000e+00  0.00000000e+00
  0.00000000e+00  0.00000000e+00  0.00000000e+00  0.00000000e+00
  0.00000000e+00  0.00000000e+00  0.00000000e+00  0.00000000e+00
  0.00000000e+00  0.00000000e+00  0.00000000e+00  0.00000000e+00
  0.00000000e+00  0.00000000e+00 -8.67260384e-07  1.66757137e-07
  0.00000000e+00  0.00000000e+00  0.00000000e+00  3.13080866e-06]","[[ 0.00032559  0.01518836]
 [-0.00056547  0.00529772]]",[],0.0,0.0
1787152152.4057283,2.212848732992764,0.1385153289189872,2.0325902163253655,"[ 2.77671166e-05 -9.62677228e-07  0.00000000e+00  0.00000000e+00
  0.00000000e+00 -8.67260384e-07 -9.62677228e-07  2.46898400e-05
  0.00000000e+00  0.00000000e+00  0.00000000e+00  1.66757137e-07
  0.00000000e+00  0.00000000e+00  0.00000000e+00  0.00000000e+00
  0.00000000e+00  0.00000000e+00  0.00000000e+00  0.00000000e+00
  0.00000000e+00  0.00000000e+00  0.00000000e+00  0.00000000e+00
  0.00000000e+00  0.00000000e+00  0.00000000e+00  0.00000000e+00
  0.00000000e+00  0.00000000e+00 -8.67260384e-07  1.66757137e-07
  0.00000000e+00  0.00000000e+00  0.00000000e+00  3.13080866e-06]","[[ 0.00032559  0.01518836]
 [-0.00056547  0.00529772]]",[],0.0,0.0
1787152152.458962,2.212848732992764,0.1385153289189872,2.0325902163253655,"[ 2.77671166e-05 -9.62677228e-07  0.00000000e+00  0.00000000e+00
  0.00000000e+00 -8.67260384e-07 -9.62677228e-07  2.46898400e-05
  0.00000000e+00  0.00000000e+00  0.00000000e+00  1.66757137e-07
  0.00000000e+00  0.00000000e+00  0.00000000e+00  0.00000000e+00
  0.00000000e+00  0.00000000e+00  0.00000000e+00  0.00000000e+00
  0.00000000e+00  0.00000000e+00  0.00000000e+00  0.00000000e+00
  0.00000000e+00  0.00000000e+00  0.00000000e+00  0.00000000e+00
  0.00000000e+00  0.00000000e+00 -8.67260384e-07  1.66757137e-07
  0.00000000e+00  0.00000000e+00  0.00000000e+00  3.13080866e-06]","[[ 0.00032559  0.01518836]
 [-0.00056547  0.00529772]]",[],0.0,0.0
1787152152.5025098,2.212848732992764,0.1385153289189872,2.0325902163253655,"[ 2.77671166e-05 -9.62677228e-07  0.00000000e+00  0.00000000e+00
  0.00000000e+00 -8.67260384e-07 -9.62677228e-07  2.46898400e-05
  0.00000000e+00  0.00000000e+00  0.00000000e+00  1.66757137e-07
  0.00000000e+00  0.00000000e+00  0.00000000e+00  0.00000000e+00
  0.00000000e+00  0.00000000e+00  0.00000000e+00  0.00000000e+00
  0.00000000e+00  0.00000000e+00  0.00000000e+00  0.00000000e+00
  0.00000000e+00  0.00000000e+00  0.00000000e+00  0.00000000e+00
  0.00000000e+00  0.00000000e+00 -8.67260384e-07  1.66757137e-07
  0.00000000e+00  0.00000000e+00  0.00000000e+00  3.13080866e-06]","[[ 0.00032559  0.01518836]
 [-0.00056547  0.00529772]]",[],0.0,0.0
1787152152.55324,2.212848732992764,0.1385153289189872,2.0325902163253655,"[ 2.77671166e-05 -9.62677228e-07  0.00000000e+00  0.00000000e+00
  0.00000000e+00 -8.67260384e-07 -9.62677228e-07  2.46898400e-05
  0.00000000e+00  0.00000000e+00  0.00000000e+00  1.66757137e-07
  0.00000000e+00  0.00000000e+00  0.00000000e+00  0.00000000e+00
  0.00000000e+00  0.00000000e+00  0.00000000e+00  0.00000000e+00
  0.00000000e+00  0.00000000e+00  0.00000000e+00  0.00000000e+00
  0.00000000e+00  0.00000000e+00  0.00000000e+00  0.00000000e+00
  0.00000000e+00  0.00000000e+00 -8.67260384e-07  1.66757137e-07
  0.00000000e+00  0.00000000e+00  0.00000000e+00  3.13080866e-06]","[[ 0.00032559  0.01518836]
 [-0.00056547  0.00529772]]",[],0.0,0.0
1787152152.6146333,2.212848732992764,0.1385153289189872,2.0325902163253655,"[ 2.77671166e-05 -9.62677228e-07  0.00000000e+00  0.00000000e+00
  0.00000000e+00 -8.67260384e-07 -9.62677228e-07  2.46898400e-05
  0.00000000e+00  0.00000000e+00  0.00000000e+00  1.66757137e-07
  0.00000000e+00  0.00000000e+00  0.00000000e+00  0.00000000e+00
  0.00000000e+00  0.00000000e+00  0.00000000e+00  0.00000000e+00
  0.00000000e+00  0.00000000e+00  0.00000000e+00  0.00000000e+00
  0.00000000e+00  0.00000000e+00  0.00000000e+00  0.00000000e+00
  0.00000000e+00  0.00000000e+00 -8.67260384e-07  1.66757137e-07
  0.00000000e+00  0.00000000e+00  0.00000000e+00  3.13080866e-06]","[[ 0.00032559  0.01518836]
 [-0.00056547  0.00529772]]",[],0.0,0.0
1787152152.6739955,2.212848732992764,0.1385153289189872,2.0325902163253655,"[ 2.77671166e-05 -9.62677228e-07  0.00000000e+00  0.00000000e+00
  0.00000000e+00 -8.67260384e-07 -9.62677228e-07  2.46898400e-05
  0.00000000e+00  0.00000000e+00  0.00000000e+00  1.66757137e-07
  0.00000000e+00  0.00000000e+00  0.00000000e+00  0.00000000e+00
  0.00000000e+00  0.00000000e+00  0.00000000e+00  0.00000000e+00
  0.00000000e+00  0.00000000e+00  0.00000000e+00  0.00000000e+00
  0.00000000e+00  0.00000000e+00  0.00000000e+00  0.00000000e+00
  0.00000000e+00  0.00000000e+00 -8.67260384e-07  1.66757137e-07
  0.00000000e+00  0.00000000e+00  0.00000000e+00  3.13080866e-06]","[[ 0.00032559  0.01518836]
 [-0.00056547  0.00529772]]",[],0.0,0.0
1787152152.7069001,2.2066750616176147,0.1249019630694869,2.0109750416768066,"[ 1.82995185e-05 -5.33556143e-07  0.00000000e+00  0.00000000e+00
  0.00000000e+00 -4.81911760e-07 -5.33556143e-07  1.66083574e-05
  0.00000000e+00  0.00000000e+00  0.00000000e+00 -5.83650901e-08
  0.00000000e+00  0.00000000e+00  0.00000000e+00  0.00000000e+00
  0.00000000e+00  0.00000000e+00  0.00000000e+00  0.00000000e+00
  0.00000000e+00  0.00000000e+00  0.00000000e+00  0.00000000e+00
  0.00000000e+00  0.00000000e+00  0.00000000e+00  0.00000000e+00
  0.00000000e+00  0.00000000e+00 -4.81911760e-07 -5.83650901e-08
  0.00000000e+00  0.00000000e+00  0.00000000e+00  3.15833982e-06]","[[ 0.00021123  0.00990184]
 [-0.00037958  0.00388192]]",[],0.0,0.0
1787152152.780582,2.2066750616176147,0.1249019630694869,2.0109750416768066,"[ 1.82995185e-05 -5.33556143e-07  0.00000000e+00  0.00000000e+00
  0.00000000e+00 -4.81911760e-07 -5.33556143e-07  1.66083574e-05
  0.00000000e+00  0.00000000e+00  0.00000000e+00 -5.83650901e-08
  0.00000000e+00  0.00000000e+00  0.00000000e+00  0.00000000e+00
  0.00000000e+00  0.00000000e+00  0.00000000e+00  0.00000000e+00
  0.00000000e+00  0.00000000e+00  0.00000000e+00  0.00000000e+00
  0.00000000e+00  0.00000000e+00  0.00000000e+00  0.00000000e+00
  0.00000000e+00  0.00000000e+00 -4.81911760e-07 -5.83650901e-08
  0.00000000e+00  0.00000000e+00  0.00000000e+00  3.15833982e-06]","[[ 0.00021123  0.00990184]
 [-0.00037958  0.00388192]]",[],0.0,0.0
1787152152.826764,2.2066750616176147,0.1249019630694869,2.0109750416768066,"[ 1.82995185e-05 -5.33556143e-07  0.00000000e+00  0.00000000e+00
  0.00000000e+00 -4.81911760e-07 -5.33556143e-07  1.66083574e-05
  0.00000000e+00  0.00000000e+00  0.00000000e+00 -5.83650901e-08
  0.00000000e+00  0.00000000e+00  0.00000000e+00  0.00000000e+00
  0.00000000e+00  0.00000000e+00  0.00000000e+00  0.00000000e+00
  0.00000000e+00  0.00000000e+00  0.00000000e+00  0.00000000e+00
  0.00000000e+00  0.00000000e+00  0.00000000e+00  0.00000000e+00
  0.00000000e+00  0.00000000e+00 -4.81911760e-07 -5.83650901e-08
  0.00000000e+00  0.00000000e+00  0.00000000e+00  3.15833982e-06]","[[ 0.00021123  0.00990184]
 [-0.00037958  0.00388192]]",[],0.0,0.0
1787152152.8558633,2.2066750616176147,0.1249019630694869,2.0109750416768066,"[ 1.82995185e-05 -5.33556143e-07  0.00000000e+00  0.00000000e+00
  0.00000000e+00 -4.81911760e-07 -5.33556143e-07  1.66083574e-05
  0.00000000e+00  0.00000000e+00  0.00000000e+00 -5.83650901e-08
  0.00000000e+00  0.00000000e+00  0.00000000e+00  0.00000000e+00
  0.00000000e+00  0.00000000e+00  0.00000000e+00  0.00000000e+00
  0.00000000e+00  0.00000000e+00  0.00000000e+00  0.00000000e+00
  0.00000000e+00  0.00000000e+00  0.00000000e+00  0.00000000e+00
  0.00000000e+00  0.00000000e+00 -4.81911760e-07 -5.83650901e-08
  0.00000000e+00  0.00000000e+00  0.00000000e+00  3.15833982e-06]","[[ 0.00021123  0.00990184]
 [-0.00037958  0.00388192]]",[],0.0,0.0
1787152152.9275687,2.2066750616176147,0.1249019630694869,2.0109750416768066,"[ 1.82995185e-05 -5.33556143e-07  0.00000000e+00  0.00000000e+00
  0.00000000e+00 -4.81911760e-07 -5.33556143e-07  1.66083574e-05
  0.00000000e+00  0.00000000e+00  0.00000000e+00 -5.83650901e-08
  0.00000000e+00  0.00000000e+00  0.00000000e+00  0.00000000e+00
  0.00000000e+00  0.00000000e+00  0.00000000e+00  0.00000000e+00
  0.00000000e+00  0.00000000e+00  0.00000000e+00  0.00000000e+00
  0.00000000e+00  0.00000000e+00  0.00000000e+00  0.00000000e+00
  0.00000000e+00  0.00000000e+00 -4.81911760e-07 -5.83650901e-08
  0.00000000e+00  0.00000000e+00  0.00000000e+00  3.15833982e-06]","[[ 0.00021123  0.00990184]
 [-0.00037958  0.00388192]]",[],0.0,0.0
1787152152.9922054,2.2066750616176147,0.1249019630694869,2.0109750416768066,"[ 1.82995185e-05 -5.33556143e-07  0.00000000e+00  0.00000000e+00
  0.00000000e+00 -4.81911760e-07 -5.33556143e-07  1.66083574e-05
  0.00000000e+00  0.00000000e+00  0.00000000e+00 -5.83650901e-08
  0.00000000e+00  0.00000000e+00  0.00000000e+00  0.00000000e+00
  0.00000000e+00  0.00000000e+00  0.00000000e+00  0.00000000e+00
  0.00000000e+00  0.00000000e+00  0.00000000e+00  0.00000000e+00
  0.00000000e+00  0.00000000e+00  0.00000000e+00  0.00000000e+00
  0.00000000e+00  0.00000000e+00 -4.81911760e-07 -5.83650901e-08
  0.00000000e+00  0.00000000e+00  0.00000000e+00  3.15833982e-06]","[[ 0.00021123  0.00990184]
 [-0.00037958  0.00388192]]",[],0.0,0.0
1787152153.019176,2.2066750616176147,0.1249019630694869,2.0109750416768066,"[ 1.82995185e-05 -5.33556143e-07  0.00000000e+00  0.00000000e+00
  0.00000000e+00 -4.81911760e-07 -5.33556143e-07  1.66083574e-05
  0.00000000e+00  0.00000000e+00  0.00000000e+00 -5.83650901e-08
  0.00000000e+00  0.00000000e+00  0.00000000e+00  0.00000000e+00
  0.00000000e+00  0.00000000e+00  0.00000000e+00  0.00000000e+00
  0.00000000e+00  0.00000000e+00  0.00000000e+00  0.00000000e+00
  0.00000000e+00  0.00000000e+00  0.00000000e+00  0.00000000e+00
  0.00000000e+00  0.00000000e+00 -4.81911760e-07 -5.83650901e-08
  0.00000000e+00  0.00000000e+00  0.00000000e+00  3.15833982e-06]","[[ 0.00021123  0.00990184]
 [-0.00037958  0.00388192]]",[],0.0,0.0
1787152153.2651045,2.2066750616176147,0.1249019630694869,2.0109750416768066,"[ 1.82995185e-05 -5.33556143e-07  0.00000000e+00  0.00000000e+00
  0.00000000e+00 -4.81911760e-07 -5.33556143e-07  1.66083574e-05
  0.00000000e+00  0.00000000e+00  0.00000000e+00 -5.83650901e-08
  0.00000000e+00  0.00000000e+00  0.00000000e+00  0.00000000e+00
  0.00000000e+00  0.00000000e+00  0.00000000e+00  0.00000000e+00
  0.00000000e+00  0.00000000e+00  0.00000000e+00  0.00000000e+00
  0.00000000e+00  0.00000000e+00  0.00000000e+00  0.00000000e+00
  0.00000000e+00  0.00000000e+00 -4.81911760e-07 -5.83650901e-08
  0.00000000e+00  0.00000000e+00  0.00000000e+00  3.15833982e-06]","[[ 0.00021123  0.00990184]
 [-0.00037958  0.00388192]]",[],0.0,0.0
1787152153.3200788,2.2066750616176147,0.1249019630694869,2.0109750416768066,"[ 1.82995185e-05 -5.33556143e-07  0.00000000e+00  0.00000000e+00
  0.00000000e+00 -4.81911760e-07 -5.33556143e-07  1.66083574e-05
  0.00000000e+00  0.00000000e+00  0.00000000e+00 -5.83650901e-08
  0.00000000e+00  0.00000000e+00  0.00000000e+00  0.00000000e+00
  0.00000000e+00  0.00000000e+00  0.00000000e+00  0.00000000e+00
  0.00000000e+00  0.00000000e+00  0.00000000e+00  0.00000000e+00
  0.00000000e+00  0.00000000e+00  0.00000000e+00  0.00000000e+00
  0.00000000e+00  0.00000000e+00 -4.81911760e-07 -5.83650901e-08
  0.00000000e+00  0.00000000e+00  0.00000000e+00  3.15833982e-06]","[[ 0.00021123  0.00990184]
 [-0.00037958  0.00388192]]",[],0.0,0.0
1787152153.4749079,2.2066750616176147,0.1249019630694869,2.0109750416768066,"[ 1.82995185e-05 -5.33556143e-07  0.00000000e+00  0.00000000e+00
  0.00000000e+00 -4.81911760e-07 -5.33556143e-07  1.66083574e-05
  0.00000000e+00  0.00000000e+00  0.00000000e+00 -5.83650901e-08
  0.00000000e+00  0.00000000e+00  0.00000000e+00  0.00000000e+00
  0.00000000e+00  0.00000000e+00  0.00000000e+00  0.00000000e+00
  0.00000000e+00  0.00000000e+00  0.00000000e+00  0.00000000e+00
  0.00000000e+00  0.00000000e+00  0.00000000e+00  0.00000000e+00
  0.00000000e+00  0.00000000e+00 -4.81911760e-07 -5.83650901e-08
  0.00000000e+00  0.00000000e+00  0.00000000e+00  3.15833982e-06]","[[ 0.00021123  0.00990184]
 [-0.00037958  0.00388192]]",[],0.0,0.0
1787152153.5194952,2.19672899874872,0.11681052539123943,1.9998735559697014,"[ 1.36096930e-05 -3.80111240e-07  0.00000000e+00  0.00000000e+00
  0.00000000e+00 -2.89082984e-07 -3.80111240e-07  1.26525901e-05
  0.00000000e+00  0.00000000e+00  0.00000000e+00  1.80597280e-08
  0.00000000e+00  0.00000000e+00  0.00000000e+00  0.00000000e+00
  0.00000000e+00  0.00000000e+00  0.00000000e+00  0.00000000e+00
  0.00000000e+00  0.00000000e+00  0.00000000e+00  0.00000000e+00
  0.00000000e+00  0.00000000e+00  0.00000000e+00  0.00000000e+00
  0.00000000e+00  0.00000000e+00 -2.89082984e-07  1.80597280e-08
  0.00000000e+00  0.00000000e+00  0.00000000e+00  3.00703086e-06]","[[ 0.00015555  0.0072452 ]
 [-0.00028938  0.00283275]]",[],0.0,0.0
1787152153.7742407,2.19672899874872,0.11681052539123943,1.9998735559697014,"[ 1.36096930e-05 -3.80111240e-07  0.00000000e+00  0.00000000e+00
  0.00000000e+00 -2.89082984e-07 -3.80111240e-07  1.26525901e-05
  0.00000000e+00  0.00000000e+00  0.00000000e+00  1.80597280e-08
  0.00000000e+00  0.00000000e+00  0.00000000e+00  0.00000000e+00
  0.00000000e+00  0.00000000e+00  0.00000000e+00  0.00000000e+00
  0.00000000e+00  0.00000000e+00  0.00000000e+00  0.00000000e+00
  0.00000000e+00  0.00000000e+00  0.00000000e+00  0.00000000e+00
  0.00000000e+00  0.00000000e+00 -2.89082984e-07  1.80597280e-08
  0.00000000e+00  0.00000000e+00  0.00000000e+00  3.00703086e-06]","[[ 0.00015555  0.0072452 ]
 [-0.00028938  0.00283275]]",[],0.0,0.0
1787152153.8195014,2.19672899874872,0.11681052539123943,1.9998735559697014,"[ 1.36096930e-05 -3.80111240e-07  0.00000000e+00  0.00000000e+00
  0.00000000e+00 -2.89082984e-07 -3.80111240e-07  1.26525901e-05
  0.00000000e+00  0.00000000e+00  0.00000000e+00  1.80597280e-08
  0.00000000e+00  0.00000000e+00  0.00000000e+00  0.00000000e+00
  0.00000000e+00  0.00000000e+00  0.00000000e+00  0.00000000e+00
  0.00000000e+00  0.00000000e+00  0.00000000e+00  0.00000000e+00
  0.00000000e+00  0.00000000e+00  0.00000000e+00  0.00000000e+00
  0.00000000e+00  0.00000000e+00 -2.89082984e-07  1.80597280e-08
  0.00000000e+00  0.00000000e+00  0.00000000e+00  3.00703086e-06]","[[ 0.00015555  0.0072452 ]
 [-0.00028938  0.00283275]]",[],0.0,0.0
1787152153.8538704,2.19672899874872,0.11681052539123943,1.9998735559697014,"[ 1.36096930e-05 -3.80111240e-07  0.00000000e+00  0.00000000e+00
  0.00000000e+00 -2.89082984e-07 -3.80111240e-07  1.26525901e-05
  0.00000000e+00  0.00000000e+00  0.00000000e+00  1.80597280e-08
  0.00000000e+00  0.00000000e+00  0.00000000e+00  0.00000000e+00
  0.00000000e+00  0.00000000e+00  0.00000000e+00  0.00000000e+00
  0.00000000e+00  0.00000000e+00  0.00000000e+00  0.00000000e+00
  0.00000000e+00  0.00000000e+00  0.00000000e+00  0.00000000e+00
  0.00000000e+00  0.00000000e+00 -2.89082984e-07  1.80597280e-08
  0.00000000e+00  0.00000000e+00  0.00000000e+00  3.00703086e-06]","[[ 0.00015555  0.0072452 ]
 [-0.00028938  0.00283275]]",[],0.0,0.0
1787152153.950047,2.19672899874872,0.11681052539123943,1.9998735559697014,"[ 1.36096930e-05 -3.80111240e-07  0.00000000e+00  0.00000000e+00
  0.00000000e+00 -2.89082984e-07 -3.80111240e-07  1.26525901e-05
  0.00000000e+00  0.00000000e+00  0.00000000e+00  1.80597280e-08
  0.00000000e+00  0.00000000e+00  0.00000000e+00  0.00000000e+00
  0.00000000e+00  0.00000000e+00  0.00000000e+00  0.00000000e+00
  0.00000000e+00  0.00000000e+00  0.00000000e+00  0.00000000e+00
  0.00000000e+00  0.00000000e+00  0.00000000e+00  0.00000000e+00
  0.00000000e+00  0.00000000e+00 -2.89082984e-07  1.80597280e-08
  0.00000000e+00  0.00000000e+00  0.00000000e+00  3.00703086e-06]","[[ 0.00015555  0.0072452 ]
 [-0.00028938  0.00283275]]",[],0.0,0.0
1787152153.9624956,2.19672899874872,0.11681052539123943,1.9998735559697014,"[ 1.36096930e-05 -3.80111240e-07  0.00000000e+00  0.00000000e+00
  0.00000000e+00 -2.89082984e-07 -3.80111240e-07  1.26525901e-05
  0.00000000e+00  0.00000000e+00  0.00000000e+00  1.80597280e-08
  0.00000000e+00  0.00000000e+00  0.00000000e+00  0.00000000e+00
  0.00000000e+00  0.00000000e+00  0.00000000e+00  0.00000000e+00
  0.00000000e+00  0.00000000e+00  0.00000000e+00  0.00000000e+00
  0.00000000e+00  0.00000000e+00  0.00000000e+00  0.00000000e+00
  0.00000000e+00  0.00000000e+00 -2.89082984e-07  1.80597280e-08
  0.00000000e+00  0.00000000e+00  0.00000000e+00  3.00703086e-06]","[[ 0.00015555  0.0072452 ]
 [-0.00028938  0.00283275]]",[],0.0,0.0
1787152154.0312057,2.19672899874872,0.11681052539123943,1.9998735559697014,"[ 1.36096930e-05 -3.80111240e-07  0.00000000e+00  0.00000000e+00
  0.00000000e+00 -2.89082984e-07 -3.80111240e-07  1.26525901e-05
  0.00000000e+00  0.00000000e+00  0.00000000e+00  1.80597280e-08
  0.00000000e+00  0.00000000e+00  0.00000000e+00  0.00000000e+00
  0.00000000e+00  0.00000000e+00  0.00000000e+00  0.00000000e+00
  0.00000000e+00  0.00000000e+00  0.00000000e+00  0.00000000e+00
  0.00000000e+00  0.00000000e+00  0.00000000e+00  0.00000000e+00
  0.00000000e+00  0.00000000e+00 -2.89082984e-07  1.80597280e-08
  0.00000000e+00  0.00000000e+00  0.00000000e+00  3.00703086e-06]","[[ 0.00015555  0.0072452 ]
 [-0.00028938  0.00283275]]",[],0.0,0.0
1787152154.0874388,2.19672899874872,0.11681052539123943,1.9998735559697014,"[ 1.36096930e-05 -3.80111240e-07  0.00000000e+00  0.00000000e+00
  0.00000000e+00 -2.89082984e-07 -3.80111240e-07  1.26525901e-05
  0.00000000e+00  0.00000000e+00  0.00000000e+00  1.80597280e-08
  0.00000000e+00  0.00000000e+00  0.00000000e+00  0.00000000e+00
  0.00000000e+00  0.00000000e+00  0.00000000e+00  0.00000000e+00
  0.00000000e+00  0.00000000e+00  0.00000000e+00  0.00000000e+00
  0.00000000e+00  0.00000000e+00  0.00000000e+00  0.00000000e+00
  0.00000000e+00  0.00000000e+00 -2.89082984e-07  1.80597280e-08
  0.00000000e+00  0.00000000e+00  0.00000000e+00  3.00703086e-06]","[[ 0.00015555  0.0072452 ]
 [-0.00028938  0.00283275]]",[],0.0,0.0
1787152154.1396089,2.19672899874872,0.11681052539123943,1.9998735559697014,"[ 1.36096930e-05 -3.80111240e-07  0.00000000e+00  0.00000000e+00
  0.00000000e+00 -2.89082984e-07 -3.80111240e-07  1.26525901e-05
  0.00000000e+00  0.00000000e+00  0.00000000e+00  1.80597280e-08
  0.00000000e+00  0.00000000e+00  0.00000000e+00  0.00000000e+00
  0.00000000e+00  0.00000000e+00  0.00000000e+00  0.00000000e+00
  0.00000000e+00  0.00000000e+00  0.00000000e+00  0.00000000e+00
  0.00000000e+00  0.00000000e+00  0.00000000e+00  0.00000000e+00
  0.00000000e+00  0.00000000e+00 -2.89082984e-07  1.80597280e-08
  0.00000000e+00  0.00000000e+00  0.00000000e+00  3.00703086e-06]","[[ 0.00015555  0.0072452 ]
 [-0.00028938  0.00283275]]",[],0.0,0.0
1787152154.1831286,2.19672899874872,0.11681052539123943,1.9998735559697014,"[ 1.36096930e-05 -3.80111240e-07  0.00000000e+00  0.00000000e+00
  0.00000000e+00 -2.89082984e-07 -3.80111240e-07  1.26525901e-05
  0.00000000e+00  0.00000000e+00  0.00000000e+00  1.80597280e-08
  0.00000000e+00  0.00000000e+00  0.00000000e+00  0.00000000e+00
  0.00000000e+00  0.00000000e+00  0.00000000e+00  0.00000000e+00
  0.00000000e+00  0.00000000e+00  0.00000000e+00  0.00000000e+00
  0.00000000e+00  0.00000000e+00  0.00000000e+00  0.00000000e+00
  0.00000000e+00  0.00000000e+00 -2.89082984e-07  1.80597280e-08
  0.00000000e+00  0.00000000e+00  0.00000000e+00  3.00703086e-06]","[[ 0.00015555  0.0072452 ]
 [-0.00028938  0.00283275]]",[],0.0,0.0
1787152154.2392123,2.19672899874872,0.11681052539123943,1.9998735559697014,"[ 1.36096930e-05 -3.80111240e-07  0.00000000e+00  0.00000000e+00
  0.00000000e+00 -2.89082984e-07 -3.80111240e-07  1.26525901e-05
  0.00000000e+00  0.00000000e+00  0.00000000e+00  1.80597280e-08
  0.00000000e+00  0.00000000e+00  0.00000000e+00  0.00000000e+00
  0.00000000e+00  0.00000000e+00  0.00000000e+00  0.00000000e+00
  0.00000000e+00  0.00000000e+00  0.00000000e+00  0.00000000e+00
  0.00000000e+00  0.00000000e+00  0.00000000e+00  0.00000000e+00
  0.00000000e+00  0.00000000e+00 -2.89082984e-07  1.80597280e-08
  0.00000000e+00  0.00000000e+00  0.00000000e+00  3.00703086e-06]","[[ 0.00015555  0.0072452 ]
 [-0.00028938  0.00283275]]",[],0.0,0.0
1787152154.2636843,2.19672899874872,0.11681052539123943,1.9998735559697014,"[ 1.36096930e-05 -3.80111240e-07  0.00000000e+00  0.00000000e+00
  0.00000000e+00 -2.89082984e-07 -3.80111240e-07  1.26525901e-05
  0.00000000e+00  0.00000000e+00  0.00000000e+00  1.80597280e-08
  0.00000000e+00  0.00000000e+00  0.00000000e+00  0.00000000e+00
  0.00000000e+00  0.00000000e+00  0.00000000e+00  0.00000000e+00
  0.00000000e+00  0.00000000e+00  0.00000000e+00  0.00000000e+00
  0.00000000e+00  0.00000000e+00  0.00000000e+00  0.00000000e+00
  0.00000000e+00  0.00000000e+00 -2.89082984e-07  1.80597280e-08
  0.00000000e+00  0.00000000e+00  0.00000000e+00  3.00703086e-06]","[[ 0.00015555  0.0072452 ]
 [-0.00028938  0.00283275]]",[],0.0,0.0
1787152154.3317454,2.19672899874872,0.11681052539123943,1.9998735559697014,"[ 1.36096930e-05 -3.80111240e-07  0.00000000e+00  0.00000000e+00
  0.00000000e+00 -2.89082984e-07 -3.80111240e-07  1.26525901e-05
  0.00000000e+00  0.00000000e+00  0.00000000e+00  1.80597280e-08
  0.00000000e+00  0.00000000e+00  0.00000000e+00  0.00000000e+00
  0.00000000e+00  0.00000000e+00  0.00000000e+00  0.00000000e+00
  0.00000000e+00  0.00000000e+00  0.00000000e+00  0.00000000e+00
  0.00000000e+00  0.00000000e+00  0.00000000e+00  0.00000000e+00
  0.00000000e+00  0.00000000e+00 -2.89082984e-07  1.80597280e-08
  0.00000000e+00  0.00000000e+00  0.00000000e+00  3.00703086e-06]","[[ 0.00015555  0.0072452 ]
 [-0.00028938  0.00283275]]",[],0.0,0.0
1787152154.3905323,2.19672899874872,0.11681052539123943,1.9998735559697014,"[ 1.36096930e-05 -3.80111240e-07  0.00000000e+00  0.00000000e+00
  0.00000000e+00 -2.89082984e-07 -3.80111240e-07  1.26525901e-05
  0.00000000e+00  0.00000000e+00  0.00000000e+00  1.80597280e-08
  0.00000000e+00  0.00000000e+00  0.00000000e+00  0.00000000e+00
  0.00000000e+00  0.00000000e+00  0.00000000e+00  0.00000000e+00
  0.00000000e+00  0.00000000e+00  0.00000000e+00  0.00000000e+00
  0.00000000e+00  0.00000000e+00  0.00000000e+00  0.00000000e+00
  0.00000000e+00  0.00000000e+00 -2.89082984e-07  1.80597280e-08
  0.00000000e+00  0.00000000e+00  0.00000000e+00  3.00703086e-06]","[[ 0.00015555  0.0072452 ]
 [-0.00028938  0.00283275]]",[],0.0,0.0
1787152154.4047115,2.1960757266968214,0.11524623444213832,1.9873913955359814,"[ 1.08355861e-05 -3.78731637e-07  0.00000000e+00  0.00000000e+00
  0.00000000e+00 -2.85536149e-07 -3.78731637e-07  1.02045686e-05
  0.00000000e+00  0.00000000e+00  0.00000000e+00  4.08655034e-08
  0.00000000e+00  0.00000000e+00  0.00000000e+00  0.00000000e+00
  0.00000000e+00  0.00000000e+00  0.00000000e+00  0.00000000e+00
  0.00000000e+00  0.00000000e+00  0.00000000e+00  0.00000000e+00
  0.00000000e+00  0.00000000e+00  0.00000000e+00  0.00000000e+00
  0.00000000e+00  0.00000000e+00 -2.85536149e-07  4.08655034e-08
  0.00000000e+00  0.00000000e+00  0.00000000e+00  3.01201457e-06]","[[ 0.00011099  0.0061759 ]
 [-0.00023983  0.00195064]]",[],0.0,0.0
1787152154.4733932,2.1960757266968214,0.11524623444213832,1.9873913955359814,"[ 1.08355861e-05 -3.78731637e-07  0.00000000e+00  0.00000000e+00
  0.00000000e+00 -2.85536149e-07 -3.78731637e-07  1.02045686e-05
  0.00000000e+00  0.00000000e+00  0.00000000e+00  4.08655034e-08
  0.00000000e+00  0.00000000e+00  0.00000000e+00  0.00000000e+00
  0.00000000e+00  0.00000000e+00  0.00000000e+00  0.00000000e+00
  0.00000000e+00  0.00000000e+00  0.00000000e+00  0.00000000e+00
  0.00000000e+00  0.00000000e+00  0.00000000e+00  0.00000000e+00
  0.00000000e+00  0.00000000e+00 -2.85536149e-07  4.08655034e-08
  0.00000000e+00  0.00000000e+00  0.00000000e+00  3.01201457e-06]","[[ 0.00011099  0.0061759 ]
 [-0.00023983  0.00195064]]",[],0.0,0.0
1787152154.5365617,2.1960757266968214,0.11524623444213832,1.9873913955359814,"[ 1.08355861e-05 -3.78731637e-07  0.00000000e+00  0.00000000e+00
  0.00000000e+00 -2.85536149e-07 -3.78731637e-07  1.02045686e-05
  0.00000000e+00  0.00000000e+00  0.00000000e+00  4.08655034e-08
  0.00000000e+00  0.00000000e+00  0.00000000e+00  0.00000000e+00
  0.00000000e+00  0.00000000e+00  0.00000000e+00  0.00000000e+00
  0.00000000e+00  0.00000000e+00  0.00000000e+00  0.00000000e+00
  0.00000000e+00  0.00000000e+00  0.00000000e+00  0.00000000e+00
  0.00000000e+00  0.00000000e+00 -2.85536149e-07  4.08655034e-08
  0.00000000e+00  0.00000000e+00  0.00000000e+00  3.01201457e-06]","[[ 0.00011099  0.0061759 ]
 [-0.00023983  0.00195064]]",[],0.0,0.0
1787152154.565925,2.1960757266968214,0.11524623444213832,1.9873913955359814,"[ 1.08355861e-05 -3.78731637e-07  0.00000000e+00  0.00000000e+00
  0.00000000e+00 -2.85536149e-07 -3.78731637e-07  1.02045686e-05
  0.00000000e+00  0.00000000e+00  0.00000000e+00  4.08655034e-08
  0.00000000e+00  0.00000000e+00  0.00000000e+00  0.00000000e+00
  0.00000000e+00  0.00000000e+00  0.00000000e+00  0.00000000e+00
  0.00000000e+00  0.00000000e+00  0.00000000e+00  0.00000000e+00
  0.00000000e+00  0.00000000e+00  0.00000000e+00  0.00000000e+00
  0.00000000e+00  0.00000000e+00 -2.85536149e-07  4.08655034e-08
  0.00000000e+00  0.00000000e+00  0.00000000e+00  3.01201457e-06]","[[ 0.00011099  0.0061759 ]
 [-0.00023983  0.00195064]]",[],0.0,0.0
1787152154.6325958,2.1960757266968214,0.11524623444213832,1.9873913955359814,"[ 1.08355861e-05 -3.78731637e-07  0.00000000e+00  0.00000000e+00
  0.00000000e+00 -2.85536149e-07 -3.78731637e-07  1.02045686e-05
  0.00000000e+00  0.00000000e+00  0.00000000e+00  4.08655034e-08
  0.00000000e+00  0.00000000e+00  0.00000000e+00  0.00000000e+00
  0.00000000e+00  0.00000000e+00  0.00000000e+00  0.00000000e+00
  0.00000000e+00  0.00000000e+00  0.00000000e+00  0.00000000e+00
  0.00000000e+00  0.00000000e+00  0.00000000e+00  0.00000000e+00
  0.00000000e+00  0.00000000e+00 -2.85536149e-07  4.08655034e-08
  0.00000000e+00  0.00000000e+00  0.00000000e+00  3.01201457e-06]","[[ 0.00011099  0.0061759 ]
 [-0.00023983  0.00195064]]",[],0.0,0.0
1787152154.679938,2.1960757266968214,0.11524623444213832,1.9873913955359814,"[ 1.08355861e-05 -3.78731637e-07  0.00000000e+00  0.00000000e+00
  0.00000000e+00 -2.85536149e-07 -3.78731637e-07  1.02045686e-05
  0.00000000e+00  0.00000000e+00  0.00000000e+00  4.08655034e-08
  0.00000000e+00  0.00000000e+00  0.00000000e+00  0.00000000e+00
  0.00000000e+00  0.00000000e+00  0.00000000e+00  0.00000000e+00
  0.00000000e+00  0.00000000e+00  0.00000000e+00  0.00000000e+00
  0.00000000e+00  0.00000000e+00  0.00000000e+00  0.00000000e+00
  0.00000000e+00  0.00000000e+00 -2.85536149e-07  4.08655034e-08
  0.00000000e+00  0.00000000e+00  0.00000000e+00  3.01201457e-06]","[[ 0.00011099  0.0061759 ]
 [-0.00023983  0.00195064]]",[],0.0,0.0
1787152154.7805085,2.1960757266968214,0.11524623444213832,1.9873913955359814,"[ 1.08355861e-05 -3.78731637e-07  0.00000000e+00  0.00000000e+00
  0.00000000e+00 -2.85536149e-07 -3.78731637e-07  1.02045686e-05
  0.00000000e+00  0.00000000e+00  0.00000000e+00  4.08655034e-08
  0.00000000e+00  0.00000000e+00  0.00000000e+00  0.00000000e+00
  0.00000000e+00  0.00000000e+00  0.00000000e+00  0.00000000e+00
  0.00000000e+00  0.00000000e+00  0.00000000e+00  0.00000000e+00
  0.00000000e+00  0.00000000e+00  0.00000000e+00  0.00000000e+00
  0.00000000e+00  0.00000000e+00 -2.85536149e-07  4.08655034e-08
  0.00000000e+00  0.00000000e+00  0.00000000e+00  3.01201457e-06]","[[ 0.00011099  0.0061759 ]
 [-0.00023983  0.00195064]]",[],0.0,0.0
1787152154.840638,2.1960757266968214,0.11524623444213832,1.9873913955359814,"[ 1.08355861e-05 -3.78731637e-07  0.00000000e+00  0.00000000e+00
  0.00000000e+00 -2.85536149e-07 -3.78731637e-07  1.02045686e-05
  0.00000000e+00  0.00000000e+00  0.00000000e+00  4.08655034e-08
  0.00000000e+00  0.00000000e+00  0.00000000e+00  0.00000000e+00
  0.00000000e+00  0.00000000e+00  0.00000000e+00  0.00000000e+00
  0.00000000e+00  0.00000000e+00  0.00000000e+00  0.00000000e+00
  0.00000000e+00  0.00000000e+00  0.00000000e+00  0.00000000e+00
  0.00000000e+00  0.00000000e+00 -2.85536149e-07  4.08655034e-08
  0.00000000e+00  0.00000000e+00  0.00000000e+00  3.01201457e-06]","[[ 0.00011099  0.0061759 ]
 [-0.00023983  0.00195064]]",[],0.0,0.0
1787152154.8780093,2.1960757266968214,0.11524623444213832,1.9873913955359814,"[ 1.08355861e-05 -3.78731637e-07  0.00000000e+00  0.00000000e+00
  0.00000000e+00 -2.85536149e-07 -3.78731637e-07  1.02045686e-05
  0.00000000e+00  0.00000000e+00  0.00000000e+00  4.08655034e-08
  0.00000000e+00  0.00000000e+00  0.00000000e+00  0.00000000e+00
  0.00000000e+00  0.00000000e+00  0.00000000e+00  0.00000000e+00
  0.00000000e+00  0.00000000e+00  0.00000000e+00  0.00000000e+00
  0.00000000e+00  0.00000000e+00  0.00000000e+00  0.00000000e+00
  0.00000000e+00  0.00000000e+00 -2.85536149e-07  4.08655034e-08
  0.00000000e+00  0.00000000e+00  0.00000000e+00  3.01201457e-06]","[[ 0.00011099  0.0061759 ]
 [-0.00023983  0.00195064]]",[],0.0,0.0
1787152154.9359064,2.1960757266968214,0.11524623444213832,1.9873913955359814,"[ 1.08355861e-05 -3.78731637e-07  0.00000000e+00  0.00000000e+00
  0.00000000e+00 -2.85536149e-07 -3.78731637e-07  1.02045686e-05
  0.00000000e+00  0.00000000e+00  0.00000000e+00  4.08655034e-08
  0.00000000e+00  0.00000000e+00  0.00000000e+00  0.00000000e+00
  0.00000000e+00  0.00000000e+00  0.00000000e+00  0.00000000e+00
  0.00000000e+00  0.00000000e+00  0.00000000e+00  0.00000000e+00
  0.00000000e+00  0.00000000e+00  0.00000000e+00  0.00000000e+00
  0.00000000e+00  0.00000000e+00 -2.85536149e-07  4.08655034e-08
  0.00000000e+00  0.00000000e+00  0.00000000e+00  3.01201457e-06]","[[ 0.00011099  0.0061759 ]
 [-0.00023983  0.00195064]]",[],0.0,0.0
1787152154.9782243,2.1960757266968214,0.11524623444213832,1.9873913955359814,"[ 1.08355861e-05 -3.78731637e-07  0.00000000e+00  0.00000000e+00
  0.00000000e+00 -2.85536149e-07 -3.78731637e-07  1.02045686e-05
  0.00000000e+00  0.00000000e+00  0.00000000e+00  4.08655034e-08
  0.00000000e+00  0.00000000e+00  0.00000000e+00  0.00000000e+00
  0.00000000e+00  0.00000000e+00  0.00000000e+00  0.00000000e+00
  0.00000000e+00  0.00000000e+00  0.00000000e+00  0.00000000e+00
  0.00000000e+00  0.00000000e+00  0.00000000e+00  0.00000000e+00
  0.00000000e+00  0.00000000e+00 -2.85536149e-07  4.08655034e-08
  0.00000000e+00  0.00000000e+00  0.00000000e+00  3.01201457e-06]","[[ 0.00011099  0.0061759 ]
 [-0.00023983  0.00195064]]",[],0.0,0.0
1787152155.0325148,2.1960757266968214,0.11524623444213832,1.9873913955359814,"[ 1.08355861e-05 -3.78731637e-07  0.00000000e+00  0.00000000e+00
  0.00000000e+00 -2.85536149e-07 -3.78731637e-07  1.02045686e-05
  0.00000000e+00  0.00000000e+00  0.00000000e+00  4.08655034e-08
  0.00000000e+00  0.00000000e+00  0.00000000e+00  0.00000000e+00
  0.00000000e+00  0.00000000e+00  0.00000000e+00  0.00000000e+00
  0.00000000e+00  0.00000000e+00  0.00000000e+00  0.00000000e+00
  0.00000000e+00  0.00000000e+00  0.00000000e+00  0.00000000e+00
  0.00000000e+00  0.00000000e+00 -2.85536149e-07  4.08655034e-08
  0.00000000e+00  0.00000000e+00  0.00000000e+00  3.01201457e-06]","[[ 0.00011099  0.0061759 ]
 [-0.00023983  0.00195064]]",[],0.0,0.0
1787152155.081698,2.1960757266968214,0.11524623444213832,1.9873913955359814,"[ 1.08355861e-05 -3.78731637e-07  0.00000000e+00  0.00000000e+00
  0.00000000e+00 -2.85536149e-07 -3.78731637e-07  1.02045686e-05
  0.00000000e+00  0.00000000e+00  0.00000000e+00  4.08655034e-08
  0.00000000e+00  0.00000000e+00  0.00000000e+00  0.00000000e+00
  0.00000000e+00  0.00000000e+00  0.00000000e+00  0.00000000e+00
  0.00000000e+00  0.00000000e+00  0.00000000e+00  0.00000000e+00
  0.00000000e+00  0.00000000e+00  0.00000000e+00  0.00000000e+00
  0.00000000e+00  0.00000000e+00 -2.85536149e-07  4.08655034e-08
  0.00000000e+00  0.00000000e+00  0.00000000e+00  3.01201457e-06]","[[ 0.00011099  0.0061759 ]
 [-0.00023983  0.00195064]]",[],0.0,0.0
1787152155.1802592,2.1960757266968214,0.11524623444213832,1.9873913955359814,"[ 1.08355861e-05 -3.78731637e-07  0.00000000e+00  0.00000000e+00
  0.00000000e+00 -2.85536149e-07 -3.78731637e-07  1.02045686e-05
  0.00000000e+00  0.00000000e+00  0.00000000e+00  4.08655034e-08
  0.00000000e+00  0.00000000e+00  0.00000000e+00  0.00000000e+00
  0.00000000e+00  0.00000000e+00  0.00000000e+00  0.00000000e+00
  0.00000000e+00  0.00000000e+00  0.00000000e+00  0.00000000e+00
  0.00000000e+00  0.00000000e+00  0.00000000e+00  0.00000000e+00
  0.00000000e+00  0.00000000e+00 -2.85536149e-07  4.08655034e-08
  0.00000000e+00  0.00000000e+00  0.00000000e+00  3.01201457e-06]","[[ 0.00011099  0.0061759 ]
 [-0.00023983  0.00195064]]",[],0.0,0.0
1787152155.293747,2.1960757266968214,0.11524623444213832,1.9873913955359814,"[ 1.08355861e-05 -3.78731637e-07  0.00000000e+00  0.00000000e+00
  0.00000000e+00 -2.85536149e-07 -3.78731637e-07  1.02045686e-05
  0.00000000e+00  0.00000000e+00  0.00000000e+00  4.08655034e-08
  0.00000000e+00  0.00000000e+00  0.00000000e+00  0.00000000e+00
  0.00000000e+00  0.00000000e+00  0.00000000e+00  0.00000000e+00
  0.00000000e+00  0.00000000e+00  0.00000000e+00  0.00000000e+00
  0.00000000e+00  0.00000000e+00  0.00000000e+00  0.00000000e+00
  0.00000000e+00  0.00000000e+00 -2.85536149e-07  4.08655034e-08
  0.00000000e+00  0.00000000e+00  0.00000000e+00  3.01201457e-06]","[[ 0.00011099  0.0061759 ]
 [-0.00023983  0.00195064]]",[],0.0,0.0
1787152155.306159,2.1960757266968214,0.11524623444213832,1.9873913955359814,"[ 1.08355861e-05 -3.78731637e-07  0.00000000e+00  0.00000000e+00
  0.00000000e+00 -2.85536149e-07 -3.78731637e-07  1.02045686e-05
  0.00000000e+00  0.00000000e+00  0.00000000e+00  4.08655034e-08
  0.00000000e+00  0.00000000e+00  0.00000000e+00  0.00000000e+00
  0.00000000e+00  0.00000000e+00  0.00000000e+00  0.00000000e+00
  0.00000000e+00  0.00000000e+00  0.00000000e+00  0.00000000e+00
  0.00000000e+00  0.00000000e+00  0.00000000e+00  0.00000000e+00
  0.00000000e+00  0.00000000e+00 -2.85536149e-07  4.08655034e-08
  0.00000000e+00  0.00000000e+00  0.00000000e+00  3.01201457e-06]","[[ 0.00011099  0.0061759 ]
 [-0.00023983  0.00195064]]",[],0.0,0.0
1787152155.380784,2.1910413223954404,0.10858617779083087,1.9718033497253729,"[ 8.95066377e-06 -3.56058529e-07  0.00000000e+00  0.00000000e+00
  0.00000000e+00 -2.13322133e-07 -3.56058529e-07  8.59403936e-06
  0.00000000e+00  0.00000000e+00  0.00000000e+00  1.40948723e-07
  0.00000000e+00  0.00000000e+00  0.00000000e+00  0.00000000e+00
  0.00000000e+00  0.00000000e+00  0.00000000e+00  0.00000000e+00
  0.00000000e+00  0.00000000e+00  0.00000000e+00  0.00000000e+00
  0.00000000e+00  0.00000000e+00  0.00000000e+00  0.00000000e+00
  0.00000000e+00  0.00000000e+00 -2.13322133e-07  1.40948723e-07
  0.00000000e+00  0.00000000e+00  0.00000000e+00  2.91982049e-06]","[[ 9.26002714e-05  5.05378986e-03]
 [-2.02355247e-04  1.44412103e-03]]",[],0.0,0.0
1787152155.4034917,2.1910413223954404,0.10858617779083087,1.9718033497253729,"[ 8.95066377e-06 -3.56058529e-07  0.00000000e+00  0.00000000e+00
  0.00000000e+00 -2.13322133e-07 -3.56058529e-07  8.59403936e-06
  0.00000000e+00  0.00000000e+00  0.00000000e+00  1.40948723e-07
  0.00000000e+00  0.00000000e+00  0.00000000e+00  0.00000000e+00
  0.00000000e+00  0.00000000e+00  0.00000000e+00  0.00000000e+00
  0.00000000e+00  0.00000000e+00  0.00000000e+00  0.00000000e+00
  0.00000000e+00  0.00000000e+00  0.00000000e+00  0.00000000e+00
  0.00000000e+00  0.00000000e+00 -2.13322133e-07  1.40948723e-07
  0.00000000e+00  0.00000000e+00  0.00000000e+00  2.91982049e-06]","[[ 9.26002714e-05  5.05378986e-03]
 [-2.02355247e-04  1.44412103e-03]]",[],0.0,0.0
1787152155.4835386,2.1910413223954404,0.10858617779083087,1.9718033497253729,"[ 8.95066377e-06 -3.56058529e-07  0.00000000e+00  0.00000000e+00
  0.00000000e+00 -2.13322133e-07 -3.56058529e-07  8.59403936e-06
  0.00000000e+00  0.00000000e+00  0.00000000e+00  1.40948723e-07
  0.00000000e+00  0.00000000e+00  0.00000000e+00  0.00000000e+00
  0.00000000e+00  0.00000000e+00  0.00000000e+00  0.00000000e+00
  0.00000000e+00  0.00000000e+00  0.00000000e+00  0.00000000e+00
  0.00000000e+00  0.00000000e+00  0.00000000e+00  0.00000000e+00
  0.00000000e+00  0.00000000e+00 -2.13322133e-07  1.40948723e-07
  0.00000000e+00  0.00000000e+00  0.00000000e+00  2.91982049e-06]","[[ 9.26002714e-05  5.05378986e-03]
 [-2.02355247e-04  1.44412103e-03]]",[],0.0,0.0
1787152155.5125031,2.1910413223954404,0.10858617779083087,1.9718033497253729,"[ 8.95066377e-06 -3.56058529e-07  0.00000000e+00  0.00000000e+00
  0.00000000e+00 -2.13322133e-07 -3.56058529e-07  8.59403936e-06
  0.00000000e+00  0.00000000e+00  0.00000000e+00  1.40948723e-07
  0.00000000e+00  0.00000000e+00  0.00000000e+00  0.00000000e+00
  0.00000000e+00  0.00000000e+00  0.00000000e+00  0.00000000e+00
  0.00000000e+00  0.00000000e+00  0.00000000e+00  0.00000000e+00
  0.00000000e+00  0.00000000e+00  0.00000000e+00  0.00000000e+00
  0.00000000e+00  0.00000000e+00 -2.13322133e-07  1.40948723e-07
  0.00000000e+00  0.00000000e+00  0.00000000e+00  2.91982049e-06]","[[ 9.26002714e-05  5.05378986e-03]
 [-2.02355247e-04  1.44412103e-03]]",[],0.0,0.0
1787152155.5923202,2.1910413223954404,0.10858617779083087,1.9718033497253729,"[ 8.95066377e-06 -3.56058529e-07  0.00000000e+00  0.00000000e+00
  0.00000000e+00 -2.13322133e-07 -3.56058529e-07  8.59403936e-06
  0.00000000e+00  0.00000000e+00  0.00000000e+00  1.40948723e-07
  0.00000000e+00  0.00000000e+00  0.00000000e+00  0.00000000e+00
  0.00000000e+00  0.00000000e+00  0.00000000e+00  0.00000000e+00
  0.00000000e+00  0.00000000e+00  0.00000000e+00  0.00000000e+00
  0.00000000e+00  0.00000000e+00  0.00000000e+00  0.00000000e+00
  0.00000000e+00  0.00000000e+00 -2.13322133e-07  1.40948723e-07
  0.00000000e+00  0.00000000e+00  0.00000000e+00  2.91982049e-06]","[[ 9.26002714e-05  5.05378986e-03]
 [-2.02355247e-04  1.44412103e-03]]",[],0.0,0.0
1787152155.6095166,2.1910413223954404,0.10858617779083087,1.9718033497253729,"[ 8.95066377e-06 -3.56058529e-07  0.00000000e+00  0.00000000e+00
  0.00000000e+00 -2.13322133e-07 -3.56058529e-07  8.59403936e-06
  0.00000000e+00  0.00000000e+00  0.00000000e+00  1.40948723e-07
  0.00000000e+00  0.00000000e+00  0.00000000e+00  0.00000000e+00
  0.00000000e+00  0.00000000e+00  0.00000000e+00  0.00000000e+00
  0.00000000e+00  0.00000000e+00  0.00000000e+00  0.00000000e+00
  0.00000000e+00  0.00000000e+00  0.00000000e+00  0.00000000e+00
  0.00000000e+00  0.00000000e+00 -2.13322133e-07  1.40948723e-07
  0.00000000e+00  0.00000000e+00  0.00000000e+00  2.91982049e-06]","[[ 9.26002714e-05  5.05378986e-03]
 [-2.02355247e-04  1.44412103e-03]]",[],0.0,0.0
1787152155.6954238,2.1910413223954404,0.10858617779083087,1.9718033497253729,"[ 8.95066377e-06 -3.56058529e-07  0.00000000e+00  0.00000000e+00
  0.00000000e+00 -2.13322133e-07 -3.56058529e-07  8.59403936e-06
  0.00000000e+00  0.00000000e+00  0.00000000e+00  1.40948723e-07
  0.00000000e+00  0.00000000e+00  0.00000000e+00  0.00000000e+00
  0.00000000e+00  0.00000000e+00  0.00000000e+00  0.00000000e+00
  0.00000000e+00  0.00000000e+00  0.00000000e+00  0.00000000e+00
  0.00000000e+00  0.00000000e+00  0.00000000e+00  0.00000000e+00
  0.00000000e+00  0.00000000e+00 -2.13322133e-07  1.40948723e-07
  0.00000000e+00  0.00000000e+00  0.00000000e+00  2.91982049e-06]","[[ 9.26002714e-05  5.05378986e-03]
 [-2.02355247e-04  1.44412103e-03]]",[],0.0,0.0
1787152155.7159486,2.1910413223954404,0.10858617779083087,1.9718033497253729,"[ 8.95066377e-06 -3.56058529e-07  0.00000000e+00  0.00000000e+00
  0.00000000e+00 -2.13322133e-07 -3.56058529e-07  8.59403936e-06
  0.00000000e+00  0.00000000e+00  0.00000000e+00  1.40948723e-07
  0.00000000e+00  0.00000000e+00  0.00000000e+00  0.00000000e+00
  0.00000000e+00  0.00000000e+00  0.00000000e+00  0.00000000e+00
  0.00000000e+00  0.00000000e+00  0.00000000e+00  0.00000000e+00
  0.00000000e+00  0.00000000e+00  0.00000000e+00  0.00000000e+00
  0.00000000e+00  0.00000000e+00 -2.13322133e-07  1.40948723e-07
  0.00000000e+00  0.00000000e+00  0.00000000e+00  2.91982049e-06]","[[ 9.26002714e-05  5.05378986e-03]
 [-2.02355247e-04  1.44412103e-03]]",[],0.0,0.0
1787152155.7846127,2.1910413223954404,0.10858617779083087,1.9718033497253729,"[ 8.95066377e-06 -3.56058529e-07  0.00000000e+00  0.00000000e+00
  0.00000000e+00 -2.13322133e-07 -3.56058529e-07  8.59403936e-06
  0.00000000e+00  0.00000000e+00  0.00000000e+00  1.40948723e-07
  0.00000000e+00  0.00000000e+00  0.00000000e+00  0.00000000e+00
  0.00000000e+00  0.00000000e+00  0.00000000e+00  0.00000000e+00
  0.00000000e+00  0.00000000e+00  0.00000000e+00  0.00000000e+00
  0.00000000e+00  0.00000000e+00  0.00000000e+00  0.00000000e+00
  0.00000000e+00  0.00000000e+00 -2.13322133e-07  1.40948723e-07
  0.00000000e+00  0.00000000e+00  0.00000000e+00  2.91982049e-06]","[[ 9.26002714e-05  5.05378986e-03]
 [-2.02355247e-04  1.44412103e-03]]",[],0.0,0.0
1787152155.8112783,2.1910413223954404,0.10858617779083087,1.9718033497253729,"[ 8.95066377e-06 -3.56058529e-07  0.00000000e+00  0.00000000e+00
  0.00000000e+00 -2.13322133e-07 -3.56058529e-07  8.59403936e-06
  0.00000000e+00  0.00000000e+00  0.00000000e+00  1.40948723e-07
  0.00000000e+00  0.00000000e+00  0.00000000e+00  0.00000000e+00
  0.00000000e+00  0.00000000e+00  0.00000000e+00  0.00000000e+00
  0.00000000e+00  0.00000000e+00  0.00000000e+00  0.00000000e+00
  0.00000000e+00  0.00000000e+00  0.00000000e+00  0.00000000e+00
  0.00000000e+00  0.00000000e+00 -2.13322133e-07  1.40948723e-07
  0.00000000e+00  0.00000000e+00  0.00000000e+00  2.91982049e-06]","[[ 9.26002714e-05  5.05378986e-03]
 [-2.02355247e-04  1.44412103e-03]]",[],0.0,0.0
1787152155.9019861,2.1910413223954404,0.10858617779083087,1.9718033497253729,"[ 8.95066377e-06 -3.56058529e-07  0.00000000e+00  0.00000000e+00
  0.00000000e+00 -2.13322133e-07 -3.56058529e-07  8.59403936e-06
  0.00000000e+00  0.00000000e+00  0.00000000e+00  1.40948723e-07
  0.00000000e+00  0.00000000e+00  0.00000000e+00  0.00000000e+00
  0.00000000e+00  0.00000000e+00  0.00000000e+00  0.00000000e+00
  0.00000000e+00  0.00000000e+00  0.00000000e+00  0.00000000e+00
  0.00000000e+00  0.00000000e+00  0.00000000e+00  0.00000000e+00
  0.00000000e+00  0.00000000e+00 -2.13322133e-07  1.40948723e-07
  0.00000000e+00  0.00000000e+00  0.00000000e+00  2.91982049e-06]","[[ 9.26002714e-05  5.05378986e-03]
 [-2.02355247e-04  1.44412103e-03]]",[],0.0,0.0
1787152155.981505,2.1910413223954404,0.10858617779083087,1.9718033497253729,"[ 8.95066377e-06 -3.56058529e-07  0.00000000e+00  0.00000000e+00
  0.00000000e+00 -2.13322133e-07 -3.56058529e-07  8.59403936e-06
  0.00000000e+00  0.00000000e+00  0.00000000e+00  1.40948723e-07
  0.00000000e+00  0.00000000e+00  0.00000000e+00  0.00000000e+00
  0.00000000e+00  0.00000000e+00  0.00000000e+00  0.00000000e+00
  0.00000000e+00  0.00000000e+00  0.00000000e+00  0.00000000e+00
  0.00000000e+00  0.00000000e+00  0.00000000e+00  0.00000000e+00
  0.00000000e+00  0.00000000e+00 -2.13322133e-07  1.40948723e-07
  0.00000000e+00  0.00000000e+00  0.00000000e+00  2.91982049e-06]","[[ 9.26002714e-05  5.05378986e-03]
 [-2.02355247e-04  1.44412103e-03]]",[],0.0,0.0
1787152156.0362363,2.1910413223954404,0.10858617779083087,1.9718033497253729,"[ 8.95066377e-06 -3.56058529e-07  0.00000000e+00  0.00000000e+00
  0.00000000e+00 -2.13322133e-07 -3.56058529e-07  8.59403936e-06
  0.00000000e+00  0.00000000e+00  0.00000000e+00  1.40948723e-07
  0.00000000e+00  0.00000000e+00  0.00000000e+00  0.00000000e+00
  0.00000000e+00  0.00000000e+00  0.00000000e+00  0.00000000e+00
  0.00000000e+00  0.00000000e+00  0.00000000e+00  0.00000000e+00
  0.00000000e+00  0.00000000e+00  0.00000000e+00  0.00000000e+00
  0.00000000e+00  0.00000000e+00 -2.13322133e-07  1.40948723e-07
  0.00000000e+00  0.00000000e+00  0.00000000e+00  2.91982049e-06]","[[ 9.26002714e-05  5.05378986e-03]
 [-2.02355247e-04  1.44412103e-03]]",[],0.0,0.0
1787152156.0857477,2.1910413223954404,0.10858617779083087,1.9718033497253729,"[ 8.95066377e-06 -3.56058529e-07  0.00000000e+00  0.00000000e+00
  0.00000000e+00 -2.13322133e-07 -3.56058529e-07  8.59403936e-06
  0.00000000e+00  0.00000000e+00  0.00000000e+00  1.40948723e-07
  0.00000000e+00  0.00000000e+00  0.00000000e+00  0.00000000e+00
  0.00000000e+00  0.00000000e+00  0.00000000e+00  0.00000000e+00
  0.00000000e+00  0.00000000e+00  0.00000000e+00  0.00000000e+00
  0.00000000e+00  0.00000000e+00  0.00000000e+00  0.00000000e+00
  0.00000000e+00  0.00000000e+00 -2.13322133e-07  1.40948723e-07
  0.00000000e+00  0.00000000e+00  0.00000000e+00  2.91982049e-06]","[[ 9.26002714e-05  5.05378986e-03]
 [-2.02355247e-04  1.44412103e-03]]",[],0.0,0.0
1787152156.106594,2.1910413223954404,0.10858617779083087,1.9718033497253729,"[ 8.95066377e-06 -3.56058529e-07  0.00000000e+00  0.00000000e+00
  0.00000000e+00 -2.13322133e-07 -3.56058529e-07  8.59403936e-06
  0.00000000e+00  0.00000000e+00  0.00000000e+00  1.40948723e-07
  0.00000000e+00  0.00000000e+00  0.00000000e+00  0.00000000e+00
  0.00000000e+00  0.00000000e+00  0.00000000e+00  0.00000000e+00
  0.00000000e+00  0.00000000e+00  0.00000000e+00  0.00000000e+00
  0.00000000e+00  0.00000000e+00  0.00000000e+00  0.00000000e+00
  0.00000000e+00  0.00000000e+00 -2.13322133e-07  1.40948723e-07
  0.00000000e+00  0.00000000e+00  0.00000000e+00  2.91982049e-06]","[[ 9.26002714e-05  5.05378986e-03]
 [-2.02355247e-04  1.44412103e-03]]",[],0.0,0.0
1787152156.1890073,2.1910413223954404,0.10858617779083087,1.9718033497253729,"[ 8.95066377e-06 -3.56058529e-07  0.00000000e+00  0.00000000e+00
  0.00000000e+00 -2.13322133e-07 -3.56058529e-07  8.59403936e-06
  0.00000000e+00  0.00000000e+00  0.00000000e+00  1.40948723e-07
  0.00000000e+00  0.00000000e+00  0.00000000e+00  0.00000000e+00
  0.00000000e+00  0.00000000e+00  0.00000000e+00  0.00000000e+00
  0.00000000e+00  0.00000000e+00  0.00000000e+00  0.00000000e+00
  0.00000000e+00  0.00000000e+00  0.00000000e+00  0.00000000e+00
  0.00000000e+00  0.00000000e+00 -2.13322133e-07  1.40948723e-07
  0.00000000e+00  0.00000000e+00  0.00000000e+00  2.91982049e-06]","[[ 9.26002714e-05  5.05378986e-03]
 [-2.02355247e-04  1.44412103e-03]]",[],0.0,0.0
1787152156.2292814,2.1910413223954404,0.10858617779083087,1.9718033497253729,"[ 8.95066377e-06 -3.56058529e-07  0.00000000e+00  0.00000000e+00
  0.00000000e+00 -2.13322133e-07 -3.56058529e-07  8.59403936e-06
  0.00000000e+00  0.00000000e+00  0.00000000e+00  1.40948723e-07
  0.00000000e+00  0.00000000e+00  0.00000000e+00  0.00000000e+00
  0.00000000e+00  0.00000000e+00  0.00000000e+00  0.00000000e+00
  0.00000000e+00  0.00000000e+00  0.00000000e+00  0.00000000e+00
  0.00000000e+00  0.00000000e+00  0.00000000e+00  0.00000000e+00
  0.00000000e+00  0.00000000e+00 -2.13322133e-07  1.40948723e-07
  0.00000000e+00  0.00000000e+00  0.00000000e+00  2.91982049e-06]","[[ 9.26002714e-05  5.05378986e-03]
 [-2.02355247e-04  1.44412103e-03]]",[],0.0,0.0
1787152156.2880392,2.1910413223954404,0.10858617779083087,1.9718033497253729,"[ 8.95066377e-06 -3.56058529e-07  0.00000000e+00  0.00000000e+00
  0.00000000e+00 -2.13322133e-07 -3.56058529e-07  8.59403936e-06
  0.00000000e+00  0.00000000e+00  0.00000000e+00  1.40948723e-07
  0.00000000e+00  0.00000000e+00  0.00000000e+00  0.00000000e+00
  0.00000000e+00  0.00000000e+00  0.00000000e+00  0.00000000e+00
  0.00000000e+00  0.00000000e+00  0.00000000e+00  0.00000000e+00
  0.00000000e+00  0.00000000e+00  0.00000000e+00  0.00000000e+00
  0.00000000e+00  0.00000000e+00 -2.13322133e-07  1.40948723e-07
  0.00000000e+00  0.00000000e+00  0.00000000e+00  2.91982049e-06]","[[ 9.26002714e-05  5.05378986e-03]
 [-2.02355247e-04  1.44412103e-03]]",[],0.0,0.0
1787152156.3128116,2.1910413223954404,0.10858617779083087,1.9718033497253729,"[ 8.95066377e-06 -3.56058529e-07  0.00000000e+00  0.00000000e+00
  0.00000000e+00 -2.13322133e-07 -3.56058529e-07  8.59403936e-06
  0.00000000e+00  0.00000000e+00  0.00000000e+00  1.40948723e-07
  0.00000000e+00  0.00000000e+00  0.00000000e+00  0.00000000e+00
  0.00000000e+00  0.00000000e+00  0.00000000e+00  0.00000000e+00
  0.00000000e+00  0.00000000e+00  0.00000000e+00  0.00000000e+00
  0.00000000e+00  0.00000000e+00  0.00000000e+00  0.00000000e+00
  0.00000000e+00  0.00000000e+00 -2.13322133e-07  1.40948723e-07
  0.00000000e+00  0.00000000e+00  0.00000000e+00  2.91982049e-06]","[[ 9.26002714e-05  5.05378986e-03]
 [-2.02355247e-04  1.44412103e-03]]",[],0.0,0.0
1787152156.3679845,2.189080947805722,0.1073333008702913,1.9812922547101088,"[ 7.63539071e-06 -3.76631183e-07  0.00000000e+00  0.00000000e+00
  0.00000000e+00 -1.28725627e-07 -3.76631183e-07  7.49179571e-06
  0.00000000e+00  0.00000000e+00  0.00000000e+00  1.00250540e-08
  0.00000000e+00  0.00000000e+00  0.00000000e+00  0.00000000e+00
  0.00000000e+00  0.00000000e+00  0.00000000e+00  0.00000000e+00
  0.00000000e+00  0.00000000e+00  0.00000000e+00  0.00000000e+00
  0.00000000e+00  0.00000000e+00  0.00000000e+00  0.00000000e+00
  0.00000000e+00  0.00000000e+00 -1.28725627e-07  1.00250540e-08
  0.00000000e+00  0.00000000e+00  0.00000000e+00  2.95882599e-06]","[[ 8.02481369e-05  4.20591362e-03]
 [-1.77180017e-04  1.39788489e-03]]",[],0.0,0.0
1787152156.4317126,2.189080947805722,0.1073333008702913,1.9812922547101088,"[ 7.63539071e-06 -3.76631183e-07  0.00000000e+00  0.00000000e+00
  0.00000000e+00 -1.28725627e-07 -3.76631183e-07  7.49179571e-06
  0.00000000e+00  0.00000000e+00  0.00000000e+00  1.00250540e-08
  0.00000000e+00  0.00000000e+00  0.00000000e+00  0.00000000e+00
  0.00000000e+00  0.00000000e+00  0.00000000e+00  0.00000000e+00
  0.00000000e+00  0.00000000e+00  0.00000000e+00  0.00000000e+00
  0.00000000e+00  0.00000000e+00  0.00000000e+00  0.00000000e+00
  0.00000000e+00  0.00000000e+00 -1.28725627e-07  1.00250540e-08
  0.00000000e+00  0.00000000e+00  0.00000000e+00  2.95882599e-06]","[[ 8.02481369e-05  4.20591362e-03]
 [-1.77180017e-04  1.39788489e-03]]",[],0.0,0.0
1787152156.490785,2.189080947805722,0.1073333008702913,1.9812922547101088,"[ 7.63539071e-06 -3.76631183e-07  0.00000000e+00  0.00000000e+00
  0.00000000e+00 -1.28725627e-07 -3.76631183e-07  7.49179571e-06
  0.00000000e+00  0.00000000e+00  0.00000000e+00  1.00250540e-08
  0.00000000e+00  0.00000000e+00  0.00000000e+00  0.00000000e+00
  0.00000000e+00  0.00000000e+00  0.00000000e+00  0.00000000e+00
  0.00000000e+00  0.00000000e+00  0.00000000e+00  0.00000000e+00
  0.00000000e+00  0.00000000e+00  0.00000000e+00  0.00000000e+00
  0.00000000e+00  0.00000000e+00 -1.28725627e-07  1.00250540e-08
  0.00000000e+00  0.00000000e+00  0.00000000e+00  2.95882599e-06]","[[ 8.02481369e-05  4.20591362e-03]
 [-1.77180017e-04  1.39788489e-03]]",[],0.0,0.0
1787152156.5047767,2.189080947805722,0.1073333008702913,1.9812922547101088,"[ 7.63539071e-06 -3.76631183e-07  0.00000000e+00  0.00000000e+00
  0.00000000e+00 -1.28725627e-07 -3.76631183e-07  7.49179571e-06
  0.00000000e+00  0.00000000e+00  0.00000000e+00  1.00250540e-08
  0.00000000e+00  0.00000000e+00  0.00000000e+00  0.00000000e+00
  0.00000000e+00  0.00000000e+00  0.00000000e+00  0.00000000e+00
  0.00000000e+00  0.00000000e+00  0.00000000e+00  0.00000000e+00
  0.00000000e+00  0.00000000e+00  0.00000000e+00  0.00000000e+00
  0.00000000e+00  0.00000000e+00 -1.28725627e-07  1.00250540e-08
  0.00000000e+00  0.00000000e+00  0.00000000e+00  2.95882599e-06]","[[ 8.02481369e-05  4.20591362e-03]
 [-1.77180017e-04  1.39788489e-03]]",[],0.0,0.0
1787152156.5925806,2.189080947805722,0.1073333008702913,1.9812922547101088,"[ 7.63539071e-06 -3.76631183e-07  0.00000000e+00  0.00000000e+00
  0.00000000e+00 -1.28725627e-07 -3.76631183e-07  7.49179571e-06
  0.00000000e+00  0.00000000e+00  0.00000000e+00  1.00250540e-08
  0.00000000e+00  0.00000000e+00  0.00000000e+00  0.00000000e+00
  0.00000000e+00  0.00000000e+00  0.00000000e+00  0.00000000e+00
  0.00000000e+00  0.00000000e+00  0.00000000e+00  0.00000000e+00
  0.00000000e+00  0.00000000e+00  0.00000000e+00  0.00000000e+00
  0.00000000e+00  0.00000000e+00 -1.28725627e-07  1.00250540e-08
  0.00000000e+00  0.00000000e+00  0.00000000e+00  2.95882599e-06]","[[ 8.02481369e-05  4.20591362e-03]
 [-1.77180017e-04  1.39788489e-03]]",[],0.0,0.0
1787152156.611379,2.189080947805722,0.1073333008702913,1.9812922547101088,"[ 7.63539071e-06 -3.76631183e-07  0.00000000e+00  0.00000000e+00
  0.00000000e+00 -1.28725627e-07 -3.76631183e-07  7.49179571e-06
  0.00000000e+00  0.00000000e+00  0.00000000e+00  1.00250540e-08
  0.00000000e+00  0.00000000e+00  0.00000000e+00  0.00000000e+00
  0.00000000e+00  0.00000000e+00  0.00000000e+00  0.00000000e+00
  0.00000000e+00  0.00000000e+00  0.00000000e+00  0.00000000e+00
  0.00000000e+00  0.00000000e+00  0.00000000e+00  0.00000000e+00
  0.00000000e+00  0.00000000e+00 -1.28725627e-07  1.00250540e-08
  0.00000000e+00  0.00000000e+00  0.00000000e+00  2.95882599e-06]","[[ 8.02481369e-05  4.20591362e-03]
 [-1.77180017e-04  1.39788489e-03]]",[],0.0,0.0
1787152156.693419,2.189080947805722,0.1073333008702913,1.9812922547101088,"[ 7.63539071e-06 -3.76631183e-07  0.00000000e+00  0.00000000e+00
  0.00000000e+00 -1.28725627e-07 -3.76631183e-07  7.49179571e-06
  0.00000000e+00  0.00000000e+00  0.00000000e+00  1.00250540e-08
  0.00000000e+00  0.00000000e+00  0.00000000e+00  0.00000000e+00
  0.00000000e+00  0.00000000e+00  0.00000000e+00  0.00000000e+00
  0.00000000e+00  0.00000000e+00  0.00000000e+00  0.00000000e+00
  0.00000000e+00  0.00000000e+00  0.00000000e+00  0.00000000e+00
  0.00000000e+00  0.00000000e+00 -1.28725627e-07  1.00250540e-08
  0.00000000e+00  0.00000000e+00  0.00000000e+00  2.95882599e-06]","[[ 8.02481369e-05  4.20591362e-03]
 [-1.77180017e-04  1.39788489e-03]]",[],0.0,0.0
1787152156.7027087,2.189080947805722,0.1073333008702913,1.9812922547101088,"[ 7.63539071e-06 -3.76631183e-07  0.00000000e+00  0.00000000e+00
  0.00000000e+00 -1.28725627e-07 -3.76631183e-07  7.49179571e-06
  0.00000000e+00  0.00000000e+00  0.00000000e+00  1.00250540e-08
  0.00000000e+00  0.00000000e+00  0.00000000e+00  0.00000000e+00
  0.00000000e+00  0.00000000e+00  0.00000000e+00  0.00000000e+00
  0.00000000e+00  0.00000000e+00  0.00000000e+00  0.00000000e+00
  0.00000000e+00  0.00000000e+00  0.00000000e+00  0.00000000e+00
  0.00000000e+00  0.00000000e+00 -1.28725627e-07  1.00250540e-08
  0.00000000e+00  0.00000000e+00  0.00000000e+00  2.95882599e-06]","[[ 8.02481369e-05  4.20591362e-03]
 [-1.77180017e-04  1.39788489e-03]]",[],0.0,0.0
1787152156.7521224,2.189080947805722,0.1073333008702913,1.9812922547101088,"[ 7.63539071e-06 -3.76631183e-07  0.00000000e+00  0.00000000e+00
  0.00000000e+00 -1.28725627e-07 -3.76631183e-07  7.49179571e-06
  0.00000000e+00  0.00000000e+00  0.00000000e+00  1.00250540e-08
  0.00000000e+00  0.00000000e+00  0.00000000e+00  0.00000000e+00
  0.00000000e+00  0.00000000e+00  0.00000000e+00  0.00000000e+00
  0.00000000e+00  0.00000000e+00  0.00000000e+00  0.00000000e+00
  0.00000000e+00  0.00000000e+00  0.00000000e+00  0.00000000e+00
  0.00000000e+00  0.00000000e+00 -1.28725627e-07  1.00250540e-08
  0.00000000e+00  0.00000000e+00  0.00000000e+00  2.95882599e-06]","[[ 8.02481369e-05  4.20591362e-03]
 [-1.77180017e-04  1.39788489e-03]]",[],0.0,0.0
1787152156.802244,2.189080947805722,0.1073333008702913,1.9812922547101088,"[ 7.63539071e-06 -3.76631183e-07  0.00000000e+00  0.00000000e+00
  0.00000000e+00 -1.28725627e-07 -3.76631183e-07  7.49179571e-06
  0.00000000e+00  0.00000000e+00  0.00000000e+00  1.00250540e-08
  0.00000000e+00  0.00000000e+00  0.00000000e+00  0.00000000e+00
  0.00000000e+00  0.00000000e+00  0.00000000e+00  0.00000000e+00
  0.00000000e+00  0.00000000e+00  0.00000000e+00  0.00000000e+00
  0.00000000e+00  0.00000000e+00  0.00000000e+00  0.00000000e+00
  0.00000000e+00  0.00000000e+00 -1.28725627e-07  1.00250540e-08
  0.00000000e+00  0.00000000e+00  0.00000000e+00  2.95882599e-06]","[[ 8.02481369e-05  4.20591362e-03]
 [-1.77180017e-04  1.39788489e-03]]",[],0.0,0.0
1787152156.8524466,2.189080947805722,0.1073333008702913,1.9812922547101088,"[ 7.63539071e-06 -3.76631183e-07  0.00000000e+00  0.00000000e+00
  0.00000000e+00 -1.28725627e-07 -3.76631183e-07  7.49179571e-06
  0.00000000e+00  0.00000000e+00  0.00000000e+00  1.00250540e-08
  0.00000000e+00  0.00000000e+00  0.00000000e+00  0.00000000e+00
  0.00000000e+00  0.00000000e+00  0.00000000e+00  0.00000000e+00
  0.00000000e+00  0.00000000e+00  0.00000000e+00  0.00000000e+00
  0.00000000e+00  0.00000000e+00  0.00000000e+00  0.00000000e+00
  0.00000000e+00  0.00000000e+00 -1.28725627e-07  1.00250540e-08
  0.00000000e+00  0.00000000e+00  0.00000000e+00  2.95882599e-06]","[[ 8.02481369e-05  4.20591362e-03]
 [-1.77180017e-04  1.39788489e-03]]",[],0.0,0.0
1787152156.904047,2.189080947805722,0.1073333008702913,1.9812922547101088,"[ 7.63539071e-06 -3.76631183e-07  0.00000000e+00  0.00000000e+00
  0.00000000e+00 -1.28725627e-07 -3.76631183e-07  7.49179571e-06
  0.00000000e+00  0.00000000e+00  0.00000000e+00  1.00250540e-08
  0.00000000e+00  0.00000000e+00  0.00000000e+00  0.00000000e+00
  0.00000000e+00  0.00000000e+00  0.00000000e+00  0.00000000e+00
  0.00000000e+00  0.00000000e+00  0.00000000e+00  0.00000000e+00
  0.00000000e+00  0.00000000e+00  0.00000000e+00  0.00000000e+00
  0.00000000e+00  0.00000000e+00 -1.28725627e-07  1.00250540e-08
  0.00000000e+00  0.00000000e+00  0.00000000e+00  2.95882599e-06]","[[ 8.02481369e-05  4.20591362e-03]
 [-1.77180017e-04  1.39788489e-03]]",[],0.0,0.0
1787152156.9550176,2.189080947805722,0.1073333008702913,1.9812922547101088,"[ 7.63539071e-06 -3.76631183e-07  0.00000000e+00  0.00000000e+00
  0.00000000e+00 -1.28725627e-07 -3.76631183e-07  7.49179571e-06
  0.00000000e+00  0.00000000e+00  0.00000000e+00  1.00250540e-08
  0.00000000e+00  0.00000000e+00  0.00000000e+00  0.00000000e+00
  0.00000000e+00  0.00000000e+00  0.00000000e+00  0.00000000e+00
  0.00000000e+00  0.00000000e+00  0.00000000e+00  0.00000000e+00
  0.00000000e+00  0.00000000e+00  0.00000000e+00  0.00000000e+00
  0.00000000e+00  0.00000000e+00 -1.28725627e-07  1.00250540e-08
  0.00000000e+00  0.00000000e+00  0.00000000e+00  2.95882599e-06]","[[ 8.02481369e-05  4.20591362e-03]
 [-1.77180017e-04  1.39788489e-03]]",[],0.0,0.0
1787152157.0033007,2.189080947805722,0.1073333008702913,1.9812922547101088,"[ 7.63539071e-06 -3.76631183e-07  0.00000000e+00  0.00000000e+00
  0.00000000e+00 -1.28725627e-07 -3.76631183e-07  7.49179571e-06
  0.00000000e+00  0.00000000e+00  0.00000000e+00  1.00250540e-08
  0.00000000e+00  0.00000000e+00  0.00000000e+00  0.00000000e+00
  0.00000000e+00  0.00000000e+00  0.00000000e+00  0.00000000e+00
  0.00000000e+00  0.00000000e+00  0.00000000e+00  0.00000000e+00
  0.00000000e+00  0.00000000e+00  0.00000000e+00  0.00000000e+00
  0.00000000e+00  0.00000000e+00 -1.28725627e-07  1.00250540e-08
  0.00000000e+00  0.00000000e+00  0.00000000e+00  2.95882599e-06]","[[ 8.02481369e-05  4.20591362e-03]
 [-1.77180017e-04  1.39788489e-03]]",[],0.0,0.0
1787152157.052209,2.189080947805722,0.1073333008702913,1.9812922547101088,"[ 7.63539071e-06 -3.76631183e-07  0.00000000e+00  0.00000000e+00
  0.00000000e+00 -1.28725627e-07 -3.76631183e-07  7.49179571e-06
  0.00000000e+00  0.00000000e+00  0.00000000e+00  1.00250540e-08
  0.00000000e+00  0.00000000e+00  0.00000000e+00  0.00000000e+00
  0.00000000e+00  0.00000000e+00  0.00000000e+00  0.00000000e+00
  0.00000000e+00  0.00000000e+00  0.00000000e+00  0.00000000e+00
  0.00000000e+00  0.00000000e+00  0.00000000e+00  0.00000000e+00
  0.00000000e+00  0.00000000e+00 -1.28725627e-07  1.00250540e-08
  0.00000000e+00  0.00000000e+00  0.00000000e+00  2.95882599e-06]","[[ 8.02481369e-05  4.20591362e-03]
 [-1.77180017e-04  1.39788489e-03]]",[],0.0,0.0
1787152157.102358,2.189080947805722,0.1073333008702913,1.9812922547101088,"[ 7.63539071e-06 -3.76631183e-07  0.00000000e+00  0.00000000e+00
  0.00000000e+00 -1.28725627e-07 -3.76631183e-07  7.49179571e-06
  0.00000000e+00  0.00000000e+00  0.00000000e+00  1.00250540e-08
  0.00000000e+00  0.00000000e+00  0.00000000e+00  0.00000000e+00
  0.00000000e+00  0.00000000e+00  0.00000000e+00  0.00000000e+00
  0.00000000e+00  0.00000000e+00  0.00000000e+00  0.00000000e+00
  0.00000000e+00  0.00000000e+00  0.00000000e+00  0.00000000e+00
  0.00000000e+00  0.00000000e+00 -1.28725627e-07  1.00250540e-08
  0.00000000e+00  0.00000000e+00  0.00000000e+00  2.95882599e-06]","[[ 8.02481369e-05  4.20591362e-03]
 [-1.77180017e-04  1.39788489e-03]]",[],0.0,0.0
1787152157.1523533,2.189080947805722,0.1073333008702913,1.9812922547101088,"[ 7.63539071e-06 -3.76631183e-07  0.00000000e+00  0.00000000e+00
  0.00000000e+00 -1.28725627e-07 -3.76631183e-07  7.49179571e-06
  0.00000000e+00  0.00000000e+00  0.00000000e+00  1.00250540e-08
  0.00000000e+00  0.00000000e+00  0.00000000e+00  0.00000000e+00
  0.00000000e+00  0.00000000e+00  0.00000000e+00  0.00000000e+00
  0.00000000e+00  0.00000000e+00  0.00000000e+00  0.00000000e+00
  0.00000000e+00  0.00000000e+00  0.00000000e+00  0.00000000e+00
  0.00000000e+00  0.00000000e+00 -1.28725627e-07  1.00250540e-08
  0.00000000e+00  0.00000000e+00  0.00000000e+00  2.95882599e-06]","[[ 8.02481369e-05  4.20591362e-03]
 [-1.77180017e-04  1.39788489e-03]]",[],0.0,0.0
1787152157.2020626,2.189080947805722,0.1073333008702913,1.9812922547101088,"[ 7.63539071e-06 -3.76631183e-07  0.00000000e+00  0.00000000e+00
  0.00000000e+00 -1.28725627e-07 -3.76631183e-07  7.49179571e-06
  0.00000000e+00  0.00000000e+00  0.00000000e+00  1.00250540e-08
  0.00000000e+00  0.00000000e+00  0.00000000e+00  0.00000000e+00
  0.00000000e+00  0.00000000e+00  0.00000000e+00  0.00000000e+00
  0.00000000e+00  0.00000000e+00  0.00000000e+00  0.00000000e+00
  0.00000000e+00  0.00000000e+00  0.00000000e+00  0.00000000e+00
  0.00000000e+00  0.00000000e+00 -1.28725627e-07  1.00250540e-08
  0.00000000e+00  0.00000000e+00  0.00000000e+00  2.95882599e-06]","[[ 8.02481369e-05  4.20591362e-03]
 [-1.77180017e-04  1.39788489e-03]]",[],0.0,0.0
1787152157.256013,2.189080947805722,0.1073333008702913,1.9812922547101088,"[ 7.63539071e-06 -3.76631183e-07  0.00000000e+00  0.00000000e+00
  0.00000000e+00 -1.28725627e-07 -3.76631183e-07  7.49179571e-06
  0.00000000e+00  0.00000000e+00  0.00000000e+00  1.00250540e-08
  0.00000000e+00  0.00000000e+00  0.00000000e+00  0.00000000e+00
  0.00000000e+00  0.00000000e+00  0.00000000e+00  0.00000000e+00
  0.00000000e+00  0.00000000e+00  0.00000000e+00  0.00000000e+00
  0.00000000e+00  0.00000000e+00  0.00000000e+00  0.00000000e+00
  0.00000000e+00  0.00000000e+00 -1.28725627e-07  1.00250540e-08
  0.00000000e+00  0.00000000e+00  0.00000000e+00  2.95882599e-06]","[[ 8.02481369e-05  4.20591362e-03]
 [-1.77180017e-04  1.39788489e-03]]",[],0.0,0.0
1787152157.3029945,2.189080947805722,0.1073333008702913,1.9812922547101088,"[ 7.63539071e-06 -3.76631183e-07  0.00000000e+00  0.00000000e+00
  0.00000000e+00 -1.28725627e-07 -3.76631183e-07  7.49179571e-06
  0.00000000e+00  0.00000000e+00  0.00000000e+00  1.00250540e-08
  0.00000000e+00  0.00000000e+00  0.00000000e+00  0.00000000e+00
  0.00000000e+00  0.00000000e+00  0.00000000e+00  0.00000000e+00
  0.00000000e+00  0.00000000e+00  0.00000000e+00  0.00000000e+00
  0.00000000e+00  0.00000000e+00  0.00000000e+00  0.00000000e+00
  0.00000000e+00  0.00000000e+00 -1.28725627e-07  1.00250540e-08
  0.00000000e+00  0.00000000e+00  0.00000000e+00  2.95882599e-06]","[[ 8.02481369e-05  4.20591362e-03]
 [-1.77180017e-04  1.39788489e-03]]",[],0.0,0.0
1787152157.3532023,2.189080947805722,0.1073333008702913,1.9812922547101088,"[ 7.63539071e-06 -3.76631183e-07  0.00000000e+00  0.00000000e+00
  0.00000000e+00 -1.28725627e-07 -3.76631183e-07  7.49179571e-06
  0.00000000e+00  0.00000000e+00  0.00000000e+00  1.00250540e-08
  0.00000000e+00  0.00000000e+00  0.00000000e+00  0.00000000e+00
  0.00000000e+00  0.00000000e+00  0.00000000e+00  0.00000000e+00
  0.00000000e+00  0.00000000e+00  0.00000000e+00  0.00000000e+00
  0.00000000e+00  0.00000000e+00  0.00000000e+00  0.00000000e+00
  0.00000000e+00  0.00000000e+00 -1.28725627e-07  1.00250540e-08
  0.00000000e+00  0.00000000e+00  0.00000000e+00  2.95882599e-06]","[[ 8.02481369e-05  4.20591362e-03]
 [-1.77180017e-04  1.39788489e-03]]",[],0.0,0.0
1787152157.4057393,2.189080947805722,0.1073333008702913,1.9812922547101088,"[ 7.63539071e-06 -3.76631183e-07  0.00000000e+00  0.00000000e+00
  0.00000000e+00 -1.28725627e-07 -3.76631183e-07  7.49179571e-06
  0.00000000e+00  0.00000000e+00  0.00000000e+00  1.00250540e-08
  0.00000000e+00  0.00000000e+00  0.00000000e+00  0.00000000e+00
  0.00000000e+00  0.00000000e+00  0.00000000e+00  0.00000000e+00
  0.00000000e+00  0.00000000e+00  0.00000000e+00  0.00000000e+00
  0.00000000e+00  0.00000000e+00  0.00000000e+00  0.00000000e+00
  0.00000000e+00  0.00000000e+00 -1.28725627e-07  1.00250540e-08
  0.00000000e+00  0.00000000e+00  0.00000000e+00  2.95882599e-06]","[[ 8.02481369e-05  4.20591362e-03]
 [-1.77180017e-04  1.39788489e-03]]",[],0.0,0.0
1787152157.4558082,2.189531246738624,0.10664152805702908,1.9798817557141026,"[ 6.72612849e-06 -4.30352250e-07  0.00000000e+00  0.00000000e+00
  0.00000000e+00 -2.01066591e-07 -4.30352250e-07  6.75030744e-06
  0.00000000e+00  0.00000000e+00  0.00000000e+00  3.79729677e-09
  0.00000000e+00  0.00000000e+00  0.00000000e+00  0.00000000e+00
  0.00000000e+00  0.00000000e+00  0.00000000e+00  0.00000000e+00
  0.00000000e+00  0.00000000e+00  0.00000000e+00  0.00000000e+00
  0.00000000e+00  0.00000000e+00  0.00000000e+00  0.00000000e+00
  0.00000000e+00  0.00000000e+00 -2.01066591e-07  3.79729677e-09
  0.00000000e+00  0.00000000e+00  0.00000000e+00  3.08191634e-06]","[[ 7.28557122e-05  3.82961674e-03]
 [-1.60538577e-04  1.21651284e-03]]",[],0.0,0.0
1787152157.506177,2.189531246738624,0.10664152805702908,1.9798817557141026,"[ 6.72612849e-06 -4.30352250e-07  0.00000000e+00  0.00000000e+00
  0.00000000e+00 -2.01066591e-07 -4.30352250e-07  6.75030744e-06
  0.00000000e+00  0.00000000e+00  0.00000000e+00  3.79729677e-09
  0.00000000e+00  0.00000000e+00  0.00000000e+00  0.00000000e+00
  0.00000000e+00  0.00000000e+00  0.00000000e+00  0.00000000e+00
  0.00000000e+00  0.00000000e+00  0.00000000e+00  0.00000000e+00
  0.00000000e+00  0.00000000e+00  0.00000000e+00  0.00000000e+00
  0.00000000e+00  0.00000000e+00 -2.01066591e-07  3.79729677e-09
  0.00000000e+00  0.00000000e+00  0.00000000e+00  3.08191634e-06]","[[ 7.28557122e-05  3.82961674e-03]
 [-1.60538577e-04  1.21651284e-03]]",[],0.0,0.0
1787152157.552417,2.189531246738624,0.10664152805702908,1.9798817557141026,"[ 6.72612849e-06 -4.30352250e-07  0.00000000e+00  0.00000000e+00
  0.00000000e+00 -2.01066591e-07 -4.30352250e-07  6.75030744e-06
  0.00000000e+00  0.00000000e+00  0.00000000e+00  3.79729677e-09
  0.00000000e+00  0.00000000e+00  0.00000000e+00  0.00000000e+00
  0.00000000e+00  0.00000000e+00  0.00000000e+00  0.00000000e+00
  0.00000000e+00  0.00000000e+00  0.00000000e+00  0.00000000e+00
  0.00000000e+00  0.00000000e+00  0.00000000e+00  0.00000000e+00
  0.00000000e+00  0.00000000e+00 -2.01066591e-07  3.79729677e-09
  0.00000000e+00  0.00000000e+00  0.00000000e+00  3.08191634e-06]","[[ 7.28557122e-05  3.82961674e-03]
 [-1.60538577e-04  1.21651284e-03]]",[],0.0,0.0
1787152157.6064224,2.189531246738624,0.10664152805702908,1.9798817557141026,"[ 6.72612849e-06 -4.30352250e-07  0.00000000e+00  0.00000000e+00
  0.00000000e+00 -2.01066591e-07 -4.30352250e-07  6.75030744e-06
  0.00000000e+00  0.00000000e+00  0.00000000e+00  3.79729677e-09
  0.00000000e+00  0.00000000e+00  0.00000000e+00  0.00000000e+00
  0.00000000e+00  0.00000000e+00  0.00000000e+00  0.00000000e+00
  0.00000000e+00  0.00000000e+00  0.00000000e+00  0.00000000e+00
  0.00000000e+00  0.00000000e+00  0.00000000e+00  0.00000000e+00
  0.00000000e+00  0.00000000e+00 -2.01066591e-07  3.79729677e-09
  0.00000000e+00  0.00000000e+00  0.00000000e+00  3.08191634e-06]","[[ 7.28557122e-05  3.82961674e-03]
 [-1.60538577e-04  1.21651284e-03]]",[],0.0,0.0
1787152157.6520865,2.189531246738624,0.10664152805702908,1.9798817557141026,"[ 6.72612849e-06 -4.30352250e-07  0.00000000e+00  0.00000000e+00
  0.00000000e+00 -2.01066591e-07 -4.30352250e-07  6.75030744e-06
  0.00000000e+00  0.00000000e+00  0.00000000e+00  3.79729677e-09
  0.00000000e+00  0.00000000e+00  0.00000000e+00  0.00000000e+00
  0.00000000e+00  0.00000000e+00  0.00000000e+00  0.00000000e+00
  0.00000000e+00  0.00000000e+00  0.00000000e+00  0.00000000e+00
  0.00000000e+00  0.00000000e+00  0.00000000e+00  0.00000000e+00
  0.00000000e+00  0.00000000e+00 -2.01066591e-07  3.79729677e-09
  0.00000000e+00  0.00000000e+00  0.00000000e+00  3.08191634e-06]","[[ 7.28557122e-05  3.82961674e-03]
 [-1.60538577e-04  1.21651284e-03]]",[],0.0,0.0
1787152157.7041256,2.189531246738624,0.10664152805702908,1.9798817557141026,"[ 6.72612849e-06 -4.30352250e-07  0.00000000e+00  0.00000000e+00
  0.00000000e+00 -2.01066591e-07 -4.30352250e-07  6.75030744e-06
  0.00000000e+00  0.00000000e+00  0.00000000e+00  3.79729677e-09
  0.00000000e+00  0.00000000e+00  0.00000000e+00  0.00000000e+00
  0.00000000e+00  0.00000000e+00  0.00000000e+00  0.00000000e+00
  0.00000000e+00  0.00000000e+00  0.00000000e+00  0.00000000e+00
  0.00000000e+00  0.00000000e+00  0.00000000e+00  0.00000000e+00
  0.00000000e+00  0.00000000e+00 -2.01066591e-07  3.79729677e-09
  0.00000000e+00  0.00000000e+00  0.00000000e+00  3.08191634e-06]","[[ 7.28557122e-05  3.82961674e-03]
 [-1.60538577e-04  1.21651284e-03]]",[],0.0,0.0
1787152157.7535493,2.189531246738624,0.10664152805702908,1.9798817557141026,"[ 6.72612849e-06 -4.30352250e-07  0.00000000e+00  0.00000000e+00
  0.00000000e+00 -2.01066591e-07 -4.30352250e-07  6.75030744e-06
  0.00000000e+00  0.00000000e+00  0.00000000e+00  3.79729677e-09
  0.00000000e+00  0.00000000e+00  0.00000000e+00  0.00000000e+00
  0.00000000e+00  0.00000000e+00  0.00000000e+00  0.00000000e+00
  0.00000000e+00  0.00000000e+00  0.00000000e+00  0.00000000e+00
  0.00000000e+00  0.00000000e+00  0.00000000e+00  0.00000000e+00
  0.00000000e+00  0.00000000e+00 -2.01066591e-07  3.79729677e-09
  0.00000000e+00  0.00000000e+00  0.00000000e+00  3.08191634e-06]","[[ 7.28557122e-05  3.82961674e-03]
 [-1.60538577e-04  1.21651284e-03]]",[],0.0,0.0
1787152157.8022268,2.189531246738624,0.10664152805702908,1.9798817557141026,"[ 6.72612849e-06 -4.30352250e-07  0.00000000e+00  0.00000000e+00
  0.00000000e+00 -2.01066591e-07 -4.30352250e-07  6.75030744e-06
  0.00000000e+00  0.00000000e+00  0.00000000e+00  3.79729677e-09
  0.00000000e+00  0.00000000e+00  0.00000000e+00  0.00000000e+00
  0.00000000e+00  0.00000000e+00  0.00000000e+00  0.00000000e+00
  0.00000000e+00  0.00000000e+00  0.00000000e+00  0.00000000e+00
  0.00000000e+00  0.00000000e+00  0.00000000e+00  0.00000000e+00
  0.00000000e+00  0.00000000e+00 -2.01066591e-07  3.79729677e-09
  0.00000000e+00  0.00000000e+00  0.00000000e+00  3.08191634e-06]","[[ 7.28557122e-05  3.82961674e-03]
 [-1.60538577e-04  1.21651284e-03]]",[],0.0,0.0
1787152157.8527296,2.189531246738624,0.10664152805702908,1.9798817557141026,"[ 6.72612849e-06 -4.30352250e-07  0.00000000e+00  0.00000000e+00
  0.00000000e+00 -2.01066591e-07 -4.30352250e-07  6.75030744e-06
  0.00000000e+00  0.00000000e+00  0.00000000e+00  3.79729677e-09
  0.00000000e+00  0.00000000e+00  0.00000000e+00  0.00000000e+00
  0.00000000e+00  0.00000000e+00  0.00000000e+00  0.00000000e+00
  0.00000000e+00  0.00000000e+00  0.00000000e+00  0.00000000e+00
  0.00000000e+00  0.00000000e+00  0.00000000e+00  0.00000000e+00
  0.00000000e+00  0.00000000e+00 -2.01066591e-07  3.79729677e-09
  0.00000000e+00  0.00000000e+00  0.00000000e+00  3.08191634e-06]","[[ 7.28557122e-05  3.82961674e-03]
 [-1.60538577e-04  1.21651284e-03]]",[],0.0,0.0
1787152157.902184,2.189531246738624,0.10664152805702908,1.9798817557141026,"[ 6.72612849e-06 -4.30352250e-07  0.00000000e+00  0.00000000e+00
  0.00000000e+00 -2.01066591e-07 -4.30352250e-07  6.75030744e-06
  0.00000000e+00  0.00000000e+00  0.00000000e+00  3.79729677e-09
  0.00000000e+00  0.00000000e+00  0.00000000e+00  0.00000000e+00
  0.00000000e+00  0.00000000e+00  0.00000000e+00  0.00000000e+00
  0.00000000e+00  0.00000000e+00  0.00000000e+00  0.00000000e+00
  0.00000000e+00  0.00000000e+00  0.00000000e+00  0.00000000e+00
  0.00000000e+00  0.00000000e+00 -2.01066591e-07  3.79729677e-09
  0.00000000e+00  0.00000000e+00  0.00000000e+00  3.08191634e-06]","[[ 7.28557122e-05  3.82961674e-03]
 [-1.60538577e-04  1.21651284e-03]]",[],0.0,0.0
1787152157.9574401,2.189531246738624,0.10664152805702908,1.9798817557141026,"[ 6.72612849e-06 -4.30352250e-07  0.00000000e+00  0.00000000e+00
  0.00000000e+00 -2.01066591e-07 -4.30352250e-07  6.75030744e-06
  0.00000000e+00  0.00000000e+00  0.00000000e+00  3.79729677e-09
  0.00000000e+00  0.00000000e+00  0.00000000e+00  0.00000000e+00
  0.00000000e+00  0.00000000e+00  0.00000000e+00  0.00000000e+00
  0.00000000e+00  0.00000000e+00  0.00000000e+00  0.00000000e+00
  0.00000000e+00  0.00000000e+00  0.00000000e+00  0.00000000e+00
  0.00000000e+00  0.00000000e+00 -2.01066591e-07  3.79729677e-09
  0.00000000e+00  0.00000000e+00  0.00000000e+00  3.08191634e-06]","[[ 7.28557122e-05  3.82961674e-03]
 [-1.60538577e-04  1.21651284e-03]]",[],0.0,0.0
1787152158.0023348,2.189531246738624,0.10664152805702908,1.9798817557141026,"[ 6.72612849e-06 -4.30352250e-07  0.00000000e+00  0.00000000e+00
  0.00000000e+00 -2.01066591e-07 -4.30352250e-07  6.75030744e-06
  0.00000000e+00  0.00000000e+00  0.00000000e+00  3.79729677e-09
  0.00000000e+00  0.00000000e+00  0.00000000e+00  0.00000000e+00
  0.00000000e+00  0.00000000e+00  0.00000000e+00  0.00000000e+00
  0.00000000e+00  0.00000000e+00  0.00000000e+00  0.00000000e+00
  0.00000000e+00  0.00000000e+00  0.00000000e+00  0.00000000e+00
  0.00000000e+00  0.00000000e+00 -2.01066591e-07  3.79729677e-09
  0.00000000e+00  0.00000000e+00  0.00000000e+00  3.08191634e-06]","[[ 7.28557122e-05  3.82961674e-03]
 [-1.60538577e-04  1.21651284e-03]]",[],0.0,0.0
1787152158.0535967,2.189531246738624,0.10664152805702908,1.9798817557141026,"[ 6.72612849e-06 -4.30352250e-07  0.00000000e+00  0.00000000e+00
  0.00000000e+00 -2.01066591e-07 -4.30352250e-07  6.75030744e-06
  0.00000000e+00  0.00000000e+00  0.00000000e+00  3.79729677e-09
  0.00000000e+00  0.00000000e+00  0.00000000e+00  0.00000000e+00
  0.00000000e+00  0.00000000e+00  0.00000000e+00  0.00000000e+00
  0.00000000e+00  0.00000000e+00  0.00000000e+00  0.00000000e+00
  0.00000000e+00  0.00000000e+00  0.00000000e+00  0.00000000e+00
  0.00000000e+00  0.00000000e+00 -2.01066591e-07  3.79729677e-09
  0.00000000e+00  0.00000000e+00  0.00000000e+00  3.08191634e-06]","[[ 7.28557122e-05  3.82961674e-03]
 [-1.60538577e-04  1.21651284e-03]]",[],0.0,0.0
1787152158.1022365,2.189531246738624,0.10664152805702908,1.9798817557141026,"[ 6.72612849e-06 -4.30352250e-07  0.00000000e+00  0.00000000e+00
  0.00000000e+00 -2.01066591e-07 -4.30352250e-07  6.75030744e-06
  0.00000000e+00  0.00000000e+00  0.00000000e+00  3.79729677e-09
  0.00000000e+00  0.00000000e+00  0.00000000e+00  0.00000000e+00
  0.00000000e+00  0.00000000e+00  0.00000000e+00  0.00000000e+00
  0.00000000e+00  0.00000000e+00  0.00000000e+00  0.00000000e+00
  0.00000000e+00  0.00000000e+00  0.00000000e+00  0.00000000e+00
  0.00000000e+00  0.00000000e+00 -2.01066591e-07  3.79729677e-09
  0.00000000e+00  0.00000000e+00  0.00000000e+00  3.08191634e-06]","[[ 7.28557122e-05  3.82961674e-03]
 [-1.60538577e-04  1.21651284e-03]]",[],0.0,0.0
1787152158.153616,2.189531246738624,0.10664152805702908,1.9798817557141026,"[ 6.72612849e-06 -4.30352250e-07  0.00000000e+00  0.00000000e+00
  0.00000000e+00 -2.01066591e-07 -4.30352250e-07  6.75030744e-06
  0.00000000e+00  0.00000000e+00  0.00000000e+00  3.79729677e-09
  0.00000000e+00  0.00000000e+00  0.00000000e+00  0.00000000e+00
  0.00000000e+00  0.00000000e+00  0.00000000e+00  0.00000000e+00
  0.00000000e+00  0.00000000e+00  0.00000000e+00  0.00000000e+00
  0.00000000e+00  0.00000000e+00  0.00000000e+00  0.00000000e+00
  0.00000000e+00  0.00000000e+00 -2.01066591e-07  3.79729677e-09
  0.00000000e+00  0.00000000e+00  0.00000000e+00  3.08191634e-06]","[[ 7.28557122e-05  3.82961674e-03]
 [-1.60538577e-04  1.21651284e-03]]",[],0.0,0.0
1787152158.2024972,2.189531246738624,0.10664152805702908,1.9798817557141026,"[ 6.72612849e-06 -4.30352250e-07  0.00000000e+00  0.00000000e+00
  0.00000000e+00 -2.01066591e-07 -4.30352250e-07  6.75030744e-06
  0.00000000e+00  0.00000000e+00  0.00000000e+00  3.79729677e-09
  0.00000000e+00  0.00000000e+00  0.00000000e+00  0.00000000e+00
  0.00000000e+00  0.00000000e+00  0.00000000e+00  0.00000000e+00
  0.00000000e+00  0.00000000e+00  0.00000000e+00  0.00000000e+00
  0.00000000e+00  0.00000000e+00  0.00000000e+00  0.00000000e+00
  0.00000000e+00  0.00000000e+00 -2.01066591e-07  3.79729677e-09
  0.00000000e+00  0.00000000e+00  0.00000000e+00  3.08191634e-06]","[[ 7.28557122e-05  3.82961674e-03]
 [-1.60538577e-04  1.21651284e-03]]",[],0.0,0.0
1787152158.2521236,2.189531246738624,0.10664152805702908,1.9798817557141026,"[ 6.72612849e-06 -4.30352250e-07  0.00000000e+00  0.00000000e+00
  0.00000000e+00 -2.01066591e-07 -4.30352250e-07  6.75030744e-06
  0.00000000e+00  0.00000000e+00  0.00000000e+00  3.79729677e-09
  0.00000000e+00  0.00000000e+00  0.00000000e+00  0.00000000e+00
  0.00000000e+00  0.00000000e+00  0.00000000e+00  0.00000000e+00
  0.00000000e+00  0.00000000e+00  0.00000000e+00  0.00000000e+00
  0.00000000e+00  0.00000000e+00  0.00000000e+00  0.00000000e+00
  0.00000000e+00  0.00000000e+00 -2.01066591e-07  3.79729677e-09
  0.00000000e+00  0.00000000e+00  0.00000000e+00  3.08191634e-06]","[[ 7.28557122e-05  3.82961674e-03]
 [-1.60538577e-04  1.21651284e-03]]",[],0.0,0.0
1787152158.3068326,2.189531246738624,0.10664152805702908,1.9798817557141026,"[ 6.72612849e-06 -4.30352250e-07  0.00000000e+00  0.00000000e+00
  0.00000000e+00 -2.01066591e-07 -4.30352250e-07  6.75030744e-06
  0.00000000e+00  0.00000000e+00  0.00000000e+00  3.79729677e-09
  0.00000000e+00  0.00000000e+00  0.00000000e+00  0.00000000e+00
  0.00000000e+00  0.00000000e+00  0.00000000e+00  0.00000000e+00
  0.00000000e+00  0.00000000e+00  0.00000000e+00  0.00000000e+00
  0.00000000e+00  0.00000000e+00  0.00000000e+00  0.00000000e+00
  0.00000000e+00  0.00000000e+00 -2.01066591e-07  3.79729677e-09
  0.00000000e+00  0.00000000e+00  0.00000000e+00  3.08191634e-06]","[[ 7.28557122e-05  3.82961674e-03]
 [-1.60538577e-04  1.21651284e-03]]",[],0.0,0.0
1787152158.3526223,2.189531246738624,0.10664152805702908,1.9798817557141026,"[ 6.72612849e-06 -4.30352250e-07  0.00000000e+00  0.00000000e+00
  0.00000000e+00 -2.01066591e-07 -4.30352250e-07  6.75030744e-06
  0.00000000e+00  0.00000000e+00  0.00000000e+00  3.79729677e-09
  0.00000000e+00  0.00000000e+00  0.00000000e+00  0.00000000e+00
  0.00000000e+00  0.00000000e+00  0.00000000e+00  0.00000000e+00
  0.00000000e+00  0.00000000e+00  0.00000000e+00  0.00000000e+00
  0.00000000e+00  0.00000000e+00  0.00000000e+00  0.00000000e+00
  0.00000000e+00  0.00000000e+00 -2.01066591e-07  3.79729677e-09
  0.00000000e+00  0.00000000e+00  0.00000000e+00  3.08191634e-06]","[[ 7.28557122e-05  3.82961674e-03]
 [-1.60538577e-04  1.21651284e-03]]",[],0.0,0.0
1787152158.410283,2.189531246738624,0.10664152805702908,1.9798817557141026,"[ 6.72612849e-06 -4.30352250e-07  0.00000000e+00  0.00000000e+00
  0.00000000e+00 -2.01066591e-07 -4.30352250e-07  6.75030744e-06
  0.00000000e+00  0.00000000e+00  0.00000000e+00  3.79729677e-09
  0.00000000e+00  0.00000000e+00  0.00000000e+00  0.00000000e+00
  0.00000000e+00  0.00000000e+00  0.00000000e+00  0.00000000e+00
  0.00000000e+00  0.00000000e+00  0.00000000e+00  0.00000000e+00
  0.00000000e+00  0.00000000e+00  0.00000000e+00  0.00000000e+00
  0.00000000e+00  0.00000000e+00 -2.01066591e-07  3.79729677e-09
  0.00000000e+00  0.00000000e+00  0.00000000e+00  3.08191634e-06]","[[ 7.28557122e-05  3.82961674e-03]
 [-1.60538577e-04  1.21651284e-03]]",[],0.0,0.0
1787152158.4523482,2.189531246738624,0.10664152805702908,1.9798817557141026,"[ 6.72612849e-06 -4.30352250e-07  0.00000000e+00  0.00000000e+00
  0.00000000e+00 -2.01066591e-07 -4.30352250e-07  6.75030744e-06
  0.00000000e+00  0.00000000e+00  0.00000000e+00  3.79729677e-09
  0.00000000e+00  0.00000000e+00  0.00000000e+00  0.00000000e+00
  0.00000000e+00  0.00000000e+00  0.00000000e+00  0.00000000e+00
  0.00000000e+00  0.00000000e+00  0.00000000e+00  0.00000000e+00
  0.00000000e+00  0.00000000e+00  0.00000000e+00  0.00000000e+00
  0.00000000e+00  0.00000000e+00 -2.01066591e-07  3.79729677e-09
  0.00000000e+00  0.00000000e+00  0.00000000e+00  3.08191634e-06]","[[ 7.28557122e-05  3.82961674e-03]
 [-1.60538577e-04  1.21651284e-03]]",[],0.0,0.0
1787152158.5050833,2.187888006878077,0.10280760353484115,1.97316930407079,"[ 5.99391659e-06 -4.52466891e-07  0.00000000e+00  0.00000000e+00
  0.00000000e+00 -6.12702419e-08 -4.52466891e-07  6.23205813e-06
  0.00000000e+00  0.00000000e+00  0.00000000e+00  1.12699573e-07
  0.00000000e+00  0.00000000e+00  0.00000000e+00  0.00000000e+00
  0.00000000e+00  0.00000000e+00  0.00000000e+00  0.00000000e+00
  0.00000000e+00  0.00000000e+00  0.00000000e+00  0.00000000e+00
  0.00000000e+00  0.00000000e+00  0.00000000e+00  0.00000000e+00
  0.00000000e+00  0.00000000e+00 -6.12702419e-08  1.12699573e-07
  0.00000000e+00  0.00000000e+00  0.00000000e+00  3.03224853e-06]","[[ 6.65310382e-05  3.20190596e-03]
 [-1.48726316e-04  9.12955151e-04]]",[],0.0,0.0
1787152158.5533183,2.187888006878077,0.10280760353484115,1.97316930407079,"[ 5.99391659e-06 -4.52466891e-07  0.00000000e+00  0.00000000e+00
  0.00000000e+00 -6.12702419e-08 -4.52466891e-07  6.23205813e-06
  0.00000000e+00  0.00000000e+00  0.00000000e+00  1.12699573e-07
  0.00000000e+00  0.00000000e+00  0.00000000e+00  0.00000000e+00
  0.00000000e+00  0.00000000e+00  0.00000000e+00  0.00000000e+00
  0.00000000e+00  0.00000000e+00  0.00000000e+00  0.00000000e+00
  0.00000000e+00  0.00000000e+00  0.00000000e+00  0.00000000e+00
  0.00000000e+00  0.00000000e+00 -6.12702419e-08  1.12699573e-07
  0.00000000e+00  0.00000000e+00  0.00000000e+00  3.03224853e-06]","[[ 6.65310382e-05  3.20190596e-03]
 [-1.48726316e-04  9.12955151e-04]]",[],0.0,0.0
1787152158.6023064,2.187888006878077,0.10280760353484115,1.97316930407079,"[ 5.99391659e-06 -4.52466891e-07  0.00000000e+00  0.00000000e+00
  0.00000000e+00 -6.12702419e-08 -4.52466891e-07  6.23205813e-06
  0.00000000e+00  0.00000000e+00  0.00000000e+00  1.12699573e-07
  0.00000000e+00  0.00000000e+00  0.00000000e+00  0.00000000e+00
  0.00000000e+00  0.00000000e+00  0.00000000e+00  0.00000000e+00
  0.00000000e+00  0.00000000e+00  0.00000000e+00  0.00000000e+00
  0.00000000e+00  0.00000000e+00  0.00000000e+00  0.00000000e+00
  0.00000000e+00  0.00000000e+00 -6.12702419e-08  1.12699573e-07
  0.00000000e+00  0.00000000e+00  0.00000000e+00  3.03224853e-06]","[[ 6.65310382e-05  3.20190596e-03]
 [-1.48726316e-04  9.12955151e-04]]",[],0.0,0.0
1787152158.6534872,2.187888006878077,0.10280760353484115,1.97316930407079,"[ 5.99391659e-06 -4.52466891e-07  0.00000000e+00  0.00000000e+00
  0.00000000e+00 -6.12702419e-08 -4.52466891e-07  6.23205813e-06
  0.00000000e+00  0.00000000e+00  0.00000000e+00  1.12699573e-07
  0.00000000e+00  0.00000000e+00  0.00000000e+00  0.00000000e+00
  0.00000000e+00  0.00000000e+00  0.00000000e+00  0.00000000e+00
  0.00000000e+00  0.00000000e+00  0.00000000e+00  0.00000000e+00
  0.00000000e+00  0.00000000e+00  0.00000000e+00  0.00000000e+00
  0.00000000e+00  0.00000000e+00 -6.12702419e-08  1.12699573e-07
  0.00000000e+00  0.00000000e+00  0.00000000e+00  3.03224853e-06]","[[ 6.65310382e-05  3.20190596e-03]
 [-1.48726316e-04  9.12955151e-04]]",[],0.0,0.0
1787152158.7031295,2.187888006878077,0.10280760353484115,1.97316930407079,"[ 5.99391659e-06 -4.52466891e-07  0.00000000e+00  0.00000000e+00
  0.00000000e+00 -6.12702419e-08 -4.52466891e-07  6.23205813e-06
  0.00000000e+00  0.00000000e+00  0.00000000e+00  1.12699573e-07
  0.00000000e+00  0.00000000e+00  0.00000000e+00  0.00000000e+00
  0.00000000e+00  0.00000000e+00  0.00000000e+00  0.00000000e+00
  0.00000000e+00  0.00000000e+00  0.00000000e+00  0.00000000e+00
  0.00000000e+00  0.00000000e+00  0.00000000e+00  0.00000000e+00
  0.00000000e+00  0.00000000e+00 -6.12702419e-08  1.12699573e-07
  0.00000000e+00  0.00000000e+00  0.00000000e+00  3.03224853e-06]","[[ 6.65310382e-05  3.20190596e-03]
 [-1.48726316e-04  9.12955151e-04]]",[],0.0,0.0
1787152158.7531624,2.187888006878077,0.10280760353484115,1.97316930407079,"[ 5.99391659e-06 -4.52466891e-07  0.00000000e+00  0.00000000e+00
  0.00000000e+00 -6.12702419e-08 -4.52466891e-07  6.23205813e-06
  0.00000000e+00  0.00000000e+00  0.00000000e+00  1.12699573e-07
  0.00000000e+00  0.00000000e+00  0.00000000e+00  0.00000000e+00
  0.00000000e+00  0.00000000e+00  0.00000000e+00  0.00000000e+00
  0.00000000e+00  0.00000000e+00  0.00000000e+00  0.00000000e+00
  0.00000000e+00  0.00000000e+00  0.00000000e+00  0.00000000e+00
  0.00000000e+00  0.00000000e+00 -6.12702419e-08  1.12699573e-07
  0.00000000e+00  0.00000000e+00  0.00000000e+00  3.03224853e-06]","[[ 6.65310382e-05  3.20190596e-03]
 [-1.48726316e-04  9.12955151e-04]]",[],0.0,0.0
1787152158.8023612,2.187888006878077,0.10280760353484115,1.97316930407079,"[ 5.99391659e-06 -4.52466891e-07  0.00000000e+00  0.00000000e+00
  0.00000000e+00 -6.12702419e-08 -4.52466891e-07  6.23205813e-06
  0.00000000e+00  0.00000000e+00  0.00000000e+00  1.12699573e-07
  0.00000000e+00  0.00000000e+00  0.00000000e+00  0.00000000e+00
  0.00000000e+00  0.00000000e+00  0.00000000e+00  0.00000000e+00
  0.00000000e+00  0.00000000e+00  0.00000000e+00  0.00000000e+00
  0.00000000e+00  0.00000000e+00  0.00000000e+00  0.00000000e+00
  0.00000000e+00  0.00000000e+00 -6.12702419e-08  1.12699573e-07
  0.00000000e+00  0.00000000e+00  0.00000000e+00  3.03224853e-06]","[[ 6.65310382e-05  3.20190596e-03]
 [-1.48726316e-04  9.12955151e-04]]",[],0.0,0.0
1787152158.8548956,2.187888006878077,0.10280760353484115,1.97316930407079,"[ 5.99391659e-06 -4.52466891e-07  0.00000000e+00  0.00000000e+00
  0.00000000e+00 -6.12702419e-08 -4.52466891e-07  6.23205813e-06
  0.00000000e+00  0.00000000e+00  0.00000000e+00  1.12699573e-07
  0.00000000e+00  0.00000000e+00  0.00000000e+00  0.00000000e+00
  0.00000000e+00  0.00000000e+00  0.00000000e+00  0.00000000e+00
  0.00000000e+00  0.00000000e+00  0.00000000e+00  0.00000000e+00
  0.00000000e+00  0.00000000e+00  0.00000000e+00  0.00000000e+00
  0.00000000e+00  0.00000000e+00 -6.12702419e-08  1.12699573e-07
  0.00000000e+00  0.00000000e+00  0.00000000e+00  3.03224853e-06]","[[ 6.65310382e-05  3.20190596e-03]
 [-1.48726316e-04  9.12955151e-04]]",[],0.0,0.0
1787152158.9021611,2.187888006878077,0.10280760353484115,1.97316930407079,"[ 5.99391659e-06 -4.52466891e-07  0.00000000e+00  0.00000000e+00
  0.00000000e+00 -6.12702419e-08 -4.52466891e-07  6.23205813e-06
  0.00000000e+00  0.00000000e+00  0.00000000e+00  1.12699573e-07
  0.00000000e+00  0.00000000e+00  0.00000000e+00  0.00000000e+00
  0.00000000e+00  0.00000000e+00  0.00000000e+00  0.00000000e+00
  0.00000000e+00  0.00000000e+00  0.00000000e+00  0.00000000e+00
  0.00000000e+00  0.00000000e+00  0.00000000e+00  0.00000000e+00
  0.00000000e+00  0.00000000e+00 -6.12702419e-08  1.12699573e-07
  0.00000000e+00  0.00000000e+00  0.00000000e+00  3.03224853e-06]","[[ 6.65310382e-05  3.20190596e-03]
 [-1.48726316e-04  9.12955151e-04]]",[],0.0,0.0
1787152158.9521585,2.187888006878077,0.10280760353484115,1.97316930407079,"[ 5.99391659e-06 -4.52466891e-07  0.00000000e+00  0.00000000e+00
  0.00000000e+00 -6.12702419e-08 -4.52466891e-07  6.23205813e-06
  0.00000000e+00  0.00000000e+00  0.00000000e+00  1.12699573e-07
  0.00000000e+00  0.00000000e+00  0.00000000e+00  0.00000000e+00
  0.00000000e+00  0.00000000e+00  0.00000000e+00  0.00000000e+00
  0.00000000e+00  0.00000000e+00  0.00000000e+00  0.00000000e+00
  0.00000000e+00  0.00000000e+00  0.00000000e+00  0.00000000e+00
  0.00000000e+00  0.00000000e+00 -6.12702419e-08  1.12699573e-07
  0.00000000e+00  0.00000000e+00  0.00000000e+00  3.03224853e-06]","[[ 6.65310382e-05  3.20190596e-03]
 [-1.48726316e-04  9.12955151e-04]]",[],0.0,0.0
1787152159.014835,2.187888006878077,0.10280760353484115,1.97316930407079,"[ 5.99391659e-06 -4.52466891e-07  0.00000000e+00  0.00000000e+00
  0.00000000e+00 -6.12702419e-08 -4.52466891e-07  6.23205813e-06
  0.00000000e+00  0.00000000e+00  0.00000000e+00  1.12699573e-07
  0.00000000e+00  0.00000000e+00  0.00000000e+00  0.00000000e+00
  0.00000000e+00  0.00000000e+00  0.00000000e+00  0.00000000e+00
  0.00000000e+00  0.00000000e+00  0.00000000e+00  0.00000000e+00
  0.00000000e+00  0.00000000e+00  0.00000000e+00  0.00000000e+00
  0.00000000e+00  0.00000000e+00 -6.12702419e-08  1.12699573e-07
  0.00000000e+00  0.00000000e+00  0.00000000e+00  3.03224853e-06]","[[ 6.65310382e-05  3.20190596e-03]
 [-1.48726316e-04  9.12955151e-04]]",[],0.0,0.0
1787152159.0521846,2.187888006878077,0.10280760353484115,1.97316930407079,"[ 5.99391659e-06 -4.52466891e-07  0.00000000e+00  0.00000000e+00
  0.00000000e+00 -6.12702419e-08 -4.52466891e-07  6.23205813e-06
  0.00000000e+00  0.00000000e+00  0.00000000e+00  1.12699573e-07
  0.00000000e+00  0.00000000e+00  0.00000000e+00  0.00000000e+00
  0.00000000e+00  0.00000000e+00  0.00000000e+00  0.00000000e+00
  0.00000000e+00  0.00000000e+00  0.00000000e+00  0.00000000e+00
  0.00000000e+00  0.00000000e+00  0.00000000e+00  0.00000000e+00
  0.00000000e+00  0.00000000e+00 -6.12702419e-08  1.12699573e-07
  0.00000000e+00  0.00000000e+00  0.00000000e+00  3.03224853e-06]","[[ 6.65310382e-05  3.20190596e-03]
 [-1.48726316e-04  9.12955151e-04]]",[],0.0,0.0
1787152159.1061006,2.187888006878077,0.10280760353484115,1.97316930407079,"[ 5.99391659e-06 -4.52466891e-07  0.00000000e+00  0.00000000e+00
  0.00000000e+00 -6.12702419e-08 -4.52466891e-07  6.23205813e-06
  0.00000000e+00  0.00000000e+00  0.00000000e+00  1.12699573e-07
  0.00000000e+00  0.00000000e+00  0.00000000e+00  0.00000000e+00
  0.00000000e+00  0.00000000e+00  0.00000000e+00  0.00000000e+00
  0.00000000e+00  0.00000000e+00  0.00000000e+00  0.00000000e+00
  0.00000000e+00  0.00000000e+00  0.00000000e+00  0.00000000e+00
  0.00000000e+00  0.00000000e+00 -6.12702419e-08  1.12699573e-07
  0.00000000e+00  0.00000000e+00  0.00000000e+00  3.03224853e-06]","[[ 6.65310382e-05  3.20190596e-03]
 [-1.48726316e-04  9.12955151e-04]]",[],0.0,0.0
1787152159.1528473,2.187888006878077,0.10280760353484115,1.97316930407079,"[ 5.99391659e-06 -4.52466891e-07  0.00000000e+00  0.00000000e+00
  0.00000000e+00 -6.12702419e-08 -4.52466891e-07  6.23205813e-06
  0.00000000e+00  0.00000000e+00  0.00000000e+00  1.12699573e-07
  0.00000000e+00  0.00000000e+00  0.00000000e+00  0.00000000e+00
  0.00000000e+00  0.00000000e+00  0.00000000e+00  0.00000000e+00
  0.00000000e+00  0.00000000e+00  0.00000000e+00  0.00000000e+00
  0.00000000e+00  0.00000000e+00  0.00000000e+00  0.00000000e+00
  0.00000000e+00  0.00000000e+00 -6.12702419e-08  1.12699573e-07
  0.00000000e+00  0.00000000e+00  0.00000000e+00  3.03224853e-06]","[[ 6.65310382e-05  3.20190596e-03]
 [-1.48726316e-04  9.12955151e-04]]",[],0.0,0.0
