time,x,y,yaw,cov_prop,K_gain,innovation,v_ekf,omega_ekf
1787133554.949049,1.5711279532149316,-1.722055632546371,0.9763318936662513,"[ 3.42768626e-06  2.59293380e-08  0.00000000e+00  0.00000000e+00
  0.00000000e+00 -5.48035009e-08  2.59293380e-08  3.40129086e-06
  0.00000000e+00  0.00000000e+00  0.00000000e+00  2.70517660e-07
  0.00000000e+00  0.00000000e+00  0.00000000e+00  0.00000000e+00
  0.00000000e+00  0.00000000e+00  0.00000000e+00  0.00000000e+00
  0.00000000e+00  0.00000000e+00  0.00000000e+00  0.00000000e+00
  0.00000000e+00  0.00000000e+00  0.00000000e+00  0.00000000e+00
  0.00000000e+00  0.00000000e+00 -5.48035009e-08  2.70517660e-07
  0.00000000e+00  0.00000000e+00  0.00000000e+00  1.58426662e-06]","[[-0.00690625  0.00173014]
 [-0.00513783 -0.00295852]]",[],0.0,0.0
1787133554.99814,1.5711279532149316,-1.722055632546371,0.9763318936662513,"[ 3.42768626e-06  2.59293380e-08  0.00000000e+00  0.00000000e+00
  0.00000000e+00 -5.48035009e-08  2.59293380e-08  3.40129086e-06
  0.00000000e+00  0.00000000e+00  0.00000000e+00  2.70517660e-07
  0.00000000e+00  0.00000000e+00  0.00000000e+00  0.00000000e+00
  0.00000000e+00  0.00000000e+00  0.00000000e+00  0.00000000e+00
  0.00000000e+00  0.00000000e+00  0.00000000e+00  0.00000000e+00
  0.00000000e+00  0.00000000e+00  0.00000000e+00  0.00000000e+00
  0.00000000e+00  0.00000000e+00 -5.48035009e-08  2.70517660e-07
  0.00000000e+00  0.00000000e+00  0.00000000e+00  1.58426662e-06]","[[-0.00690625  0.00173014]
 [-0.00513783 -0.00295852]]",[],0.0,0.0
1787133555.0523984,1.5711279532149316,-1.722055632546371,0.9763318936662513,"[ 3.42768626e-06  2.59293380e-08  0.00000000e+00  0.00000000e+00
  0.00000000e+00 -5.48035009e-08  2.59293380e-08  3.40129086e-06
  0.00000000e+00  0.00000000e+00  0.00000000e+00  2.70517660e-07
  0.00000000e+00  0.00000000e+00  0.00000000e+00  0.00000000e+00
  0.00000000e+00  0.00000000e+00  0.00000000e+00  0.00000000e+00
  0.00000000e+00  0.00000000e+00  0.00000000e+00  0.00000000e+00
  0.00000000e+00  0.00000000e+00  0.00000000e+00  0.00000000e+00
  0.00000000e+00  0.00000000e+00 -5.48035009e-08  2.70517660e-07
  0.00000000e+00  0.00000000e+00  0.00000000e+00  1.58426662e-06]","[[-0.00690625  0.00173014]
 [-0.00513783 -0.00295852]]",[],0.0,0.0
1787133555.1056187,1.5711279532149316,-1.722055632546371,0.9763318936662513,"[ 3.42768626e-06  2.59293380e-08  0.00000000e+00  0.00000000e+00
  0.00000000e+00 -5.48035009e-08  2.59293380e-08  3.40129086e-06
  0.00000000e+00  0.00000000e+00  0.00000000e+00  2.70517660e-07
  0.00000000e+00  0.00000000e+00  0.00000000e+00  0.00000000e+00
  0.00000000e+00  0.00000000e+00  0.00000000e+00  0.00000000e+00
  0.00000000e+00  0.00000000e+00  0.00000000e+00  0.00000000e+00
  0.00000000e+00  0.00000000e+00  0.00000000e+00  0.00000000e+00
  0.00000000e+00  0.00000000e+00 -5.48035009e-08  2.70517660e-07
  0.00000000e+00  0.00000000e+00  0.00000000e+00  1.58426662e-06]","[[-0.00690625  0.00173014]
 [-0.00513783 -0.00295852]]",[],0.0,0.0
1787133555.1573238,1.5711279532149316,-1.722055632546371,0.9763318936662513,"[ 3.42768626e-06  2.59293380e-08  0.00000000e+00  0.00000000e+00
  0.00000000e+00 -5.48035009e-08  2.59293380e-08  3.40129086e-06
  0.00000000e+00  0.00000000e+00  0.00000000e+00  2.70517660e-07
  0.00000000e+00  0.00000000e+00  0.00000000e+00  0.00000000e+00
  0.00000000e+00  0.00000000e+00  0.00000000e+00  0.00000000e+00
  0.00000000e+00  0.00000000e+00  0.00000000e+00  0.00000000e+00
  0.00000000e+00  0.00000000e+00  0.00000000e+00  0.00000000e+00
  0.00000000e+00  0.00000000e+00 -5.48035009e-08  2.70517660e-07
  0.00000000e+00  0.00000000e+00  0.00000000e+00  1.58426662e-06]","[[-0.00690625  0.00173014]
 [-0.00513783 -0.00295852]]",[],0.0,0.0
1787133555.270184,1.5711279532149316,-1.722055632546371,0.9763318936662513,"[ 3.42768626e-06  2.59293380e-08  0.00000000e+00  0.00000000e+00
  0.00000000e+00 -5.48035009e-08  2.59293380e-08  3.40129086e-06
  0.00000000e+00  0.00000000e+00  0.00000000e+00  2.70517660e-07
  0.00000000e+00  0.00000000e+00  0.00000000e+00  0.00000000e+00
  0.00000000e+00  0.00000000e+00  0.00000000e+00  0.00000000e+00
  0.00000000e+00  0.00000000e+00  0.00000000e+00  0.00000000e+00
  0.00000000e+00  0.00000000e+00  0.00000000e+00  0.00000000e+00
  0.00000000e+00  0.00000000e+00 -5.48035009e-08  2.70517660e-07
  0.00000000e+00  0.00000000e+00  0.00000000e+00  1.58426662e-06]","[[-0.00690625  0.00173014]
 [-0.00513783 -0.00295852]]",[],0.0,0.0
1787133555.3030448,1.5711279532149316,-1.722055632546371,0.9763318936662513,"[ 3.42768626e-06  2.59293380e-08  0.00000000e+00  0.00000000e+00
  0.00000000e+00 -5.48035009e-08  2.59293380e-08  3.40129086e-06
  0.00000000e+00  0.00000000e+00  0.00000000e+00  2.70517660e-07
  0.00000000e+00  0.00000000e+00  0.00000000e+00  0.00000000e+00
  0.00000000e+00  0.00000000e+00  0.00000000e+00  0.00000000e+00
  0.00000000e+00  0.00000000e+00  0.00000000e+00  0.00000000e+00
  0.00000000e+00  0.00000000e+00  0.00000000e+00  0.00000000e+00
  0.00000000e+00  0.00000000e+00 -5.48035009e-08  2.70517660e-07
  0.00000000e+00  0.00000000e+00  0.00000000e+00  1.58426662e-06]","[[-0.00690625  0.00173014]
 [-0.00513783 -0.00295852]]",[],0.0,0.0
1787133555.3569913,1.5711279532149316,-1.722055632546371,0.9763318936662513,"[ 3.42768626e-06  2.59293380e-08  0.00000000e+00  0.00000000e+00
  0.00000000e+00 -5.48035009e-08  2.59293380e-08  3.40129086e-06
  0.00000000e+00  0.00000000e+00  0.00000000e+00  2.70517660e-07
  0.00000000e+00  0.00000000e+00  0.00000000e+00  0.00000000e+00
  0.00000000e+00  0.00000000e+00  0.00000000e+00  0.00000000e+00
  0.00000000e+00  0.00000000e+00  0.00000000e+00  0.00000000e+00
  0.00000000e+00  0.00000000e+00  0.00000000e+00  0.00000000e+00
  0.00000000e+00  0.00000000e+00 -5.48035009e-08  2.70517660e-07
  0.00000000e+00  0.00000000e+00  0.00000000e+00  1.58426662e-06]","[[-0.00690625  0.00173014]
 [-0.00513783 -0.00295852]]",[],0.0,0.0
1787133555.4068222,1.5711279532149316,-1.722055632546371,0.9763318936662513,"[ 3.42768626e-06  2.59293380e-08  0.00000000e+00  0.00000000e+00
  0.00000000e+00 -5.48035009e-08  2.59293380e-08  3.40129086e-06
  0.00000000e+00  0.00000000e+00  0.00000000e+00  2.70517660e-07
  0.00000000e+00  0.00000000e+00  0.00000000e+00  0.00000000e+00
  0.00000000e+00  0.00000000e+00  0.00000000e+00  0.00000000e+00
  0.00000000e+00  0.00000000e+00  0.00000000e+00  0.00000000e+00
  0.00000000e+00  0.00000000e+00  0.00000000e+00  0.00000000e+00
  0.00000000e+00  0.00000000e+00 -5.48035009e-08  2.70517660e-07
  0.00000000e+00  0.00000000e+00  0.00000000e+00  1.58426662e-06]","[[-0.00690625  0.00173014]
 [-0.00513783 -0.00295852]]",[],0.0,0.0
1787133555.4486895,1.5711279532149316,-1.722055632546371,0.9763318936662513,"[ 3.42768626e-06  2.59293380e-08  0.00000000e+00  0.00000000e+00
  0.00000000e+00 -5.48035009e-08  2.59293380e-08  3.40129086e-06
  0.00000000e+00  0.00000000e+00  0.00000000e+00  2.70517660e-07
  0.00000000e+00  0.00000000e+00  0.00000000e+00  0.00000000e+00
  0.00000000e+00  0.00000000e+00  0.00000000e+00  0.00000000e+00
  0.00000000e+00  0.00000000e+00  0.00000000e+00  0.00000000e+00
  0.00000000e+00  0.00000000e+00  0.00000000e+00  0.00000000e+00
  0.00000000e+00  0.00000000e+00 -5.48035009e-08  2.70517660e-07
  0.00000000e+00  0.00000000e+00  0.00000000e+00  1.58426662e-06]","[[-0.00690625  0.00173014]
 [-0.00513783 -0.00295852]]",[],0.0,0.0
1787133555.4970207,1.5711279532149316,-1.722055632546371,0.9763318936662513,"[ 3.42768626e-06  2.59293380e-08  0.00000000e+00  0.00000000e+00
  0.00000000e+00 -5.48035009e-08  2.59293380e-08  3.40129086e-06
  0.00000000e+00  0.00000000e+00  0.00000000e+00  2.70517660e-07
  0.00000000e+00  0.00000000e+00  0.00000000e+00  0.00000000e+00
  0.00000000e+00  0.00000000e+00  0.00000000e+00  0.00000000e+00
  0.00000000e+00  0.00000000e+00  0.00000000e+00  0.00000000e+00
  0.00000000e+00  0.00000000e+00  0.00000000e+00  0.00000000e+00
  0.00000000e+00  0.00000000e+00 -5.48035009e-08  2.70517660e-07
  0.00000000e+00  0.00000000e+00  0.00000000e+00  1.58426662e-06]","[[-0.00690625  0.00173014]
 [-0.00513783 -0.00295852]]",[],0.0,0.0
1787133555.5581129,1.5711279532149316,-1.722055632546371,0.9763318936662513,"[ 3.42768626e-06  2.59293380e-08  0.00000000e+00  0.00000000e+00
  0.00000000e+00 -5.48035009e-08  2.59293380e-08  3.40129086e-06
  0.00000000e+00  0.00000000e+00  0.00000000e+00  2.70517660e-07
  0.00000000e+00  0.00000000e+00  0.00000000e+00  0.00000000e+00
  0.00000000e+00  0.00000000e+00  0.00000000e+00  0.00000000e+00
  0.00000000e+00  0.00000000e+00  0.00000000e+00  0.00000000e+00
  0.00000000e+00  0.00000000e+00  0.00000000e+00  0.00000000e+00
  0.00000000e+00  0.00000000e+00 -5.48035009e-08  2.70517660e-07
  0.00000000e+00  0.00000000e+00  0.00000000e+00  1.58426662e-06]","[[-0.00690625  0.00173014]
 [-0.00513783 -0.00295852]]",[],0.0,0.0
1787133555.6000395,1.5711279532149316,-1.722055632546371,0.9763318936662513,"[ 3.42768626e-06  2.59293380e-08  0.00000000e+00  0.00000000e+00
  0.00000000e+00 -5.48035009e-08  2.59293380e-08  3.40129086e-06
  0.00000000e+00  0.00000000e+00  0.00000000e+00  2.70517660e-07
  0.00000000e+00  0.00000000e+00  0.00000000e+00  0.00000000e+00
  0.00000000e+00  0.00000000e+00  0.00000000e+00  0.00000000e+00
  0.00000000e+00  0.00000000e+00  0.00000000e+00  0.00000000e+00
  0.00000000e+00  0.00000000e+00  0.00000000e+00  0.00000000e+00
  0.00000000e+00  0.00000000e+00 -5.48035009e-08  2.70517660e-07
  0.00000000e+00  0.00000000e+00  0.00000000e+00  1.58426662e-06]","[[-0.00690625  0.00173014]
 [-0.00513783 -0.00295852]]",[],0.0,0.0
1787133555.6501358,1.5711279532149316,-1.722055632546371,0.9763318936662513,"[ 3.42768626e-06  2.59293380e-08  0.00000000e+00  0.00000000e+00
  0.00000000e+00 -5.48035009e-08  2.59293380e-08  3.40129086e-06
  0.00000000e+00  0.00000000e+00  0.00000000e+00  2.70517660e-07
  0.00000000e+00  0.00000000e+00  0.00000000e+00  0.00000000e+00
  0.00000000e+00  0.00000000e+00  0.00000000e+00  0.00000000e+00
  0.00000000e+00  0.00000000e+00  0.00000000e+00  0.00000000e+00
  0.00000000e+00  0.00000000e+00  0.00000000e+00  0.00000000e+00
  0.00000000e+00  0.00000000e+00 -5.48035009e-08  2.70517660e-07
  0.00000000e+00  0.00000000e+00  0.00000000e+00  1.58426662e-06]","[[-0.00690625  0.00173014]
 [-0.00513783 -0.00295852]]",[],0.0,0.0
1787133555.6961825,1.5711279532149316,-1.722055632546371,0.9763318936662513,"[ 3.42768626e-06  2.59293380e-08  0.00000000e+00  0.00000000e+00
  0.00000000e+00 -5.48035009e-08  2.59293380e-08  3.40129086e-06
  0.00000000e+00  0.00000000e+00  0.00000000e+00  2.70517660e-07
  0.00000000e+00  0.00000000e+00  0.00000000e+00  0.00000000e+00
  0.00000000e+00  0.00000000e+00  0.00000000e+00  0.00000000e+00
  0.00000000e+00  0.00000000e+00  0.00000000e+00  0.00000000e+00
  0.00000000e+00  0.00000000e+00  0.00000000e+00  0.00000000e+00
  0.00000000e+00  0.00000000e+00 -5.48035009e-08  2.70517660e-07
  0.00000000e+00  0.00000000e+00  0.00000000e+00  1.58426662e-06]","[[-0.00690625  0.00173014]
 [-0.00513783 -0.00295852]]",[],0.0,0.0
1787133555.7489824,1.5311904766230806,-1.7345844282006098,1.0121256123375861,"[ 1.77233491e-06  7.02988733e-08  0.00000000e+00  0.00000000e+00
  0.00000000e+00 -1.02317664e-07  7.02988733e-08  1.80376853e-06
  0.00000000e+00  0.00000000e+00  0.00000000e+00  1.49785602e-07
  0.00000000e+00  0.00000000e+00  0.00000000e+00  0.00000000e+00
  0.00000000e+00  0.00000000e+00  0.00000000e+00  0.00000000e+00
  0.00000000e+00  0.00000000e+00  0.00000000e+00  0.00000000e+00
  0.00000000e+00  0.00000000e+00  0.00000000e+00  0.00000000e+00
  0.00000000e+00  0.00000000e+00 -1.02317664e-07  1.49785602e-07
  0.00000000e+00  0.00000000e+00  0.00000000e+00  1.55794100e-06]","[[-0.0026796   0.00146233]
 [-0.00379871 -0.00126848]]",[],0.0,0.0
1787133555.8628953,1.5311904766230806,-1.7345844282006098,1.0121256123375861,"[ 1.77233491e-06  7.02988733e-08  0.00000000e+00  0.00000000e+00
  0.00000000e+00 -1.02317664e-07  7.02988733e-08  1.80376853e-06
  0.00000000e+00  0.00000000e+00  0.00000000e+00  1.49785602e-07
  0.00000000e+00  0.00000000e+00  0.00000000e+00  0.00000000e+00
  0.00000000e+00  0.00000000e+00  0.00000000e+00  0.00000000e+00
  0.00000000e+00  0.00000000e+00  0.00000000e+00  0.00000000e+00
  0.00000000e+00  0.00000000e+00  0.00000000e+00  0.00000000e+00
  0.00000000e+00  0.00000000e+00 -1.02317664e-07  1.49785602e-07
  0.00000000e+00  0.00000000e+00  0.00000000e+00  1.55794100e-06]","[[-0.0026796   0.00146233]
 [-0.00379871 -0.00126848]]",[],0.0,0.0
1787133555.9032588,1.5311904766230806,-1.7345844282006098,1.0121256123375861,"[ 1.77233491e-06  7.02988733e-08  0.00000000e+00  0.00000000e+00
  0.00000000e+00 -1.02317664e-07  7.02988733e-08  1.80376853e-06
  0.00000000e+00  0.00000000e+00  0.00000000e+00  1.49785602e-07
  0.00000000e+00  0.00000000e+00  0.00000000e+00  0.00000000e+00
  0.00000000e+00  0.00000000e+00  0.00000000e+00  0.00000000e+00
  0.00000000e+00  0.00000000e+00  0.00000000e+00  0.00000000e+00
  0.00000000e+00  0.00000000e+00  0.00000000e+00  0.00000000e+00
  0.00000000e+00  0.00000000e+00 -1.02317664e-07  1.49785602e-07
  0.00000000e+00  0.00000000e+00  0.00000000e+00  1.55794100e-06]","[[-0.0026796   0.00146233]
 [-0.00379871 -0.00126848]]",[],0.0,0.0
1787133555.961321,1.5311904766230806,-1.7345844282006098,1.0121256123375861,"[ 1.77233491e-06  7.02988733e-08  0.00000000e+00  0.00000000e+00
  0.00000000e+00 -1.02317664e-07  7.02988733e-08  1.80376853e-06
  0.00000000e+00  0.00000000e+00  0.00000000e+00  1.49785602e-07
  0.00000000e+00  0.00000000e+00  0.00000000e+00  0.00000000e+00
  0.00000000e+00  0.00000000e+00  0.00000000e+00  0.00000000e+00
  0.00000000e+00  0.00000000e+00  0.00000000e+00  0.00000000e+00
  0.00000000e+00  0.00000000e+00  0.00000000e+00  0.00000000e+00
  0.00000000e+00  0.00000000e+00 -1.02317664e-07  1.49785602e-07
  0.00000000e+00  0.00000000e+00  0.00000000e+00  1.55794100e-06]","[[-0.0026796   0.00146233]
 [-0.00379871 -0.00126848]]",[],0.0,0.0
1787133556.0528905,1.5311904766230806,-1.7345844282006098,1.0121256123375861,"[ 1.77233491e-06  7.02988733e-08  0.00000000e+00  0.00000000e+00
  0.00000000e+00 -1.02317664e-07  7.02988733e-08  1.80376853e-06
  0.00000000e+00  0.00000000e+00  0.00000000e+00  1.49785602e-07
  0.00000000e+00  0.00000000e+00  0.00000000e+00  0.00000000e+00
  0.00000000e+00  0.00000000e+00  0.00000000e+00  0.00000000e+00
  0.00000000e+00  0.00000000e+00  0.00000000e+00  0.00000000e+00
  0.00000000e+00  0.00000000e+00  0.00000000e+00  0.00000000e+00
  0.00000000e+00  0.00000000e+00 -1.02317664e-07  1.49785602e-07
  0.00000000e+00  0.00000000e+00  0.00000000e+00  1.55794100e-06]","[[-0.0026796   0.00146233]
 [-0.00379871 -0.00126848]]",[],0.0,0.0
1787133556.0999484,1.5311904766230806,-1.7345844282006098,1.0121256123375861,"[ 1.77233491e-06  7.02988733e-08  0.00000000e+00  0.00000000e+00
  0.00000000e+00 -1.02317664e-07  7.02988733e-08  1.80376853e-06
  0.00000000e+00  0.00000000e+00  0.00000000e+00  1.49785602e-07
  0.00000000e+00  0.00000000e+00  0.00000000e+00  0.00000000e+00
  0.00000000e+00  0.00000000e+00  0.00000000e+00  0.00000000e+00
  0.00000000e+00  0.00000000e+00  0.00000000e+00  0.00000000e+00
  0.00000000e+00  0.00000000e+00  0.00000000e+00  0.00000000e+00
  0.00000000e+00  0.00000000e+00 -1.02317664e-07  1.49785602e-07
  0.00000000e+00  0.00000000e+00  0.00000000e+00  1.55794100e-06]","[[-0.0026796   0.00146233]
 [-0.00379871 -0.00126848]]",[],0.0,0.0
1787133556.147594,1.5311904766230806,-1.7345844282006098,1.0121256123375861,"[ 1.77233491e-06  7.02988733e-08  0.00000000e+00  0.00000000e+00
  0.00000000e+00 -1.02317664e-07  7.02988733e-08  1.80376853e-06
  0.00000000e+00  0.00000000e+00  0.00000000e+00  1.49785602e-07
  0.00000000e+00  0.00000000e+00  0.00000000e+00  0.00000000e+00
  0.00000000e+00  0.00000000e+00  0.00000000e+00  0.00000000e+00
  0.00000000e+00  0.00000000e+00  0.00000000e+00  0.00000000e+00
  0.00000000e+00  0.00000000e+00  0.00000000e+00  0.00000000e+00
  0.00000000e+00  0.00000000e+00 -1.02317664e-07  1.49785602e-07
  0.00000000e+00  0.00000000e+00  0.00000000e+00  1.55794100e-06]","[[-0.0026796   0.00146233]
 [-0.00379871 -0.00126848]]",[],0.0,0.0
1787133556.4796774,1.5311904766230806,-1.7345844282006098,1.0121256123375861,"[ 1.77233491e-06  7.02988733e-08  0.00000000e+00  0.00000000e+00
  0.00000000e+00 -1.02317664e-07  7.02988733e-08  1.80376853e-06
  0.00000000e+00  0.00000000e+00  0.00000000e+00  1.49785602e-07
  0.00000000e+00  0.00000000e+00  0.00000000e+00  0.00000000e+00
  0.00000000e+00  0.00000000e+00  0.00000000e+00  0.00000000e+00
  0.00000000e+00  0.00000000e+00  0.00000000e+00  0.00000000e+00
  0.00000000e+00  0.00000000e+00  0.00000000e+00  0.00000000e+00
  0.00000000e+00  0.00000000e+00 -1.02317664e-07  1.49785602e-07
  0.00000000e+00  0.00000000e+00  0.00000000e+00  1.55794100e-06]","[[-0.0026796   0.00146233]
 [-0.00379871 -0.00126848]]",[],0.0,0.0
1787133556.7624025,1.5115816282196668,-1.7390263821043614,1.0435426680738775,"[ 1.20209001e-06  8.56838388e-08  0.00000000e+00  0.00000000e+00
  0.00000000e+00 -6.64776252e-08  8.56838388e-08  1.27328547e-06
  0.00000000e+00  0.00000000e+00  0.00000000e+00  1.06166771e-07
  0.00000000e+00  0.00000000e+00  0.00000000e+00  0.00000000e+00
  0.00000000e+00  0.00000000e+00  0.00000000e+00  0.00000000e+00
  0.00000000e+00  0.00000000e+00  0.00000000e+00  0.00000000e+00
  0.00000000e+00  0.00000000e+00  0.00000000e+00  0.00000000e+00
  0.00000000e+00  0.00000000e+00 -6.64776252e-08  1.06166771e-07
  0.00000000e+00  0.00000000e+00  0.00000000e+00  1.52530363e-06]","[[-0.00183212  0.00097364]
 [-0.00277609 -0.00084511]]",[],0.0,0.0
1787133557.193481,1.5115816282196668,-1.7390263821043614,1.0435426680738775,"[ 1.20209001e-06  8.56838388e-08  0.00000000e+00  0.00000000e+00
  0.00000000e+00 -6.64776252e-08  8.56838388e-08  1.27328547e-06
  0.00000000e+00  0.00000000e+00  0.00000000e+00  1.06166771e-07
  0.00000000e+00  0.00000000e+00  0.00000000e+00  0.00000000e+00
  0.00000000e+00  0.00000000e+00  0.00000000e+00  0.00000000e+00
  0.00000000e+00  0.00000000e+00  0.00000000e+00  0.00000000e+00
  0.00000000e+00  0.00000000e+00  0.00000000e+00  0.00000000e+00
  0.00000000e+00  0.00000000e+00 -6.64776252e-08  1.06166771e-07
  0.00000000e+00  0.00000000e+00  0.00000000e+00  1.52530363e-06]","[[-0.00183212  0.00097364]
 [-0.00277609 -0.00084511]]",[],0.0,0.0
1787133557.2072172,1.4950395622390906,-1.745958278572309,1.071086817913283,"[ 9.18439037e-07  9.75451255e-08  0.00000000e+00  0.00000000e+00
  0.00000000e+00 -3.94044128e-08  9.75451255e-08  1.00706389e-06
  0.00000000e+00  0.00000000e+00  0.00000000e+00  8.88405899e-08
  0.00000000e+00  0.00000000e+00  0.00000000e+00  0.00000000e+00
  0.00000000e+00  0.00000000e+00  0.00000000e+00  0.00000000e+00
  0.00000000e+00  0.00000000e+00  0.00000000e+00  0.00000000e+00
  0.00000000e+00  0.00000000e+00  0.00000000e+00  0.00000000e+00
  0.00000000e+00  0.00000000e+00 -3.94044128e-08  8.88405899e-08
  0.00000000e+00  0.00000000e+00  0.00000000e+00  1.48663032e-06]","[[-0.0014494   0.00069393]
 [-0.00224797 -0.00065589]]",[],0.0,0.0
1787133557.4706771,1.4950395622390906,-1.745958278572309,1.071086817913283,"[ 9.18439037e-07  9.75451255e-08  0.00000000e+00  0.00000000e+00
  0.00000000e+00 -3.94044128e-08  9.75451255e-08  1.00706389e-06
  0.00000000e+00  0.00000000e+00  0.00000000e+00  8.88405899e-08
  0.00000000e+00  0.00000000e+00  0.00000000e+00  0.00000000e+00
  0.00000000e+00  0.00000000e+00  0.00000000e+00  0.00000000e+00
  0.00000000e+00  0.00000000e+00  0.00000000e+00  0.00000000e+00
  0.00000000e+00  0.00000000e+00  0.00000000e+00  0.00000000e+00
  0.00000000e+00  0.00000000e+00 -3.94044128e-08  8.88405899e-08
  0.00000000e+00  0.00000000e+00  0.00000000e+00  1.48663032e-06]","[[-0.0014494   0.00069393]
 [-0.00224797 -0.00065589]]",[],0.0,0.0
1787133557.9076133,1.4950395622390906,-1.745958278572309,1.071086817913283,"[ 9.18439037e-07  9.75451255e-08  0.00000000e+00  0.00000000e+00
  0.00000000e+00 -3.94044128e-08  9.75451255e-08  1.00706389e-06
  0.00000000e+00  0.00000000e+00  0.00000000e+00  8.88405899e-08
  0.00000000e+00  0.00000000e+00  0.00000000e+00  0.00000000e+00
  0.00000000e+00  0.00000000e+00  0.00000000e+00  0.00000000e+00
  0.00000000e+00  0.00000000e+00  0.00000000e+00  0.00000000e+00
  0.00000000e+00  0.00000000e+00  0.00000000e+00  0.00000000e+00
  0.00000000e+00  0.00000000e+00 -3.94044128e-08  8.88405899e-08
  0.00000000e+00  0.00000000e+00  0.00000000e+00  1.48663032e-06]","[[-0.0014494   0.00069393]
 [-0.00224797 -0.00065589]]",[],0.0,0.0
1787133557.9784493,1.4835375972011855,-1.7528267820915768,1.0858185777709082,"[ 7.56401387e-07  1.13501306e-07  0.00000000e+00  0.00000000e+00
  0.00000000e+00 -3.15392271e-08  1.13501306e-07  8.63453385e-07
  0.00000000e+00  0.00000000e+00  0.00000000e+00  6.55874097e-08
  0.00000000e+00  0.00000000e+00  0.00000000e+00  0.00000000e+00
  0.00000000e+00  0.00000000e+00  0.00000000e+00  0.00000000e+00
  0.00000000e+00  0.00000000e+00  0.00000000e+00  0.00000000e+00
  0.00000000e+00  0.00000000e+00  0.00000000e+00  0.00000000e+00
  0.00000000e+00  0.00000000e+00 -3.15392271e-08  6.55874097e-08
  0.00000000e+00  0.00000000e+00  0.00000000e+00  1.50187821e-06]","[[-0.00118386  0.00056525]
 [-0.00201539 -0.00046858]]",[],0.0,0.0
1787133558.0023835,1.4835375972011855,-1.7528267820915768,1.0858185777709082,"[ 7.56401387e-07  1.13501306e-07  0.00000000e+00  0.00000000e+00
  0.00000000e+00 -3.15392271e-08  1.13501306e-07  8.63453385e-07
  0.00000000e+00  0.00000000e+00  0.00000000e+00  6.55874097e-08
  0.00000000e+00  0.00000000e+00  0.00000000e+00  0.00000000e+00
  0.00000000e+00  0.00000000e+00  0.00000000e+00  0.00000000e+00
  0.00000000e+00  0.00000000e+00  0.00000000e+00  0.00000000e+00
  0.00000000e+00  0.00000000e+00  0.00000000e+00  0.00000000e+00
  0.00000000e+00  0.00000000e+00 -3.15392271e-08  6.55874097e-08
  0.00000000e+00  0.00000000e+00  0.00000000e+00  1.50187821e-06]","[[-0.00118386  0.00056525]
 [-0.00201539 -0.00046858]]",[],0.0,0.0
1787133558.576188,1.4835375972011855,-1.7528267820915768,1.0858185777709082,"[ 7.56401387e-07  1.13501306e-07  0.00000000e+00  0.00000000e+00
  0.00000000e+00 -3.15392271e-08  1.13501306e-07  8.63453385e-07
  0.00000000e+00  0.00000000e+00  0.00000000e+00  6.55874097e-08
  0.00000000e+00  0.00000000e+00  0.00000000e+00  0.00000000e+00
  0.00000000e+00  0.00000000e+00  0.00000000e+00  0.00000000e+00
  0.00000000e+00  0.00000000e+00  0.00000000e+00  0.00000000e+00
  0.00000000e+00  0.00000000e+00  0.00000000e+00  0.00000000e+00
  0.00000000e+00  0.00000000e+00 -3.15392271e-08  6.55874097e-08
  0.00000000e+00  0.00000000e+00  0.00000000e+00  1.50187821e-06]","[[-0.00118386  0.00056525]
 [-0.00201539 -0.00046858]]",[],0.0,0.0
1787133558.5978105,1.4740635214083155,-1.7574494828445961,1.0937109656628914,"[ 6.44870979e-07  1.22122322e-07  0.00000000e+00  0.00000000e+00
  0.00000000e+00 -2.23635043e-08  1.22122322e-07  7.73763262e-07
  0.00000000e+00  0.00000000e+00  0.00000000e+00  5.93497745e-08
  0.00000000e+00  0.00000000e+00  0.00000000e+00  0.00000000e+00
  0.00000000e+00  0.00000000e+00  0.00000000e+00  0.00000000e+00
  0.00000000e+00  0.00000000e+00  0.00000000e+00  0.00000000e+00
  0.00000000e+00  0.00000000e+00  0.00000000e+00  0.00000000e+00
  0.00000000e+00  0.00000000e+00 -2.23635043e-08  5.93497745e-08
  0.00000000e+00  0.00000000e+00  0.00000000e+00  1.48769295e-06]","[[-0.00106628  0.00045583]
 [-0.00183027 -0.00040845]]",[],0.0,0.0
1787133558.6623213,1.4740635214083155,-1.7574494828445961,1.0937109656628914,"[ 6.44870979e-07  1.22122322e-07  0.00000000e+00  0.00000000e+00
  0.00000000e+00 -2.23635043e-08  1.22122322e-07  7.73763262e-07
  0.00000000e+00  0.00000000e+00  0.00000000e+00  5.93497745e-08
  0.00000000e+00  0.00000000e+00  0.00000000e+00  0.00000000e+00
  0.00000000e+00  0.00000000e+00  0.00000000e+00  0.00000000e+00
  0.00000000e+00  0.00000000e+00  0.00000000e+00  0.00000000e+00
  0.00000000e+00  0.00000000e+00  0.00000000e+00  0.00000000e+00
  0.00000000e+00  0.00000000e+00 -2.23635043e-08  5.93497745e-08
  0.00000000e+00  0.00000000e+00  0.00000000e+00  1.48769295e-06]","[[-0.00106628  0.00045583]
 [-0.00183027 -0.00040845]]",[],0.0,0.0
1787133558.703135,1.4740635214083155,-1.7574494828445961,1.0937109656628914,"[ 6.44870979e-07  1.22122322e-07  0.00000000e+00  0.00000000e+00
  0.00000000e+00 -2.23635043e-08  1.22122322e-07  7.73763262e-07
  0.00000000e+00  0.00000000e+00  0.00000000e+00  5.93497745e-08
  0.00000000e+00  0.00000000e+00  0.00000000e+00  0.00000000e+00
  0.00000000e+00  0.00000000e+00  0.00000000e+00  0.00000000e+00
  0.00000000e+00  0.00000000e+00  0.00000000e+00  0.00000000e+00
  0.00000000e+00  0.00000000e+00  0.00000000e+00  0.00000000e+00
  0.00000000e+00  0.00000000e+00 -2.23635043e-08  5.93497745e-08
  0.00000000e+00  0.00000000e+00  0.00000000e+00  1.48769295e-06]","[[-0.00106628  0.00045583]
 [-0.00183027 -0.00040845]]",[],0.0,0.0
1787133558.7621913,1.4740635214083155,-1.7574494828445961,1.0937109656628914,"[ 6.44870979e-07  1.22122322e-07  0.00000000e+00  0.00000000e+00
  0.00000000e+00 -2.23635043e-08  1.22122322e-07  7.73763262e-07
  0.00000000e+00  0.00000000e+00  0.00000000e+00  5.93497745e-08
  0.00000000e+00  0.00000000e+00  0.00000000e+00  0.00000000e+00
  0.00000000e+00  0.00000000e+00  0.00000000e+00  0.00000000e+00
  0.00000000e+00  0.00000000e+00  0.00000000e+00  0.00000000e+00
  0.00000000e+00  0.00000000e+00  0.00000000e+00  0.00000000e+00
  0.00000000e+00  0.00000000e+00 -2.23635043e-08  5.93497745e-08
  0.00000000e+00  0.00000000e+00  0.00000000e+00  1.48769295e-06]","[[-0.00106628  0.00045583]
 [-0.00183027 -0.00040845]]",[],0.0,0.0
1787133559.3546345,1.4740635214083155,-1.7574494828445961,1.0937109656628914,"[ 6.44870979e-07  1.22122322e-07  0.00000000e+00  0.00000000e+00
  0.00000000e+00 -2.23635043e-08  1.22122322e-07  7.73763262e-07
  0.00000000e+00  0.00000000e+00  0.00000000e+00  5.93497745e-08
  0.00000000e+00  0.00000000e+00  0.00000000e+00  0.00000000e+00
  0.00000000e+00  0.00000000e+00  0.00000000e+00  0.00000000e+00
  0.00000000e+00  0.00000000e+00  0.00000000e+00  0.00000000e+00
  0.00000000e+00  0.00000000e+00  0.00000000e+00  0.00000000e+00
  0.00000000e+00  0.00000000e+00 -2.23635043e-08  5.93497745e-08
  0.00000000e+00  0.00000000e+00  0.00000000e+00  1.48769295e-06]","[[-0.00106628  0.00045583]
 [-0.00183027 -0.00040845]]",[],0.0,0.0
1787133559.4034004,1.4629826518710827,-1.7617733564672977,1.1068236672406329,"[ 5.69309080e-07  1.41584923e-07  0.00000000e+00  0.00000000e+00
  0.00000000e+00 -1.57734630e-08  1.41584923e-07  7.35032314e-07
  0.00000000e+00  0.00000000e+00  0.00000000e+00  5.84617820e-08
  0.00000000e+00  0.00000000e+00  0.00000000e+00  0.00000000e+00
  0.00000000e+00  0.00000000e+00  0.00000000e+00  0.00000000e+00
  0.00000000e+00  0.00000000e+00  0.00000000e+00  0.00000000e+00
  0.00000000e+00  0.00000000e+00  0.00000000e+00  0.00000000e+00
  0.00000000e+00  0.00000000e+00 -1.57734630e-08  5.84617820e-08
  0.00000000e+00  0.00000000e+00  0.00000000e+00  1.46646304e-06]","[[-0.00101606  0.00037543]
 [-0.0017696  -0.0003782 ]]",[],0.0,0.0
1787133559.4559228,1.4629826518710827,-1.7617733564672977,1.1068236672406329,"[ 5.69309080e-07  1.41584923e-07  0.00000000e+00  0.00000000e+00
  0.00000000e+00 -1.57734630e-08  1.41584923e-07  7.35032314e-07
  0.00000000e+00  0.00000000e+00  0.00000000e+00  5.84617820e-08
  0.00000000e+00  0.00000000e+00  0.00000000e+00  0.00000000e+00
  0.00000000e+00  0.00000000e+00  0.00000000e+00  0.00000000e+00
  0.00000000e+00  0.00000000e+00  0.00000000e+00  0.00000000e+00
  0.00000000e+00  0.00000000e+00  0.00000000e+00  0.00000000e+00
  0.00000000e+00  0.00000000e+00 -1.57734630e-08  5.84617820e-08
  0.00000000e+00  0.00000000e+00  0.00000000e+00  1.46646304e-06]","[[-0.00101606  0.00037543]
 [-0.0017696  -0.0003782 ]]",[],0.0,0.0
1787133559.525127,1.4629826518710827,-1.7617733564672977,1.1068236672406329,"[ 5.69309080e-07  1.41584923e-07  0.00000000e+00  0.00000000e+00
  0.00000000e+00 -1.57734630e-08  1.41584923e-07  7.35032314e-07
  0.00000000e+00  0.00000000e+00  0.00000000e+00  5.84617820e-08
  0.00000000e+00  0.00000000e+00  0.00000000e+00  0.00000000e+00
  0.00000000e+00  0.00000000e+00  0.00000000e+00  0.00000000e+00
  0.00000000e+00  0.00000000e+00  0.00000000e+00  0.00000000e+00
  0.00000000e+00  0.00000000e+00  0.00000000e+00  0.00000000e+00
  0.00000000e+00  0.00000000e+00 -1.57734630e-08  5.84617820e-08
  0.00000000e+00  0.00000000e+00  0.00000000e+00  1.46646304e-06]","[[-0.00101606  0.00037543]
 [-0.0017696  -0.0003782 ]]",[],0.0,0.0
1787133559.5487452,1.4629826518710827,-1.7617733564672977,1.1068236672406329,"[ 5.69309080e-07  1.41584923e-07  0.00000000e+00  0.00000000e+00
  0.00000000e+00 -1.57734630e-08  1.41584923e-07  7.35032314e-07
  0.00000000e+00  0.00000000e+00  0.00000000e+00  5.84617820e-08
  0.00000000e+00  0.00000000e+00  0.00000000e+00  0.00000000e+00
  0.00000000e+00  0.00000000e+00  0.00000000e+00  0.00000000e+00
  0.00000000e+00  0.00000000e+00  0.00000000e+00  0.00000000e+00
  0.00000000e+00  0.00000000e+00  0.00000000e+00  0.00000000e+00
  0.00000000e+00  0.00000000e+00 -1.57734630e-08  5.84617820e-08
  0.00000000e+00  0.00000000e+00  0.00000000e+00  1.46646304e-06]","[[-0.00101606  0.00037543]
 [-0.0017696  -0.0003782 ]]",[],0.0,0.0
1787133559.5964036,1.4629826518710827,-1.7617733564672977,1.1068236672406329,"[ 5.69309080e-07  1.41584923e-07  0.00000000e+00  0.00000000e+00
  0.00000000e+00 -1.57734630e-08  1.41584923e-07  7.35032314e-07
  0.00000000e+00  0.00000000e+00  0.00000000e+00  5.84617820e-08
  0.00000000e+00  0.00000000e+00  0.00000000e+00  0.00000000e+00
  0.00000000e+00  0.00000000e+00  0.00000000e+00  0.00000000e+00
  0.00000000e+00  0.00000000e+00  0.00000000e+00  0.00000000e+00
  0.00000000e+00  0.00000000e+00  0.00000000e+00  0.00000000e+00
  0.00000000e+00  0.00000000e+00 -1.57734630e-08  5.84617820e-08
  0.00000000e+00  0.00000000e+00  0.00000000e+00  1.46646304e-06]","[[-0.00101606  0.00037543]
 [-0.0017696  -0.0003782 ]]",[],0.0,0.0
1787133559.6514187,1.4629826518710827,-1.7617733564672977,1.1068236672406329,"[ 5.69309080e-07  1.41584923e-07  0.00000000e+00  0.00000000e+00
  0.00000000e+00 -1.57734630e-08  1.41584923e-07  7.35032314e-07
  0.00000000e+00  0.00000000e+00  0.00000000e+00  5.84617820e-08
  0.00000000e+00  0.00000000e+00  0.00000000e+00  0.00000000e+00
  0.00000000e+00  0.00000000e+00  0.00000000e+00  0.00000000e+00
  0.00000000e+00  0.00000000e+00  0.00000000e+00  0.00000000e+00
  0.00000000e+00  0.00000000e+00  0.00000000e+00  0.00000000e+00
  0.00000000e+00  0.00000000e+00 -1.57734630e-08  5.84617820e-08
  0.00000000e+00  0.00000000e+00  0.00000000e+00  1.46646304e-06]","[[-0.00101606  0.00037543]
 [-0.0017696  -0.0003782 ]]",[],0.0,0.0
1787133559.73221,1.4629826518710827,-1.7617733564672977,1.1068236672406329,"[ 5.69309080e-07  1.41584923e-07  0.00000000e+00  0.00000000e+00
  0.00000000e+00 -1.57734630e-08  1.41584923e-07  7.35032314e-07
  0.00000000e+00  0.00000000e+00  0.00000000e+00  5.84617820e-08
  0.00000000e+00  0.00000000e+00  0.00000000e+00  0.00000000e+00
  0.00000000e+00  0.00000000e+00  0.00000000e+00  0.00000000e+00
  0.00000000e+00  0.00000000e+00  0.00000000e+00  0.00000000e+00
  0.00000000e+00  0.00000000e+00  0.00000000e+00  0.00000000e+00
  0.00000000e+00  0.00000000e+00 -1.57734630e-08  5.84617820e-08
  0.00000000e+00  0.00000000e+00  0.00000000e+00  1.46646304e-06]","[[-0.00101606  0.00037543]
 [-0.0017696  -0.0003782 ]]",[],0.0,0.0
1787133559.7629137,1.4629826518710827,-1.7617733564672977,1.1068236672406329,"[ 5.69309080e-07  1.41584923e-07  0.00000000e+00  0.00000000e+00
  0.00000000e+00 -1.57734630e-08  1.41584923e-07  7.35032314e-07
  0.00000000e+00  0.00000000e+00  0.00000000e+00  5.84617820e-08
  0.00000000e+00  0.00000000e+00  0.00000000e+00  0.00000000e+00
  0.00000000e+00  0.00000000e+00  0.00000000e+00  0.00000000e+00
  0.00000000e+00  0.00000000e+00  0.00000000e+00  0.00000000e+00
  0.00000000e+00  0.00000000e+00  0.00000000e+00  0.00000000e+00
  0.00000000e+00  0.00000000e+00 -1.57734630e-08  5.84617820e-08
  0.00000000e+00  0.00000000e+00  0.00000000e+00  1.46646304e-06]","[[-0.00101606  0.00037543]
 [-0.0017696  -0.0003782 ]]",[],0.0,0.0
1787133559.7963362,1.4629826518710827,-1.7617733564672977,1.1068236672406329,"[ 5.69309080e-07  1.41584923e-07  0.00000000e+00  0.00000000e+00
  0.00000000e+00 -1.57734630e-08  1.41584923e-07  7.35032314e-07
  0.00000000e+00  0.00000000e+00  0.00000000e+00  5.84617820e-08
  0.00000000e+00  0.00000000e+00  0.00000000e+00  0.00000000e+00
  0.00000000e+00  0.00000000e+00  0.00000000e+00  0.00000000e+00
  0.00000000e+00  0.00000000e+00  0.00000000e+00  0.00000000e+00
  0.00000000e+00  0.00000000e+00  0.00000000e+00  0.00000000e+00
  0.00000000e+00  0.00000000e+00 -1.57734630e-08  5.84617820e-08
  0.00000000e+00  0.00000000e+00  0.00000000e+00  1.46646304e-06]","[[-0.00101606  0.00037543]
 [-0.0017696  -0.0003782 ]]",[],0.0,0.0
1787133559.8461425,1.4629826518710827,-1.7617733564672977,1.1068236672406329,"[ 5.69309080e-07  1.41584923e-07  0.00000000e+00  0.00000000e+00
  0.00000000e+00 -1.57734630e-08  1.41584923e-07  7.35032314e-07
  0.00000000e+00  0.00000000e+00  0.00000000e+00  5.84617820e-08
  0.00000000e+00  0.00000000e+00  0.00000000e+00  0.00000000e+00
  0.00000000e+00  0.00000000e+00  0.00000000e+00  0.00000000e+00
  0.00000000e+00  0.00000000e+00  0.00000000e+00  0.00000000e+00
  0.00000000e+00  0.00000000e+00  0.00000000e+00  0.00000000e+00
  0.00000000e+00  0.00000000e+00 -1.57734630e-08  5.84617820e-08
  0.00000000e+00  0.00000000e+00  0.00000000e+00  1.46646304e-06]","[[-0.00101606  0.00037543]
 [-0.0017696  -0.0003782 ]]",[],0.0,0.0
1787133559.8976948,1.4629826518710827,-1.7617733564672977,1.1068236672406329,"[ 5.69309080e-07  1.41584923e-07  0.00000000e+00  0.00000000e+00
  0.00000000e+00 -1.57734630e-08  1.41584923e-07  7.35032314e-07
  0.00000000e+00  0.00000000e+00  0.00000000e+00  5.84617820e-08
  0.00000000e+00  0.00000000e+00  0.00000000e+00  0.00000000e+00
  0.00000000e+00  0.00000000e+00  0.00000000e+00  0.00000000e+00
  0.00000000e+00  0.00000000e+00  0.00000000e+00  0.00000000e+00
  0.00000000e+00  0.00000000e+00  0.00000000e+00  0.00000000e+00
  0.00000000e+00  0.00000000e+00 -1.57734630e-08  5.84617820e-08
  0.00000000e+00  0.00000000e+00  0.00000000e+00  1.46646304e-06]","[[-0.00101606  0.00037543]
 [-0.0017696  -0.0003782 ]]",[],0.0,0.0
1787133559.9644938,1.4629826518710827,-1.7617733564672977,1.1068236672406329,"[ 5.69309080e-07  1.41584923e-07  0.00000000e+00  0.00000000e+00
  0.00000000e+00 -1.57734630e-08  1.41584923e-07  7.35032314e-07
  0.00000000e+00  0.00000000e+00  0.00000000e+00  5.84617820e-08
  0.00000000e+00  0.00000000e+00  0.00000000e+00  0.00000000e+00
  0.00000000e+00  0.00000000e+00  0.00000000e+00  0.00000000e+00
  0.00000000e+00  0.00000000e+00  0.00000000e+00  0.00000000e+00
  0.00000000e+00  0.00000000e+00  0.00000000e+00  0.00000000e+00
  0.00000000e+00  0.00000000e+00 -1.57734630e-08  5.84617820e-08
  0.00000000e+00  0.00000000e+00  0.00000000e+00  1.46646304e-06]","[[-0.00101606  0.00037543]
 [-0.0017696  -0.0003782 ]]",[],0.0,0.0
1787133559.9984126,1.4629826518710827,-1.7617733564672977,1.1068236672406329,"[ 5.69309080e-07  1.41584923e-07  0.00000000e+00  0.00000000e+00
  0.00000000e+00 -1.57734630e-08  1.41584923e-07  7.35032314e-07
  0.00000000e+00  0.00000000e+00  0.00000000e+00  5.84617820e-08
  0.00000000e+00  0.00000000e+00  0.00000000e+00  0.00000000e+00
  0.00000000e+00  0.00000000e+00  0.00000000e+00  0.00000000e+00
  0.00000000e+00  0.00000000e+00  0.00000000e+00  0.00000000e+00
  0.00000000e+00  0.00000000e+00  0.00000000e+00  0.00000000e+00
  0.00000000e+00  0.00000000e+00 -1.57734630e-08  5.84617820e-08
  0.00000000e+00  0.00000000e+00  0.00000000e+00  1.46646304e-06]","[[-0.00101606  0.00037543]
 [-0.0017696  -0.0003782 ]]",[],0.0,0.0
1787133560.05481,1.4629826518710827,-1.7617733564672977,1.1068236672406329,"[ 5.69309080e-07  1.41584923e-07  0.00000000e+00  0.00000000e+00
  0.00000000e+00 -1.57734630e-08  1.41584923e-07  7.35032314e-07
  0.00000000e+00  0.00000000e+00  0.00000000e+00  5.84617820e-08
  0.00000000e+00  0.00000000e+00  0.00000000e+00  0.00000000e+00
  0.00000000e+00  0.00000000e+00  0.00000000e+00  0.00000000e+00
  0.00000000e+00  0.00000000e+00  0.00000000e+00  0.00000000e+00
  0.00000000e+00  0.00000000e+00  0.00000000e+00  0.00000000e+00
  0.00000000e+00  0.00000000e+00 -1.57734630e-08  5.84617820e-08
  0.00000000e+00  0.00000000e+00  0.00000000e+00  1.46646304e-06]","[[-0.00101606  0.00037543]
 [-0.0017696  -0.0003782 ]]",[],0.0,0.0
1787133560.0971947,1.4629826518710827,-1.7617733564672977,1.1068236672406329,"[ 5.69309080e-07  1.41584923e-07  0.00000000e+00  0.00000000e+00
  0.00000000e+00 -1.57734630e-08  1.41584923e-07  7.35032314e-07
  0.00000000e+00  0.00000000e+00  0.00000000e+00  5.84617820e-08
  0.00000000e+00  0.00000000e+00  0.00000000e+00  0.00000000e+00
  0.00000000e+00  0.00000000e+00  0.00000000e+00  0.00000000e+00
  0.00000000e+00  0.00000000e+00  0.00000000e+00  0.00000000e+00
  0.00000000e+00  0.00000000e+00  0.00000000e+00  0.00000000e+00
  0.00000000e+00  0.00000000e+00 -1.57734630e-08  5.84617820e-08
  0.00000000e+00  0.00000000e+00  0.00000000e+00  1.46646304e-06]","[[-0.00101606  0.00037543]
 [-0.0017696  -0.0003782 ]]",[],0.0,0.0
1787133560.1490352,1.4629826518710827,-1.7617733564672977,1.1068236672406329,"[ 5.69309080e-07  1.41584923e-07  0.00000000e+00  0.00000000e+00
  0.00000000e+00 -1.57734630e-08  1.41584923e-07  7.35032314e-07
  0.00000000e+00  0.00000000e+00  0.00000000e+00  5.84617820e-08
  0.00000000e+00  0.00000000e+00  0.00000000e+00  0.00000000e+00
  0.00000000e+00  0.00000000e+00  0.00000000e+00  0.00000000e+00
  0.00000000e+00  0.00000000e+00  0.00000000e+00  0.00000000e+00
  0.00000000e+00  0.00000000e+00  0.00000000e+00  0.00000000e+00
  0.00000000e+00  0.00000000e+00 -1.57734630e-08  5.84617820e-08
  0.00000000e+00  0.00000000e+00  0.00000000e+00  1.46646304e-06]","[[-0.00101606  0.00037543]
 [-0.0017696  -0.0003782 ]]",[],0.0,0.0
1787133560.1965754,1.4629826518710827,-1.7617733564672977,1.1068236672406329,"[ 5.69309080e-07  1.41584923e-07  0.00000000e+00  0.00000000e+00
  0.00000000e+00 -1.57734630e-08  1.41584923e-07  7.35032314e-07
  0.00000000e+00  0.00000000e+00  0.00000000e+00  5.84617820e-08
  0.00000000e+00  0.00000000e+00  0.00000000e+00  0.00000000e+00
  0.00000000e+00  0.00000000e+00  0.00000000e+00  0.00000000e+00
  0.00000000e+00  0.00000000e+00  0.00000000e+00  0.00000000e+00
  0.00000000e+00  0.00000000e+00  0.00000000e+00  0.00000000e+00
  0.00000000e+00  0.00000000e+00 -1.57734630e-08  5.84617820e-08
  0.00000000e+00  0.00000000e+00  0.00000000e+00  1.46646304e-06]","[[-0.00101606  0.00037543]
 [-0.0017696  -0.0003782 ]]",[],0.0,0.0
1787133560.253237,1.4629826518710827,-1.7617733564672977,1.1068236672406329,"[ 5.69309080e-07  1.41584923e-07  0.00000000e+00  0.00000000e+00
  0.00000000e+00 -1.57734630e-08  1.41584923e-07  7.35032314e-07
  0.00000000e+00  0.00000000e+00  0.00000000e+00  5.84617820e-08
  0.00000000e+00  0.00000000e+00  0.00000000e+00  0.00000000e+00
  0.00000000e+00  0.00000000e+00  0.00000000e+00  0.00000000e+00
  0.00000000e+00  0.00000000e+00  0.00000000e+00  0.00000000e+00
  0.00000000e+00  0.00000000e+00  0.00000000e+00  0.00000000e+00
  0.00000000e+00  0.00000000e+00 -1.57734630e-08  5.84617820e-08
  0.00000000e+00  0.00000000e+00  0.00000000e+00  1.46646304e-06]","[[-0.00101606  0.00037543]
 [-0.0017696  -0.0003782 ]]",[],0.0,0.0
1787133560.330863,1.454185057347541,-1.7660563845198225,1.1193339686388182,"[ 5.23375573e-07  1.75643515e-07  0.00000000e+00  0.00000000e+00
  0.00000000e+00 -8.37275880e-09  1.75643515e-07  7.48365435e-07
  0.00000000e+00  0.00000000e+00  0.00000000e+00  6.01580522e-08
  0.00000000e+00  0.00000000e+00  0.00000000e+00  0.00000000e+00
  0.00000000e+00  0.00000000e+00  0.00000000e+00  0.00000000e+00
  0.00000000e+00  0.00000000e+00  0.00000000e+00  0.00000000e+00
  0.00000000e+00  0.00000000e+00  0.00000000e+00  0.00000000e+00
  0.00000000e+00  0.00000000e+00 -8.37275880e-09  6.01580522e-08
  0.00000000e+00  0.00000000e+00  0.00000000e+00  1.52332173e-06]","[[-0.00101047  0.00031534]
 [-0.00185358 -0.00035283]]",[],0.0,0.0
1787133560.3956764,1.454185057347541,-1.7660563845198225,1.1193339686388182,"[ 5.23375573e-07  1.75643515e-07  0.00000000e+00  0.00000000e+00
  0.00000000e+00 -8.37275880e-09  1.75643515e-07  7.48365435e-07
  0.00000000e+00  0.00000000e+00  0.00000000e+00  6.01580522e-08
  0.00000000e+00  0.00000000e+00  0.00000000e+00  0.00000000e+00
  0.00000000e+00  0.00000000e+00  0.00000000e+00  0.00000000e+00
  0.00000000e+00  0.00000000e+00  0.00000000e+00  0.00000000e+00
  0.00000000e+00  0.00000000e+00  0.00000000e+00  0.00000000e+00
  0.00000000e+00  0.00000000e+00 -8.37275880e-09  6.01580522e-08
  0.00000000e+00  0.00000000e+00  0.00000000e+00  1.52332173e-06]","[[-0.00101047  0.00031534]
 [-0.00185358 -0.00035283]]",[],0.0,0.0
1787133560.3964434,1.454185057347541,-1.7660563845198225,1.1193339686388182,"[ 5.23375573e-07  1.75643515e-07  0.00000000e+00  0.00000000e+00
  0.00000000e+00 -8.37275880e-09  1.75643515e-07  7.48365435e-07
  0.00000000e+00  0.00000000e+00  0.00000000e+00  6.01580522e-08
  0.00000000e+00  0.00000000e+00  0.00000000e+00  0.00000000e+00
  0.00000000e+00  0.00000000e+00  0.00000000e+00  0.00000000e+00
  0.00000000e+00  0.00000000e+00  0.00000000e+00  0.00000000e+00
  0.00000000e+00  0.00000000e+00  0.00000000e+00  0.00000000e+00
  0.00000000e+00  0.00000000e+00 -8.37275880e-09  6.01580522e-08
  0.00000000e+00  0.00000000e+00  0.00000000e+00  1.52332173e-06]","[[-0.00101047  0.00031534]
 [-0.00185358 -0.00035283]]",[],0.0,0.0
1787133560.450831,1.454185057347541,-1.7660563845198225,1.1193339686388182,"[ 5.23375573e-07  1.75643515e-07  0.00000000e+00  0.00000000e+00
  0.00000000e+00 -8.37275880e-09  1.75643515e-07  7.48365435e-07
  0.00000000e+00  0.00000000e+00  0.00000000e+00  6.01580522e-08
  0.00000000e+00  0.00000000e+00  0.00000000e+00  0.00000000e+00
  0.00000000e+00  0.00000000e+00  0.00000000e+00  0.00000000e+00
  0.00000000e+00  0.00000000e+00  0.00000000e+00  0.00000000e+00
  0.00000000e+00  0.00000000e+00  0.00000000e+00  0.00000000e+00
  0.00000000e+00  0.00000000e+00 -8.37275880e-09  6.01580522e-08
  0.00000000e+00  0.00000000e+00  0.00000000e+00  1.52332173e-06]","[[-0.00101047  0.00031534]
 [-0.00185358 -0.00035283]]",[],0.0,0.0
1787133560.509268,1.454185057347541,-1.7660563845198225,1.1193339686388182,"[ 5.23375573e-07  1.75643515e-07  0.00000000e+00  0.00000000e+00
  0.00000000e+00 -8.37275880e-09  1.75643515e-07  7.48365435e-07
  0.00000000e+00  0.00000000e+00  0.00000000e+00  6.01580522e-08
  0.00000000e+00  0.00000000e+00  0.00000000e+00  0.00000000e+00
  0.00000000e+00  0.00000000e+00  0.00000000e+00  0.00000000e+00
  0.00000000e+00  0.00000000e+00  0.00000000e+00  0.00000000e+00
  0.00000000e+00  0.00000000e+00  0.00000000e+00  0.00000000e+00
  0.00000000e+00  0.00000000e+00 -8.37275880e-09  6.01580522e-08
  0.00000000e+00  0.00000000e+00  0.00000000e+00  1.52332173e-06]","[[-0.00101047  0.00031534]
 [-0.00185358 -0.00035283]]",[],0.0,0.0
1787133560.5719304,1.454185057347541,-1.7660563845198225,1.1193339686388182,"[ 5.23375573e-07  1.75643515e-07  0.00000000e+00  0.00000000e+00
  0.00000000e+00 -8.37275880e-09  1.75643515e-07  7.48365435e-07
  0.00000000e+00  0.00000000e+00  0.00000000e+00  6.01580522e-08
  0.00000000e+00  0.00000000e+00  0.00000000e+00  0.00000000e+00
  0.00000000e+00  0.00000000e+00  0.00000000e+00  0.00000000e+00
  0.00000000e+00  0.00000000e+00  0.00000000e+00  0.00000000e+00
  0.00000000e+00  0.00000000e+00  0.00000000e+00  0.00000000e+00
  0.00000000e+00  0.00000000e+00 -8.37275880e-09  6.01580522e-08
  0.00000000e+00  0.00000000e+00  0.00000000e+00  1.52332173e-06]","[[-0.00101047  0.00031534]
 [-0.00185358 -0.00035283]]",[],0.0,0.0
1787133560.6009884,1.454185057347541,-1.7660563845198225,1.1193339686388182,"[ 5.23375573e-07  1.75643515e-07  0.00000000e+00  0.00000000e+00
  0.00000000e+00 -8.37275880e-09  1.75643515e-07  7.48365435e-07
  0.00000000e+00  0.00000000e+00  0.00000000e+00  6.01580522e-08
  0.00000000e+00  0.00000000e+00  0.00000000e+00  0.00000000e+00
  0.00000000e+00  0.00000000e+00  0.00000000e+00  0.00000000e+00
  0.00000000e+00  0.00000000e+00  0.00000000e+00  0.00000000e+00
  0.00000000e+00  0.00000000e+00  0.00000000e+00  0.00000000e+00
  0.00000000e+00  0.00000000e+00 -8.37275880e-09  6.01580522e-08
  0.00000000e+00  0.00000000e+00  0.00000000e+00  1.52332173e-06]","[[-0.00101047  0.00031534]
 [-0.00185358 -0.00035283]]",[],0.0,0.0
1787133560.6462877,1.454185057347541,-1.7660563845198225,1.1193339686388182,"[ 5.23375573e-07  1.75643515e-07  0.00000000e+00  0.00000000e+00
  0.00000000e+00 -8.37275880e-09  1.75643515e-07  7.48365435e-07
  0.00000000e+00  0.00000000e+00  0.00000000e+00  6.01580522e-08
  0.00000000e+00  0.00000000e+00  0.00000000e+00  0.00000000e+00
  0.00000000e+00  0.00000000e+00  0.00000000e+00  0.00000000e+00
  0.00000000e+00  0.00000000e+00  0.00000000e+00  0.00000000e+00
  0.00000000e+00  0.00000000e+00  0.00000000e+00  0.00000000e+00
  0.00000000e+00  0.00000000e+00 -8.37275880e-09  6.01580522e-08
  0.00000000e+00  0.00000000e+00  0.00000000e+00  1.52332173e-06]","[[-0.00101047  0.00031534]
 [-0.00185358 -0.00035283]]",[],0.0,0.0
1787133560.7357693,1.454185057347541,-1.7660563845198225,1.1193339686388182,"[ 5.23375573e-07  1.75643515e-07  0.00000000e+00  0.00000000e+00
  0.00000000e+00 -8.37275880e-09  1.75643515e-07  7.48365435e-07
  0.00000000e+00  0.00000000e+00  0.00000000e+00  6.01580522e-08
  0.00000000e+00  0.00000000e+00  0.00000000e+00  0.00000000e+00
  0.00000000e+00  0.00000000e+00  0.00000000e+00  0.00000000e+00
  0.00000000e+00  0.00000000e+00  0.00000000e+00  0.00000000e+00
  0.00000000e+00  0.00000000e+00  0.00000000e+00  0.00000000e+00
  0.00000000e+00  0.00000000e+00 -8.37275880e-09  6.01580522e-08
  0.00000000e+00  0.00000000e+00  0.00000000e+00  1.52332173e-06]","[[-0.00101047  0.00031534]
 [-0.00185358 -0.00035283]]",[],0.0,0.0
1787133560.765056,1.454185057347541,-1.7660563845198225,1.1193339686388182,"[ 5.23375573e-07  1.75643515e-07  0.00000000e+00  0.00000000e+00
  0.00000000e+00 -8.37275880e-09  1.75643515e-07  7.48365435e-07
  0.00000000e+00  0.00000000e+00  0.00000000e+00  6.01580522e-08
  0.00000000e+00  0.00000000e+00  0.00000000e+00  0.00000000e+00
  0.00000000e+00  0.00000000e+00  0.00000000e+00  0.00000000e+00
  0.00000000e+00  0.00000000e+00  0.00000000e+00  0.00000000e+00
  0.00000000e+00  0.00000000e+00  0.00000000e+00  0.00000000e+00
  0.00000000e+00  0.00000000e+00 -8.37275880e-09  6.01580522e-08
  0.00000000e+00  0.00000000e+00  0.00000000e+00  1.52332173e-06]","[[-0.00101047  0.00031534]
 [-0.00185358 -0.00035283]]",[],0.0,0.0
1787133560.796573,1.454185057347541,-1.7660563845198225,1.1193339686388182,"[ 5.23375573e-07  1.75643515e-07  0.00000000e+00  0.00000000e+00
  0.00000000e+00 -8.37275880e-09  1.75643515e-07  7.48365435e-07
  0.00000000e+00  0.00000000e+00  0.00000000e+00  6.01580522e-08
  0.00000000e+00  0.00000000e+00  0.00000000e+00  0.00000000e+00
  0.00000000e+00  0.00000000e+00  0.00000000e+00  0.00000000e+00
  0.00000000e+00  0.00000000e+00  0.00000000e+00  0.00000000e+00
  0.00000000e+00  0.00000000e+00  0.00000000e+00  0.00000000e+00
  0.00000000e+00  0.00000000e+00 -8.37275880e-09  6.01580522e-08
  0.00000000e+00  0.00000000e+00  0.00000000e+00  1.52332173e-06]","[[-0.00101047  0.00031534]
 [-0.00185358 -0.00035283]]",[],0.0,0.0
1787133560.8833506,1.454185057347541,-1.7660563845198225,1.1193339686388182,"[ 5.23375573e-07  1.75643515e-07  0.00000000e+00  0.00000000e+00
  0.00000000e+00 -8.37275880e-09  1.75643515e-07  7.48365435e-07
  0.00000000e+00  0.00000000e+00  0.00000000e+00  6.01580522e-08
  0.00000000e+00  0.00000000e+00  0.00000000e+00  0.00000000e+00
  0.00000000e+00  0.00000000e+00  0.00000000e+00  0.00000000e+00
  0.00000000e+00  0.00000000e+00  0.00000000e+00  0.00000000e+00
  0.00000000e+00  0.00000000e+00  0.00000000e+00  0.00000000e+00
  0.00000000e+00  0.00000000e+00 -8.37275880e-09  6.01580522e-08
  0.00000000e+00  0.00000000e+00  0.00000000e+00  1.52332173e-06]","[[-0.00101047  0.00031534]
 [-0.00185358 -0.00035283]]",[],0.0,0.0
1787133560.9029007,1.454185057347541,-1.7660563845198225,1.1193339686388182,"[ 5.23375573e-07  1.75643515e-07  0.00000000e+00  0.00000000e+00
  0.00000000e+00 -8.37275880e-09  1.75643515e-07  7.48365435e-07
  0.00000000e+00  0.00000000e+00  0.00000000e+00  6.01580522e-08
  0.00000000e+00  0.00000000e+00  0.00000000e+00  0.00000000e+00
  0.00000000e+00  0.00000000e+00  0.00000000e+00  0.00000000e+00
  0.00000000e+00  0.00000000e+00  0.00000000e+00  0.00000000e+00
  0.00000000e+00  0.00000000e+00  0.00000000e+00  0.00000000e+00
  0.00000000e+00  0.00000000e+00 -8.37275880e-09  6.01580522e-08
  0.00000000e+00  0.00000000e+00  0.00000000e+00  1.52332173e-06]","[[-0.00101047  0.00031534]
 [-0.00185358 -0.00035283]]",[],0.0,0.0
1787133560.950071,1.454185057347541,-1.7660563845198225,1.1193339686388182,"[ 5.23375573e-07  1.75643515e-07  0.00000000e+00  0.00000000e+00
  0.00000000e+00 -8.37275880e-09  1.75643515e-07  7.48365435e-07
  0.00000000e+00  0.00000000e+00  0.00000000e+00  6.01580522e-08
  0.00000000e+00  0.00000000e+00  0.00000000e+00  0.00000000e+00
  0.00000000e+00  0.00000000e+00  0.00000000e+00  0.00000000e+00
  0.00000000e+00  0.00000000e+00  0.00000000e+00  0.00000000e+00
  0.00000000e+00  0.00000000e+00  0.00000000e+00  0.00000000e+00
  0.00000000e+00  0.00000000e+00 -8.37275880e-09  6.01580522e-08
  0.00000000e+00  0.00000000e+00  0.00000000e+00  1.52332173e-06]","[[-0.00101047  0.00031534]
 [-0.00185358 -0.00035283]]",[],0.0,0.0
1787133561.0002515,1.454185057347541,-1.7660563845198225,1.1193339686388182,"[ 5.23375573e-07  1.75643515e-07  0.00000000e+00  0.00000000e+00
  0.00000000e+00 -8.37275880e-09  1.75643515e-07  7.48365435e-07
  0.00000000e+00  0.00000000e+00  0.00000000e+00  6.01580522e-08
  0.00000000e+00  0.00000000e+00  0.00000000e+00  0.00000000e+00
  0.00000000e+00  0.00000000e+00  0.00000000e+00  0.00000000e+00
  0.00000000e+00  0.00000000e+00  0.00000000e+00  0.00000000e+00
  0.00000000e+00  0.00000000e+00  0.00000000e+00  0.00000000e+00
  0.00000000e+00  0.00000000e+00 -8.37275880e-09  6.01580522e-08
  0.00000000e+00  0.00000000e+00  0.00000000e+00  1.52332173e-06]","[[-0.00101047  0.00031534]
 [-0.00185358 -0.00035283]]",[],0.0,0.0
1787133561.0572894,1.454185057347541,-1.7660563845198225,1.1193339686388182,"[ 5.23375573e-07  1.75643515e-07  0.00000000e+00  0.00000000e+00
  0.00000000e+00 -8.37275880e-09  1.75643515e-07  7.48365435e-07
  0.00000000e+00  0.00000000e+00  0.00000000e+00  6.01580522e-08
  0.00000000e+00  0.00000000e+00  0.00000000e+00  0.00000000e+00
  0.00000000e+00  0.00000000e+00  0.00000000e+00  0.00000000e+00
  0.00000000e+00  0.00000000e+00  0.00000000e+00  0.00000000e+00
  0.00000000e+00  0.00000000e+00  0.00000000e+00  0.00000000e+00
  0.00000000e+00  0.00000000e+00 -8.37275880e-09  6.01580522e-08
  0.00000000e+00  0.00000000e+00  0.00000000e+00  1.52332173e-06]","[[-0.00101047  0.00031534]
 [-0.00185358 -0.00035283]]",[],0.0,0.0
1787133561.0984964,1.454185057347541,-1.7660563845198225,1.1193339686388182,"[ 5.23375573e-07  1.75643515e-07  0.00000000e+00  0.00000000e+00
  0.00000000e+00 -8.37275880e-09  1.75643515e-07  7.48365435e-07
  0.00000000e+00  0.00000000e+00  0.00000000e+00  6.01580522e-08
  0.00000000e+00  0.00000000e+00  0.00000000e+00  0.00000000e+00
  0.00000000e+00  0.00000000e+00  0.00000000e+00  0.00000000e+00
  0.00000000e+00  0.00000000e+00  0.00000000e+00  0.00000000e+00
  0.00000000e+00  0.00000000e+00  0.00000000e+00  0.00000000e+00
  0.00000000e+00  0.00000000e+00 -8.37275880e-09  6.01580522e-08
  0.00000000e+00  0.00000000e+00  0.00000000e+00  1.52332173e-06]","[[-0.00101047  0.00031534]
 [-0.00185358 -0.00035283]]",[],0.0,0.0
1787133561.148876,1.454185057347541,-1.7660563845198225,1.1193339686388182,"[ 5.23375573e-07  1.75643515e-07  0.00000000e+00  0.00000000e+00
  0.00000000e+00 -8.37275880e-09  1.75643515e-07  7.48365435e-07
  0.00000000e+00  0.00000000e+00  0.00000000e+00  6.01580522e-08
  0.00000000e+00  0.00000000e+00  0.00000000e+00  0.00000000e+00
  0.00000000e+00  0.00000000e+00  0.00000000e+00  0.00000000e+00
  0.00000000e+00  0.00000000e+00  0.00000000e+00  0.00000000e+00
  0.00000000e+00  0.00000000e+00  0.00000000e+00  0.00000000e+00
  0.00000000e+00  0.00000000e+00 -8.37275880e-09  6.01580522e-08
  0.00000000e+00  0.00000000e+00  0.00000000e+00  1.52332173e-06]","[[-0.00101047  0.00031534]
 [-0.00185358 -0.00035283]]",[],0.0,0.0
1787133561.2375433,1.4466626108116325,-1.7709456149609537,1.1387329906298103,"[ 4.85135704e-07  2.00045083e-07  0.00000000e+00  0.00000000e+00
  0.00000000e+00 -8.53965010e-09  2.00045083e-07  7.62695353e-07
  0.00000000e+00  0.00000000e+00  0.00000000e+00  6.37386662e-08
  0.00000000e+00  0.00000000e+00  0.00000000e+00  0.00000000e+00
  0.00000000e+00  0.00000000e+00  0.00000000e+00  0.00000000e+00
  0.00000000e+00  0.00000000e+00  0.00000000e+00  0.00000000e+00
  0.00000000e+00  0.00000000e+00  0.00000000e+00  0.00000000e+00
  0.00000000e+00  0.00000000e+00 -8.53965010e-09  6.37386662e-08
  0.00000000e+00  0.00000000e+00  0.00000000e+00  1.53616418e-06]","[[-0.00102932  0.00027729]
 [-0.00190777 -0.0003613 ]]",[],0.0,0.0
1787133561.2463963,1.4466626108116325,-1.7709456149609537,1.1387329906298103,"[ 4.85135704e-07  2.00045083e-07  0.00000000e+00  0.00000000e+00
  0.00000000e+00 -8.53965010e-09  2.00045083e-07  7.62695353e-07
  0.00000000e+00  0.00000000e+00  0.00000000e+00  6.37386662e-08
  0.00000000e+00  0.00000000e+00  0.00000000e+00  0.00000000e+00
  0.00000000e+00  0.00000000e+00  0.00000000e+00  0.00000000e+00
  0.00000000e+00  0.00000000e+00  0.00000000e+00  0.00000000e+00
  0.00000000e+00  0.00000000e+00  0.00000000e+00  0.00000000e+00
  0.00000000e+00  0.00000000e+00 -8.53965010e-09  6.37386662e-08
  0.00000000e+00  0.00000000e+00  0.00000000e+00  1.53616418e-06]","[[-0.00102932  0.00027729]
 [-0.00190777 -0.0003613 ]]",[],0.0,0.0
1787133561.2996292,1.4466626108116325,-1.7709456149609537,1.1387329906298103,"[ 4.85135704e-07  2.00045083e-07  0.00000000e+00  0.00000000e+00
  0.00000000e+00 -8.53965010e-09  2.00045083e-07  7.62695353e-07
  0.00000000e+00  0.00000000e+00  0.00000000e+00  6.37386662e-08
  0.00000000e+00  0.00000000e+00  0.00000000e+00  0.00000000e+00
  0.00000000e+00  0.00000000e+00  0.00000000e+00  0.00000000e+00
  0.00000000e+00  0.00000000e+00  0.00000000e+00  0.00000000e+00
  0.00000000e+00  0.00000000e+00  0.00000000e+00  0.00000000e+00
  0.00000000e+00  0.00000000e+00 -8.53965010e-09  6.37386662e-08
  0.00000000e+00  0.00000000e+00  0.00000000e+00  1.53616418e-06]","[[-0.00102932  0.00027729]
 [-0.00190777 -0.0003613 ]]",[],0.0,0.0
1787133561.3490348,1.4466626108116325,-1.7709456149609537,1.1387329906298103,"[ 4.85135704e-07  2.00045083e-07  0.00000000e+00  0.00000000e+00
  0.00000000e+00 -8.53965010e-09  2.00045083e-07  7.62695353e-07
  0.00000000e+00  0.00000000e+00  0.00000000e+00  6.37386662e-08
  0.00000000e+00  0.00000000e+00  0.00000000e+00  0.00000000e+00
  0.00000000e+00  0.00000000e+00  0.00000000e+00  0.00000000e+00
  0.00000000e+00  0.00000000e+00  0.00000000e+00  0.00000000e+00
  0.00000000e+00  0.00000000e+00  0.00000000e+00  0.00000000e+00
  0.00000000e+00  0.00000000e+00 -8.53965010e-09  6.37386662e-08
  0.00000000e+00  0.00000000e+00  0.00000000e+00  1.53616418e-06]","[[-0.00102932  0.00027729]
 [-0.00190777 -0.0003613 ]]",[],0.0,0.0
1787133561.4015603,1.4466626108116325,-1.7709456149609537,1.1387329906298103,"[ 4.85135704e-07  2.00045083e-07  0.00000000e+00  0.00000000e+00
  0.00000000e+00 -8.53965010e-09  2.00045083e-07  7.62695353e-07
  0.00000000e+00  0.00000000e+00  0.00000000e+00  6.37386662e-08
  0.00000000e+00  0.00000000e+00  0.00000000e+00  0.00000000e+00
  0.00000000e+00  0.00000000e+00  0.00000000e+00  0.00000000e+00
  0.00000000e+00  0.00000000e+00  0.00000000e+00  0.00000000e+00
  0.00000000e+00  0.00000000e+00  0.00000000e+00  0.00000000e+00
  0.00000000e+00  0.00000000e+00 -8.53965010e-09  6.37386662e-08
  0.00000000e+00  0.00000000e+00  0.00000000e+00  1.53616418e-06]","[[-0.00102932  0.00027729]
 [-0.00190777 -0.0003613 ]]",[],0.0,0.0
1787133561.4463968,1.4466626108116325,-1.7709456149609537,1.1387329906298103,"[ 4.85135704e-07  2.00045083e-07  0.00000000e+00  0.00000000e+00
  0.00000000e+00 -8.53965010e-09  2.00045083e-07  7.62695353e-07
  0.00000000e+00  0.00000000e+00  0.00000000e+00  6.37386662e-08
  0.00000000e+00  0.00000000e+00  0.00000000e+00  0.00000000e+00
  0.00000000e+00  0.00000000e+00  0.00000000e+00  0.00000000e+00
  0.00000000e+00  0.00000000e+00  0.00000000e+00  0.00000000e+00
  0.00000000e+00  0.00000000e+00  0.00000000e+00  0.00000000e+00
  0.00000000e+00  0.00000000e+00 -8.53965010e-09  6.37386662e-08
  0.00000000e+00  0.00000000e+00  0.00000000e+00  1.53616418e-06]","[[-0.00102932  0.00027729]
 [-0.00190777 -0.0003613 ]]",[],0.0,0.0
1787133561.5060856,1.4466626108116325,-1.7709456149609537,1.1387329906298103,"[ 4.85135704e-07  2.00045083e-07  0.00000000e+00  0.00000000e+00
  0.00000000e+00 -8.53965010e-09  2.00045083e-07  7.62695353e-07
  0.00000000e+00  0.00000000e+00  0.00000000e+00  6.37386662e-08
  0.00000000e+00  0.00000000e+00  0.00000000e+00  0.00000000e+00
  0.00000000e+00  0.00000000e+00  0.00000000e+00  0.00000000e+00
  0.00000000e+00  0.00000000e+00  0.00000000e+00  0.00000000e+00
  0.00000000e+00  0.00000000e+00  0.00000000e+00  0.00000000e+00
  0.00000000e+00  0.00000000e+00 -8.53965010e-09  6.37386662e-08
  0.00000000e+00  0.00000000e+00  0.00000000e+00  1.53616418e-06]","[[-0.00102932  0.00027729]
 [-0.00190777 -0.0003613 ]]",[],0.0,0.0
1787133561.5655947,1.4466626108116325,-1.7709456149609537,1.1387329906298103,"[ 4.85135704e-07  2.00045083e-07  0.00000000e+00  0.00000000e+00
  0.00000000e+00 -8.53965010e-09  2.00045083e-07  7.62695353e-07
  0.00000000e+00  0.00000000e+00  0.00000000e+00  6.37386662e-08
  0.00000000e+00  0.00000000e+00  0.00000000e+00  0.00000000e+00
  0.00000000e+00  0.00000000e+00  0.00000000e+00  0.00000000e+00
  0.00000000e+00  0.00000000e+00  0.00000000e+00  0.00000000e+00
  0.00000000e+00  0.00000000e+00  0.00000000e+00  0.00000000e+00
  0.00000000e+00  0.00000000e+00 -8.53965010e-09  6.37386662e-08
  0.00000000e+00  0.00000000e+00  0.00000000e+00  1.53616418e-06]","[[-0.00102932  0.00027729]
 [-0.00190777 -0.0003613 ]]",[],0.0,0.0
1787133561.5960906,1.4466626108116325,-1.7709456149609537,1.1387329906298103,"[ 4.85135704e-07  2.00045083e-07  0.00000000e+00  0.00000000e+00
  0.00000000e+00 -8.53965010e-09  2.00045083e-07  7.62695353e-07
  0.00000000e+00  0.00000000e+00  0.00000000e+00  6.37386662e-08
  0.00000000e+00  0.00000000e+00  0.00000000e+00  0.00000000e+00
  0.00000000e+00  0.00000000e+00  0.00000000e+00  0.00000000e+00
  0.00000000e+00  0.00000000e+00  0.00000000e+00  0.00000000e+00
  0.00000000e+00  0.00000000e+00  0.00000000e+00  0.00000000e+00
  0.00000000e+00  0.00000000e+00 -8.53965010e-09  6.37386662e-08
  0.00000000e+00  0.00000000e+00  0.00000000e+00  1.53616418e-06]","[[-0.00102932  0.00027729]
 [-0.00190777 -0.0003613 ]]",[],0.0,0.0
1787133561.6495867,1.4466626108116325,-1.7709456149609537,1.1387329906298103,"[ 4.85135704e-07  2.00045083e-07  0.00000000e+00  0.00000000e+00
  0.00000000e+00 -8.53965010e-09  2.00045083e-07  7.62695353e-07
  0.00000000e+00  0.00000000e+00  0.00000000e+00  6.37386662e-08
  0.00000000e+00  0.00000000e+00  0.00000000e+00  0.00000000e+00
  0.00000000e+00  0.00000000e+00  0.00000000e+00  0.00000000e+00
  0.00000000e+00  0.00000000e+00  0.00000000e+00  0.00000000e+00
  0.00000000e+00  0.00000000e+00  0.00000000e+00  0.00000000e+00
  0.00000000e+00  0.00000000e+00 -8.53965010e-09  6.37386662e-08
  0.00000000e+00  0.00000000e+00  0.00000000e+00  1.53616418e-06]","[[-0.00102932  0.00027729]
 [-0.00190777 -0.0003613 ]]",[],0.0,0.0
1787133561.699287,1.4466626108116325,-1.7709456149609537,1.1387329906298103,"[ 4.85135704e-07  2.00045083e-07  0.00000000e+00  0.00000000e+00
  0.00000000e+00 -8.53965010e-09  2.00045083e-07  7.62695353e-07
  0.00000000e+00  0.00000000e+00  0.00000000e+00  6.37386662e-08
  0.00000000e+00  0.00000000e+00  0.00000000e+00  0.00000000e+00
  0.00000000e+00  0.00000000e+00  0.00000000e+00  0.00000000e+00
  0.00000000e+00  0.00000000e+00  0.00000000e+00  0.00000000e+00
  0.00000000e+00  0.00000000e+00  0.00000000e+00  0.00000000e+00
  0.00000000e+00  0.00000000e+00 -8.53965010e-09  6.37386662e-08
  0.00000000e+00  0.00000000e+00  0.00000000e+00  1.53616418e-06]","[[-0.00102932  0.00027729]
 [-0.00190777 -0.0003613 ]]",[],0.0,0.0
1787133561.7502246,1.4466626108116325,-1.7709456149609537,1.1387329906298103,"[ 4.85135704e-07  2.00045083e-07  0.00000000e+00  0.00000000e+00
  0.00000000e+00 -8.53965010e-09  2.00045083e-07  7.62695353e-07
  0.00000000e+00  0.00000000e+00  0.00000000e+00  6.37386662e-08
  0.00000000e+00  0.00000000e+00  0.00000000e+00  0.00000000e+00
  0.00000000e+00  0.00000000e+00  0.00000000e+00  0.00000000e+00
  0.00000000e+00  0.00000000e+00  0.00000000e+00  0.00000000e+00
  0.00000000e+00  0.00000000e+00  0.00000000e+00  0.00000000e+00
  0.00000000e+00  0.00000000e+00 -8.53965010e-09  6.37386662e-08
  0.00000000e+00  0.00000000e+00  0.00000000e+00  1.53616418e-06]","[[-0.00102932  0.00027729]
 [-0.00190777 -0.0003613 ]]",[],0.0,0.0
1787133561.8035638,1.4466626108116325,-1.7709456149609537,1.1387329906298103,"[ 4.85135704e-07  2.00045083e-07  0.00000000e+00  0.00000000e+00
  0.00000000e+00 -8.53965010e-09  2.00045083e-07  7.62695353e-07
  0.00000000e+00  0.00000000e+00  0.00000000e+00  6.37386662e-08
  0.00000000e+00  0.00000000e+00  0.00000000e+00  0.00000000e+00
  0.00000000e+00  0.00000000e+00  0.00000000e+00  0.00000000e+00
  0.00000000e+00  0.00000000e+00  0.00000000e+00  0.00000000e+00
  0.00000000e+00  0.00000000e+00  0.00000000e+00  0.00000000e+00
  0.00000000e+00  0.00000000e+00 -8.53965010e-09  6.37386662e-08
  0.00000000e+00  0.00000000e+00  0.00000000e+00  1.53616418e-06]","[[-0.00102932  0.00027729]
 [-0.00190777 -0.0003613 ]]",[],0.0,0.0
1787133561.8599696,1.4466626108116325,-1.7709456149609537,1.1387329906298103,"[ 4.85135704e-07  2.00045083e-07  0.00000000e+00  0.00000000e+00
  0.00000000e+00 -8.53965010e-09  2.00045083e-07  7.62695353e-07
  0.00000000e+00  0.00000000e+00  0.00000000e+00  6.37386662e-08
  0.00000000e+00  0.00000000e+00  0.00000000e+00  0.00000000e+00
  0.00000000e+00  0.00000000e+00  0.00000000e+00  0.00000000e+00
  0.00000000e+00  0.00000000e+00  0.00000000e+00  0.00000000e+00
  0.00000000e+00  0.00000000e+00  0.00000000e+00  0.00000000e+00
  0.00000000e+00  0.00000000e+00 -8.53965010e-09  6.37386662e-08
  0.00000000e+00  0.00000000e+00  0.00000000e+00  1.53616418e-06]","[[-0.00102932  0.00027729]
 [-0.00190777 -0.0003613 ]]",[],0.0,0.0
1787133561.8961003,1.4466626108116325,-1.7709456149609537,1.1387329906298103,"[ 4.85135704e-07  2.00045083e-07  0.00000000e+00  0.00000000e+00
  0.00000000e+00 -8.53965010e-09  2.00045083e-07  7.62695353e-07
  0.00000000e+00  0.00000000e+00  0.00000000e+00  6.37386662e-08
  0.00000000e+00  0.00000000e+00  0.00000000e+00  0.00000000e+00
  0.00000000e+00  0.00000000e+00  0.00000000e+00  0.00000000e+00
  0.00000000e+00  0.00000000e+00  0.00000000e+00  0.00000000e+00
  0.00000000e+00  0.00000000e+00  0.00000000e+00  0.00000000e+00
  0.00000000e+00  0.00000000e+00 -8.53965010e-09  6.37386662e-08
  0.00000000e+00  0.00000000e+00  0.00000000e+00  1.53616418e-06]","[[-0.00102932  0.00027729]
 [-0.00190777 -0.0003613 ]]",[],0.0,0.0
1787133561.9578285,1.4466626108116325,-1.7709456149609537,1.1387329906298103,"[ 4.85135704e-07  2.00045083e-07  0.00000000e+00  0.00000000e+00
  0.00000000e+00 -8.53965010e-09  2.00045083e-07  7.62695353e-07
  0.00000000e+00  0.00000000e+00  0.00000000e+00  6.37386662e-08
  0.00000000e+00  0.00000000e+00  0.00000000e+00  0.00000000e+00
  0.00000000e+00  0.00000000e+00  0.00000000e+00  0.00000000e+00
  0.00000000e+00  0.00000000e+00  0.00000000e+00  0.00000000e+00
  0.00000000e+00  0.00000000e+00  0.00000000e+00  0.00000000e+00
  0.00000000e+00  0.00000000e+00 -8.53965010e-09  6.37386662e-08
  0.00000000e+00  0.00000000e+00  0.00000000e+00  1.53616418e-06]","[[-0.00102932  0.00027729]
 [-0.00190777 -0.0003613 ]]",[],0.0,0.0
1787133562.0116317,1.4386231536578291,-1.7762559903262671,1.1524637480061504,"[ 4.46552324e-07  2.04552310e-07  0.00000000e+00  0.00000000e+00
  0.00000000e+00 -9.55101899e-09  2.04552310e-07  7.47058821e-07
  0.00000000e+00  0.00000000e+00  0.00000000e+00  5.20764048e-08
  0.00000000e+00  0.00000000e+00  0.00000000e+00  0.00000000e+00
  0.00000000e+00  0.00000000e+00  0.00000000e+00  0.00000000e+00
  0.00000000e+00  0.00000000e+00  0.00000000e+00  0.00000000e+00
  0.00000000e+00  0.00000000e+00  0.00000000e+00  0.00000000e+00
  0.00000000e+00  0.00000000e+00 -9.55101899e-09  5.20764048e-08
  0.00000000e+00  0.00000000e+00  0.00000000e+00  1.53663295e-06]","[[-0.00097993  0.0002577 ]
 [-0.00188662 -0.00030439]]",[],0.0,0.0
1787133562.0467856,1.4386231536578291,-1.7762559903262671,1.1524637480061504,"[ 4.46552324e-07  2.04552310e-07  0.00000000e+00  0.00000000e+00
  0.00000000e+00 -9.55101899e-09  2.04552310e-07  7.47058821e-07
  0.00000000e+00  0.00000000e+00  0.00000000e+00  5.20764048e-08
  0.00000000e+00  0.00000000e+00  0.00000000e+00  0.00000000e+00
  0.00000000e+00  0.00000000e+00  0.00000000e+00  0.00000000e+00
  0.00000000e+00  0.00000000e+00  0.00000000e+00  0.00000000e+00
  0.00000000e+00  0.00000000e+00  0.00000000e+00  0.00000000e+00
  0.00000000e+00  0.00000000e+00 -9.55101899e-09  5.20764048e-08
  0.00000000e+00  0.00000000e+00  0.00000000e+00  1.53663295e-06]","[[-0.00097993  0.0002577 ]
 [-0.00188662 -0.00030439]]",[],0.0,0.0
1787133562.1215372,1.4386231536578291,-1.7762559903262671,1.1524637480061504,"[ 4.46552324e-07  2.04552310e-07  0.00000000e+00  0.00000000e+00
  0.00000000e+00 -9.55101899e-09  2.04552310e-07  7.47058821e-07
  0.00000000e+00  0.00000000e+00  0.00000000e+00  5.20764048e-08
  0.00000000e+00  0.00000000e+00  0.00000000e+00  0.00000000e+00
  0.00000000e+00  0.00000000e+00  0.00000000e+00  0.00000000e+00
  0.00000000e+00  0.00000000e+00  0.00000000e+00  0.00000000e+00
  0.00000000e+00  0.00000000e+00  0.00000000e+00  0.00000000e+00
  0.00000000e+00  0.00000000e+00 -9.55101899e-09  5.20764048e-08
  0.00000000e+00  0.00000000e+00  0.00000000e+00  1.53663295e-06]","[[-0.00097993  0.0002577 ]
 [-0.00188662 -0.00030439]]",[],0.0,0.0
1787133562.146964,1.4386231536578291,-1.7762559903262671,1.1524637480061504,"[ 4.46552324e-07  2.04552310e-07  0.00000000e+00  0.00000000e+00
  0.00000000e+00 -9.55101899e-09  2.04552310e-07  7.47058821e-07
  0.00000000e+00  0.00000000e+00  0.00000000e+00  5.20764048e-08
  0.00000000e+00  0.00000000e+00  0.00000000e+00  0.00000000e+00
  0.00000000e+00  0.00000000e+00  0.00000000e+00  0.00000000e+00
  0.00000000e+00  0.00000000e+00  0.00000000e+00  0.00000000e+00
  0.00000000e+00  0.00000000e+00  0.00000000e+00  0.00000000e+00
  0.00000000e+00  0.00000000e+00 -9.55101899e-09  5.20764048e-08
  0.00000000e+00  0.00000000e+00  0.00000000e+00  1.53663295e-06]","[[-0.00097993  0.0002577 ]
 [-0.00188662 -0.00030439]]",[],0.0,0.0
1787133562.1963997,1.4386231536578291,-1.7762559903262671,1.1524637480061504,"[ 4.46552324e-07  2.04552310e-07  0.00000000e+00  0.00000000e+00
  0.00000000e+00 -9.55101899e-09  2.04552310e-07  7.47058821e-07
  0.00000000e+00  0.00000000e+00  0.00000000e+00  5.20764048e-08
  0.00000000e+00  0.00000000e+00  0.00000000e+00  0.00000000e+00
  0.00000000e+00  0.00000000e+00  0.00000000e+00  0.00000000e+00
  0.00000000e+00  0.00000000e+00  0.00000000e+00  0.00000000e+00
  0.00000000e+00  0.00000000e+00  0.00000000e+00  0.00000000e+00
  0.00000000e+00  0.00000000e+00 -9.55101899e-09  5.20764048e-08
  0.00000000e+00  0.00000000e+00  0.00000000e+00  1.53663295e-06]","[[-0.00097993  0.0002577 ]
 [-0.00188662 -0.00030439]]",[],0.0,0.0
1787133562.2686868,1.4386231536578291,-1.7762559903262671,1.1524637480061504,"[ 4.46552324e-07  2.04552310e-07  0.00000000e+00  0.00000000e+00
  0.00000000e+00 -9.55101899e-09  2.04552310e-07  7.47058821e-07
  0.00000000e+00  0.00000000e+00  0.00000000e+00  5.20764048e-08
  0.00000000e+00  0.00000000e+00  0.00000000e+00  0.00000000e+00
  0.00000000e+00  0.00000000e+00  0.00000000e+00  0.00000000e+00
  0.00000000e+00  0.00000000e+00  0.00000000e+00  0.00000000e+00
  0.00000000e+00  0.00000000e+00  0.00000000e+00  0.00000000e+00
  0.00000000e+00  0.00000000e+00 -9.55101899e-09  5.20764048e-08
  0.00000000e+00  0.00000000e+00  0.00000000e+00  1.53663295e-06]","[[-0.00097993  0.0002577 ]
 [-0.00188662 -0.00030439]]",[],0.0,0.0
1787133562.3182206,1.4386231536578291,-1.7762559903262671,1.1524637480061504,"[ 4.46552324e-07  2.04552310e-07  0.00000000e+00  0.00000000e+00
  0.00000000e+00 -9.55101899e-09  2.04552310e-07  7.47058821e-07
  0.00000000e+00  0.00000000e+00  0.00000000e+00  5.20764048e-08
  0.00000000e+00  0.00000000e+00  0.00000000e+00  0.00000000e+00
  0.00000000e+00  0.00000000e+00  0.00000000e+00  0.00000000e+00
  0.00000000e+00  0.00000000e+00  0.00000000e+00  0.00000000e+00
  0.00000000e+00  0.00000000e+00  0.00000000e+00  0.00000000e+00
  0.00000000e+00  0.00000000e+00 -9.55101899e-09  5.20764048e-08
  0.00000000e+00  0.00000000e+00  0.00000000e+00  1.53663295e-06]","[[-0.00097993  0.0002577 ]
 [-0.00188662 -0.00030439]]",[],0.0,0.0
1787133562.3474457,1.4386231536578291,-1.7762559903262671,1.1524637480061504,"[ 4.46552324e-07  2.04552310e-07  0.00000000e+00  0.00000000e+00
  0.00000000e+00 -9.55101899e-09  2.04552310e-07  7.47058821e-07
  0.00000000e+00  0.00000000e+00  0.00000000e+00  5.20764048e-08
  0.00000000e+00  0.00000000e+00  0.00000000e+00  0.00000000e+00
  0.00000000e+00  0.00000000e+00  0.00000000e+00  0.00000000e+00
  0.00000000e+00  0.00000000e+00  0.00000000e+00  0.00000000e+00
  0.00000000e+00  0.00000000e+00  0.00000000e+00  0.00000000e+00
  0.00000000e+00  0.00000000e+00 -9.55101899e-09  5.20764048e-08
  0.00000000e+00  0.00000000e+00  0.00000000e+00  1.53663295e-06]","[[-0.00097993  0.0002577 ]
 [-0.00188662 -0.00030439]]",[],0.0,0.0
1787133562.3960056,1.4386231536578291,-1.7762559903262671,1.1524637480061504,"[ 4.46552324e-07  2.04552310e-07  0.00000000e+00  0.00000000e+00
  0.00000000e+00 -9.55101899e-09  2.04552310e-07  7.47058821e-07
  0.00000000e+00  0.00000000e+00  0.00000000e+00  5.20764048e-08
  0.00000000e+00  0.00000000e+00  0.00000000e+00  0.00000000e+00
  0.00000000e+00  0.00000000e+00  0.00000000e+00  0.00000000e+00
  0.00000000e+00  0.00000000e+00  0.00000000e+00  0.00000000e+00
  0.00000000e+00  0.00000000e+00  0.00000000e+00  0.00000000e+00
  0.00000000e+00  0.00000000e+00 -9.55101899e-09  5.20764048e-08
  0.00000000e+00  0.00000000e+00  0.00000000e+00  1.53663295e-06]","[[-0.00097993  0.0002577 ]
 [-0.00188662 -0.00030439]]",[],0.0,0.0
1787133562.4469316,1.4386231536578291,-1.7762559903262671,1.1524637480061504,"[ 4.46552324e-07  2.04552310e-07  0.00000000e+00  0.00000000e+00
  0.00000000e+00 -9.55101899e-09  2.04552310e-07  7.47058821e-07
  0.00000000e+00  0.00000000e+00  0.00000000e+00  5.20764048e-08
  0.00000000e+00  0.00000000e+00  0.00000000e+00  0.00000000e+00
  0.00000000e+00  0.00000000e+00  0.00000000e+00  0.00000000e+00
  0.00000000e+00  0.00000000e+00  0.00000000e+00  0.00000000e+00
  0.00000000e+00  0.00000000e+00  0.00000000e+00  0.00000000e+00
  0.00000000e+00  0.00000000e+00 -9.55101899e-09  5.20764048e-08
  0.00000000e+00  0.00000000e+00  0.00000000e+00  1.53663295e-06]","[[-0.00097993  0.0002577 ]
 [-0.00188662 -0.00030439]]",[],0.0,0.0
1787133562.496979,1.4386231536578291,-1.7762559903262671,1.1524637480061504,"[ 4.46552324e-07  2.04552310e-07  0.00000000e+00  0.00000000e+00
  0.00000000e+00 -9.55101899e-09  2.04552310e-07  7.47058821e-07
  0.00000000e+00  0.00000000e+00  0.00000000e+00  5.20764048e-08
  0.00000000e+00  0.00000000e+00  0.00000000e+00  0.00000000e+00
  0.00000000e+00  0.00000000e+00  0.00000000e+00  0.00000000e+00
  0.00000000e+00  0.00000000e+00  0.00000000e+00  0.00000000e+00
  0.00000000e+00  0.00000000e+00  0.00000000e+00  0.00000000e+00
  0.00000000e+00  0.00000000e+00 -9.55101899e-09  5.20764048e-08
  0.00000000e+00  0.00000000e+00  0.00000000e+00  1.53663295e-06]","[[-0.00097993  0.0002577 ]
 [-0.00188662 -0.00030439]]",[],0.0,0.0
1787133562.580898,1.4386231536578291,-1.7762559903262671,1.1524637480061504,"[ 4.46552324e-07  2.04552310e-07  0.00000000e+00  0.00000000e+00
  0.00000000e+00 -9.55101899e-09  2.04552310e-07  7.47058821e-07
  0.00000000e+00  0.00000000e+00  0.00000000e+00  5.20764048e-08
  0.00000000e+00  0.00000000e+00  0.00000000e+00  0.00000000e+00
  0.00000000e+00  0.00000000e+00  0.00000000e+00  0.00000000e+00
  0.00000000e+00  0.00000000e+00  0.00000000e+00  0.00000000e+00
  0.00000000e+00  0.00000000e+00  0.00000000e+00  0.00000000e+00
  0.00000000e+00  0.00000000e+00 -9.55101899e-09  5.20764048e-08
  0.00000000e+00  0.00000000e+00  0.00000000e+00  1.53663295e-06]","[[-0.00097993  0.0002577 ]
 [-0.00188662 -0.00030439]]",[],0.0,0.0
1787133562.5984676,1.4386231536578291,-1.7762559903262671,1.1524637480061504,"[ 4.46552324e-07  2.04552310e-07  0.00000000e+00  0.00000000e+00
  0.00000000e+00 -9.55101899e-09  2.04552310e-07  7.47058821e-07
  0.00000000e+00  0.00000000e+00  0.00000000e+00  5.20764048e-08
  0.00000000e+00  0.00000000e+00  0.00000000e+00  0.00000000e+00
  0.00000000e+00  0.00000000e+00  0.00000000e+00  0.00000000e+00
  0.00000000e+00  0.00000000e+00  0.00000000e+00  0.00000000e+00
  0.00000000e+00  0.00000000e+00  0.00000000e+00  0.00000000e+00
  0.00000000e+00  0.00000000e+00 -9.55101899e-09  5.20764048e-08
  0.00000000e+00  0.00000000e+00  0.00000000e+00  1.53663295e-06]","[[-0.00097993  0.0002577 ]
 [-0.00188662 -0.00030439]]",[],0.0,0.0
1787133562.6462479,1.4386231536578291,-1.7762559903262671,1.1524637480061504,"[ 4.46552324e-07  2.04552310e-07  0.00000000e+00  0.00000000e+00
  0.00000000e+00 -9.55101899e-09  2.04552310e-07  7.47058821e-07
  0.00000000e+00  0.00000000e+00  0.00000000e+00  5.20764048e-08
  0.00000000e+00  0.00000000e+00  0.00000000e+00  0.00000000e+00
  0.00000000e+00  0.00000000e+00  0.00000000e+00  0.00000000e+00
  0.00000000e+00  0.00000000e+00  0.00000000e+00  0.00000000e+00
  0.00000000e+00  0.00000000e+00  0.00000000e+00  0.00000000e+00
  0.00000000e+00  0.00000000e+00 -9.55101899e-09  5.20764048e-08
  0.00000000e+00  0.00000000e+00  0.00000000e+00  1.53663295e-06]","[[-0.00097993  0.0002577 ]
 [-0.00188662 -0.00030439]]",[],0.0,0.0
1787133562.704973,1.4386231536578291,-1.7762559903262671,1.1524637480061504,"[ 4.46552324e-07  2.04552310e-07  0.00000000e+00  0.00000000e+00
  0.00000000e+00 -9.55101899e-09  2.04552310e-07  7.47058821e-07
  0.00000000e+00  0.00000000e+00  0.00000000e+00  5.20764048e-08
  0.00000000e+00  0.00000000e+00  0.00000000e+00  0.00000000e+00
  0.00000000e+00  0.00000000e+00  0.00000000e+00  0.00000000e+00
  0.00000000e+00  0.00000000e+00  0.00000000e+00  0.00000000e+00
  0.00000000e+00  0.00000000e+00  0.00000000e+00  0.00000000e+00
  0.00000000e+00  0.00000000e+00 -9.55101899e-09  5.20764048e-08
  0.00000000e+00  0.00000000e+00  0.00000000e+00  1.53663295e-06]","[[-0.00097993  0.0002577 ]
 [-0.00188662 -0.00030439]]",[],0.0,0.0
1787133562.7466369,1.4386231536578291,-1.7762559903262671,1.1524637480061504,"[ 4.46552324e-07  2.04552310e-07  0.00000000e+00  0.00000000e+00
  0.00000000e+00 -9.55101899e-09  2.04552310e-07  7.47058821e-07
  0.00000000e+00  0.00000000e+00  0.00000000e+00  5.20764048e-08
  0.00000000e+00  0.00000000e+00  0.00000000e+00  0.00000000e+00
  0.00000000e+00  0.00000000e+00  0.00000000e+00  0.00000000e+00
  0.00000000e+00  0.00000000e+00  0.00000000e+00  0.00000000e+00
  0.00000000e+00  0.00000000e+00  0.00000000e+00  0.00000000e+00
  0.00000000e+00  0.00000000e+00 -9.55101899e-09  5.20764048e-08
  0.00000000e+00  0.00000000e+00  0.00000000e+00  1.53663295e-06]","[[-0.00097993  0.0002577 ]
 [-0.00188662 -0.00030439]]",[],0.0,0.0
1787133562.7972853,1.4314370285488056,-1.7826210635438808,1.1615902967803091,"[ 4.14769070e-07  2.08770379e-07  0.00000000e+00  0.00000000e+00
  0.00000000e+00 -2.74397765e-09  2.08770379e-07  7.37865473e-07
  0.00000000e+00  0.00000000e+00  0.00000000e+00  5.84904739e-08
  0.00000000e+00  0.00000000e+00  0.00000000e+00  0.00000000e+00
  0.00000000e+00  0.00000000e+00  0.00000000e+00  0.00000000e+00
  0.00000000e+00  0.00000000e+00  0.00000000e+00  0.00000000e+00
  0.00000000e+00  0.00000000e+00  0.00000000e+00  0.00000000e+00
  0.00000000e+00  0.00000000e+00 -2.74397765e-09  5.84904739e-08
  0.00000000e+00  0.00000000e+00  0.00000000e+00  1.54261513e-06]","[[-0.00092471  0.00022384]
 [-0.00188626 -0.00029682]]",[],0.0,0.0
1787133562.8481283,1.4314370285488056,-1.7826210635438808,1.1615902967803091,"[ 4.14769070e-07  2.08770379e-07  0.00000000e+00  0.00000000e+00
  0.00000000e+00 -2.74397765e-09  2.08770379e-07  7.37865473e-07
  0.00000000e+00  0.00000000e+00  0.00000000e+00  5.84904739e-08
  0.00000000e+00  0.00000000e+00  0.00000000e+00  0.00000000e+00
  0.00000000e+00  0.00000000e+00  0.00000000e+00  0.00000000e+00
  0.00000000e+00  0.00000000e+00  0.00000000e+00  0.00000000e+00
  0.00000000e+00  0.00000000e+00  0.00000000e+00  0.00000000e+00
  0.00000000e+00  0.00000000e+00 -2.74397765e-09  5.84904739e-08
  0.00000000e+00  0.00000000e+00  0.00000000e+00  1.54261513e-06]","[[-0.00092471  0.00022384]
 [-0.00188626 -0.00029682]]",[],0.0,0.0
1787133562.9093251,1.4314370285488056,-1.7826210635438808,1.1615902967803091,"[ 4.14769070e-07  2.08770379e-07  0.00000000e+00  0.00000000e+00
  0.00000000e+00 -2.74397765e-09  2.08770379e-07  7.37865473e-07
  0.00000000e+00  0.00000000e+00  0.00000000e+00  5.84904739e-08
  0.00000000e+00  0.00000000e+00  0.00000000e+00  0.00000000e+00
  0.00000000e+00  0.00000000e+00  0.00000000e+00  0.00000000e+00
  0.00000000e+00  0.00000000e+00  0.00000000e+00  0.00000000e+00
  0.00000000e+00  0.00000000e+00  0.00000000e+00  0.00000000e+00
  0.00000000e+00  0.00000000e+00 -2.74397765e-09  5.84904739e-08
  0.00000000e+00  0.00000000e+00  0.00000000e+00  1.54261513e-06]","[[-0.00092471  0.00022384]
 [-0.00188626 -0.00029682]]",[],0.0,0.0
1787133562.9473472,1.4314370285488056,-1.7826210635438808,1.1615902967803091,"[ 4.14769070e-07  2.08770379e-07  0.00000000e+00  0.00000000e+00
  0.00000000e+00 -2.74397765e-09  2.08770379e-07  7.37865473e-07
  0.00000000e+00  0.00000000e+00  0.00000000e+00  5.84904739e-08
  0.00000000e+00  0.00000000e+00  0.00000000e+00  0.00000000e+00
  0.00000000e+00  0.00000000e+00  0.00000000e+00  0.00000000e+00
  0.00000000e+00  0.00000000e+00  0.00000000e+00  0.00000000e+00
  0.00000000e+00  0.00000000e+00  0.00000000e+00  0.00000000e+00
  0.00000000e+00  0.00000000e+00 -2.74397765e-09  5.84904739e-08
  0.00000000e+00  0.00000000e+00  0.00000000e+00  1.54261513e-06]","[[-0.00092471  0.00022384]
 [-0.00188626 -0.00029682]]",[],0.0,0.0
1787133562.9984066,1.4314370285488056,-1.7826210635438808,1.1615902967803091,"[ 4.14769070e-07  2.08770379e-07  0.00000000e+00  0.00000000e+00
  0.00000000e+00 -2.74397765e-09  2.08770379e-07  7.37865473e-07
  0.00000000e+00  0.00000000e+00  0.00000000e+00  5.84904739e-08
  0.00000000e+00  0.00000000e+00  0.00000000e+00  0.00000000e+00
  0.00000000e+00  0.00000000e+00  0.00000000e+00  0.00000000e+00
  0.00000000e+00  0.00000000e+00  0.00000000e+00  0.00000000e+00
  0.00000000e+00  0.00000000e+00  0.00000000e+00  0.00000000e+00
  0.00000000e+00  0.00000000e+00 -2.74397765e-09  5.84904739e-08
  0.00000000e+00  0.00000000e+00  0.00000000e+00  1.54261513e-06]","[[-0.00092471  0.00022384]
 [-0.00188626 -0.00029682]]",[],0.0,0.0
1787133563.0460663,1.4314370285488056,-1.7826210635438808,1.1615902967803091,"[ 4.14769070e-07  2.08770379e-07  0.00000000e+00  0.00000000e+00
  0.00000000e+00 -2.74397765e-09  2.08770379e-07  7.37865473e-07
  0.00000000e+00  0.00000000e+00  0.00000000e+00  5.84904739e-08
  0.00000000e+00  0.00000000e+00  0.00000000e+00  0.00000000e+00
  0.00000000e+00  0.00000000e+00  0.00000000e+00  0.00000000e+00
  0.00000000e+00  0.00000000e+00  0.00000000e+00  0.00000000e+00
  0.00000000e+00  0.00000000e+00  0.00000000e+00  0.00000000e+00
  0.00000000e+00  0.00000000e+00 -2.74397765e-09  5.84904739e-08
  0.00000000e+00  0.00000000e+00  0.00000000e+00  1.54261513e-06]","[[-0.00092471  0.00022384]
 [-0.00188626 -0.00029682]]",[],0.0,0.0
1787133563.0973415,1.4314370285488056,-1.7826210635438808,1.1615902967803091,"[ 4.14769070e-07  2.08770379e-07  0.00000000e+00  0.00000000e+00
  0.00000000e+00 -2.74397765e-09  2.08770379e-07  7.37865473e-07
  0.00000000e+00  0.00000000e+00  0.00000000e+00  5.84904739e-08
  0.00000000e+00  0.00000000e+00  0.00000000e+00  0.00000000e+00
  0.00000000e+00  0.00000000e+00  0.00000000e+00  0.00000000e+00
  0.00000000e+00  0.00000000e+00  0.00000000e+00  0.00000000e+00
  0.00000000e+00  0.00000000e+00  0.00000000e+00  0.00000000e+00
  0.00000000e+00  0.00000000e+00 -2.74397765e-09  5.84904739e-08
  0.00000000e+00  0.00000000e+00  0.00000000e+00  1.54261513e-06]","[[-0.00092471  0.00022384]
 [-0.00188626 -0.00029682]]",[],0.0,0.0
1787133563.146365,1.4314370285488056,-1.7826210635438808,1.1615902967803091,"[ 4.14769070e-07  2.08770379e-07  0.00000000e+00  0.00000000e+00
  0.00000000e+00 -2.74397765e-09  2.08770379e-07  7.37865473e-07
  0.00000000e+00  0.00000000e+00  0.00000000e+00  5.84904739e-08
  0.00000000e+00  0.00000000e+00  0.00000000e+00  0.00000000e+00
  0.00000000e+00  0.00000000e+00  0.00000000e+00  0.00000000e+00
  0.00000000e+00  0.00000000e+00  0.00000000e+00  0.00000000e+00
  0.00000000e+00  0.00000000e+00  0.00000000e+00  0.00000000e+00
  0.00000000e+00  0.00000000e+00 -2.74397765e-09  5.84904739e-08
  0.00000000e+00  0.00000000e+00  0.00000000e+00  1.54261513e-06]","[[-0.00092471  0.00022384]
 [-0.00188626 -0.00029682]]",[],0.0,0.0
1787133563.2064917,1.4314370285488056,-1.7826210635438808,1.1615902967803091,"[ 4.14769070e-07  2.08770379e-07  0.00000000e+00  0.00000000e+00
  0.00000000e+00 -2.74397765e-09  2.08770379e-07  7.37865473e-07
  0.00000000e+00  0.00000000e+00  0.00000000e+00  5.84904739e-08
  0.00000000e+00  0.00000000e+00  0.00000000e+00  0.00000000e+00
  0.00000000e+00  0.00000000e+00  0.00000000e+00  0.00000000e+00
  0.00000000e+00  0.00000000e+00  0.00000000e+00  0.00000000e+00
  0.00000000e+00  0.00000000e+00  0.00000000e+00  0.00000000e+00
  0.00000000e+00  0.00000000e+00 -2.74397765e-09  5.84904739e-08
  0.00000000e+00  0.00000000e+00  0.00000000e+00  1.54261513e-06]","[[-0.00092471  0.00022384]
 [-0.00188626 -0.00029682]]",[],0.0,0.0
1787133563.279537,1.4314370285488056,-1.7826210635438808,1.1615902967803091,"[ 4.14769070e-07  2.08770379e-07  0.00000000e+00  0.00000000e+00
  0.00000000e+00 -2.74397765e-09  2.08770379e-07  7.37865473e-07
  0.00000000e+00  0.00000000e+00  0.00000000e+00  5.84904739e-08
  0.00000000e+00  0.00000000e+00  0.00000000e+00  0.00000000e+00
  0.00000000e+00  0.00000000e+00  0.00000000e+00  0.00000000e+00
  0.00000000e+00  0.00000000e+00  0.00000000e+00  0.00000000e+00
  0.00000000e+00  0.00000000e+00  0.00000000e+00  0.00000000e+00
  0.00000000e+00  0.00000000e+00 -2.74397765e-09  5.84904739e-08
  0.00000000e+00  0.00000000e+00  0.00000000e+00  1.54261513e-06]","[[-0.00092471  0.00022384]
 [-0.00188626 -0.00029682]]",[],0.0,0.0
1787133563.3018997,1.4314370285488056,-1.7826210635438808,1.1615902967803091,"[ 4.14769070e-07  2.08770379e-07  0.00000000e+00  0.00000000e+00
  0.00000000e+00 -2.74397765e-09  2.08770379e-07  7.37865473e-07
  0.00000000e+00  0.00000000e+00  0.00000000e+00  5.84904739e-08
  0.00000000e+00  0.00000000e+00  0.00000000e+00  0.00000000e+00
  0.00000000e+00  0.00000000e+00  0.00000000e+00  0.00000000e+00
  0.00000000e+00  0.00000000e+00  0.00000000e+00  0.00000000e+00
  0.00000000e+00  0.00000000e+00  0.00000000e+00  0.00000000e+00
  0.00000000e+00  0.00000000e+00 -2.74397765e-09  5.84904739e-08
  0.00000000e+00  0.00000000e+00  0.00000000e+00  1.54261513e-06]","[[-0.00092471  0.00022384]
 [-0.00188626 -0.00029682]]",[],0.0,0.0
1787133563.346168,1.4314370285488056,-1.7826210635438808,1.1615902967803091,"[ 4.14769070e-07  2.08770379e-07  0.00000000e+00  0.00000000e+00
  0.00000000e+00 -2.74397765e-09  2.08770379e-07  7.37865473e-07
  0.00000000e+00  0.00000000e+00  0.00000000e+00  5.84904739e-08
  0.00000000e+00  0.00000000e+00  0.00000000e+00  0.00000000e+00
  0.00000000e+00  0.00000000e+00  0.00000000e+00  0.00000000e+00
  0.00000000e+00  0.00000000e+00  0.00000000e+00  0.00000000e+00
  0.00000000e+00  0.00000000e+00  0.00000000e+00  0.00000000e+00
  0.00000000e+00  0.00000000e+00 -2.74397765e-09  5.84904739e-08
  0.00000000e+00  0.00000000e+00  0.00000000e+00  1.54261513e-06]","[[-0.00092471  0.00022384]
 [-0.00188626 -0.00029682]]",[],0.0,0.0
1787133563.39618,1.4314370285488056,-1.7826210635438808,1.1615902967803091,"[ 4.14769070e-07  2.08770379e-07  0.00000000e+00  0.00000000e+00
  0.00000000e+00 -2.74397765e-09  2.08770379e-07  7.37865473e-07
  0.00000000e+00  0.00000000e+00  0.00000000e+00  5.84904739e-08
  0.00000000e+00  0.00000000e+00  0.00000000e+00  0.00000000e+00
  0.00000000e+00  0.00000000e+00  0.00000000e+00  0.00000000e+00
  0.00000000e+00  0.00000000e+00  0.00000000e+00  0.00000000e+00
  0.00000000e+00  0.00000000e+00  0.00000000e+00  0.00000000e+00
  0.00000000e+00  0.00000000e+00 -2.74397765e-09  5.84904739e-08
  0.00000000e+00  0.00000000e+00  0.00000000e+00  1.54261513e-06]","[[-0.00092471  0.00022384]
 [-0.00188626 -0.00029682]]",[],0.0,0.0
1787133563.4469173,1.4314370285488056,-1.7826210635438808,1.1615902967803091,"[ 4.14769070e-07  2.08770379e-07  0.00000000e+00  0.00000000e+00
  0.00000000e+00 -2.74397765e-09  2.08770379e-07  7.37865473e-07
  0.00000000e+00  0.00000000e+00  0.00000000e+00  5.84904739e-08
  0.00000000e+00  0.00000000e+00  0.00000000e+00  0.00000000e+00
  0.00000000e+00  0.00000000e+00  0.00000000e+00  0.00000000e+00
  0.00000000e+00  0.00000000e+00  0.00000000e+00  0.00000000e+00
  0.00000000e+00  0.00000000e+00  0.00000000e+00  0.00000000e+00
  0.00000000e+00  0.00000000e+00 -2.74397765e-09  5.84904739e-08
  0.00000000e+00  0.00000000e+00  0.00000000e+00  1.54261513e-06]","[[-0.00092471  0.00022384]
 [-0.00188626 -0.00029682]]",[],0.0,0.0
1787133563.4964318,1.4314370285488056,-1.7826210635438808,1.1615902967803091,"[ 4.14769070e-07  2.08770379e-07  0.00000000e+00  0.00000000e+00
  0.00000000e+00 -2.74397765e-09  2.08770379e-07  7.37865473e-07
  0.00000000e+00  0.00000000e+00  0.00000000e+00  5.84904739e-08
  0.00000000e+00  0.00000000e+00  0.00000000e+00  0.00000000e+00
  0.00000000e+00  0.00000000e+00  0.00000000e+00  0.00000000e+00
  0.00000000e+00  0.00000000e+00  0.00000000e+00  0.00000000e+00
  0.00000000e+00  0.00000000e+00  0.00000000e+00  0.00000000e+00
  0.00000000e+00  0.00000000e+00 -2.74397765e-09  5.84904739e-08
  0.00000000e+00  0.00000000e+00  0.00000000e+00  1.54261513e-06]","[[-0.00092471  0.00022384]
 [-0.00188626 -0.00029682]]",[],0.0,0.0
1787133563.5470262,1.4314370285488056,-1.7826210635438808,1.1615902967803091,"[ 4.14769070e-07  2.08770379e-07  0.00000000e+00  0.00000000e+00
  0.00000000e+00 -2.74397765e-09  2.08770379e-07  7.37865473e-07
  0.00000000e+00  0.00000000e+00  0.00000000e+00  5.84904739e-08
  0.00000000e+00  0.00000000e+00  0.00000000e+00  0.00000000e+00
  0.00000000e+00  0.00000000e+00  0.00000000e+00  0.00000000e+00
  0.00000000e+00  0.00000000e+00  0.00000000e+00  0.00000000e+00
  0.00000000e+00  0.00000000e+00  0.00000000e+00  0.00000000e+00
  0.00000000e+00  0.00000000e+00 -2.74397765e-09  5.84904739e-08
  0.00000000e+00  0.00000000e+00  0.00000000e+00  1.54261513e-06]","[[-0.00092471  0.00022384]
 [-0.00188626 -0.00029682]]",[],0.0,0.0
1787133563.5965295,1.4314370285488056,-1.7826210635438808,1.1615902967803091,"[ 4.14769070e-07  2.08770379e-07  0.00000000e+00  0.00000000e+00
  0.00000000e+00 -2.74397765e-09  2.08770379e-07  7.37865473e-07
  0.00000000e+00  0.00000000e+00  0.00000000e+00  5.84904739e-08
  0.00000000e+00  0.00000000e+00  0.00000000e+00  0.00000000e+00
  0.00000000e+00  0.00000000e+00  0.00000000e+00  0.00000000e+00
  0.00000000e+00  0.00000000e+00  0.00000000e+00  0.00000000e+00
  0.00000000e+00  0.00000000e+00  0.00000000e+00  0.00000000e+00
  0.00000000e+00  0.00000000e+00 -2.74397765e-09  5.84904739e-08
  0.00000000e+00  0.00000000e+00  0.00000000e+00  1.54261513e-06]","[[-0.00092471  0.00022384]
 [-0.00188626 -0.00029682]]",[],0.0,0.0
1787133563.6613398,1.425060791727308,-1.7898303770222161,1.1722645305186088,"[ 3.88698374e-07  2.16793156e-07  0.00000000e+00  0.00000000e+00
  0.00000000e+00 -4.42427858e-09  2.16793156e-07  7.44633140e-07
  0.00000000e+00  0.00000000e+00  0.00000000e+00  5.74307401e-08
  0.00000000e+00  0.00000000e+00  0.00000000e+00  0.00000000e+00
  0.00000000e+00  0.00000000e+00  0.00000000e+00  0.00000000e+00
  0.00000000e+00  0.00000000e+00  0.00000000e+00  0.00000000e+00
  0.00000000e+00  0.00000000e+00  0.00000000e+00  0.00000000e+00
  0.00000000e+00  0.00000000e+00 -4.42427858e-09  5.74307401e-08
  0.00000000e+00  0.00000000e+00  0.00000000e+00  1.51077134e-06]","[[-0.00091411  0.00020773]
 [-0.00191025 -0.00028963]]",[],0.0,0.0
1787133563.6979842,1.425060791727308,-1.7898303770222161,1.1722645305186088,"[ 3.88698374e-07  2.16793156e-07  0.00000000e+00  0.00000000e+00
  0.00000000e+00 -4.42427858e-09  2.16793156e-07  7.44633140e-07
  0.00000000e+00  0.00000000e+00  0.00000000e+00  5.74307401e-08
  0.00000000e+00  0.00000000e+00  0.00000000e+00  0.00000000e+00
  0.00000000e+00  0.00000000e+00  0.00000000e+00  0.00000000e+00
  0.00000000e+00  0.00000000e+00  0.00000000e+00  0.00000000e+00
  0.00000000e+00  0.00000000e+00  0.00000000e+00  0.00000000e+00
  0.00000000e+00  0.00000000e+00 -4.42427858e-09  5.74307401e-08
  0.00000000e+00  0.00000000e+00  0.00000000e+00  1.51077134e-06]","[[-0.00091411  0.00020773]
 [-0.00191025 -0.00028963]]",[],0.0,0.0
1787133563.7844718,1.425060791727308,-1.7898303770222161,1.1722645305186088,"[ 3.88698374e-07  2.16793156e-07  0.00000000e+00  0.00000000e+00
  0.00000000e+00 -4.42427858e-09  2.16793156e-07  7.44633140e-07
  0.00000000e+00  0.00000000e+00  0.00000000e+00  5.74307401e-08
  0.00000000e+00  0.00000000e+00  0.00000000e+00  0.00000000e+00
  0.00000000e+00  0.00000000e+00  0.00000000e+00  0.00000000e+00
  0.00000000e+00  0.00000000e+00  0.00000000e+00  0.00000000e+00
  0.00000000e+00  0.00000000e+00  0.00000000e+00  0.00000000e+00
  0.00000000e+00  0.00000000e+00 -4.42427858e-09  5.74307401e-08
  0.00000000e+00  0.00000000e+00  0.00000000e+00  1.51077134e-06]","[[-0.00091411  0.00020773]
 [-0.00191025 -0.00028963]]",[],0.0,0.0
1787133563.8403776,1.425060791727308,-1.7898303770222161,1.1722645305186088,"[ 3.88698374e-07  2.16793156e-07  0.00000000e+00  0.00000000e+00
  0.00000000e+00 -4.42427858e-09  2.16793156e-07  7.44633140e-07
  0.00000000e+00  0.00000000e+00  0.00000000e+00  5.74307401e-08
  0.00000000e+00  0.00000000e+00  0.00000000e+00  0.00000000e+00
  0.00000000e+00  0.00000000e+00  0.00000000e+00  0.00000000e+00
  0.00000000e+00  0.00000000e+00  0.00000000e+00  0.00000000e+00
  0.00000000e+00  0.00000000e+00  0.00000000e+00  0.00000000e+00
  0.00000000e+00  0.00000000e+00 -4.42427858e-09  5.74307401e-08
  0.00000000e+00  0.00000000e+00  0.00000000e+00  1.51077134e-06]","[[-0.00091411  0.00020773]
 [-0.00191025 -0.00028963]]",[],0.0,0.0
1787133563.9436505,1.425060791727308,-1.7898303770222161,1.1722645305186088,"[ 3.88698374e-07  2.16793156e-07  0.00000000e+00  0.00000000e+00
  0.00000000e+00 -4.42427858e-09  2.16793156e-07  7.44633140e-07
  0.00000000e+00  0.00000000e+00  0.00000000e+00  5.74307401e-08
  0.00000000e+00  0.00000000e+00  0.00000000e+00  0.00000000e+00
  0.00000000e+00  0.00000000e+00  0.00000000e+00  0.00000000e+00
  0.00000000e+00  0.00000000e+00  0.00000000e+00  0.00000000e+00
  0.00000000e+00  0.00000000e+00  0.00000000e+00  0.00000000e+00
  0.00000000e+00  0.00000000e+00 -4.42427858e-09  5.74307401e-08
  0.00000000e+00  0.00000000e+00  0.00000000e+00  1.51077134e-06]","[[-0.00091411  0.00020773]
 [-0.00191025 -0.00028963]]",[],0.0,0.0
1787133563.9487562,1.425060791727308,-1.7898303770222161,1.1722645305186088,"[ 3.88698374e-07  2.16793156e-07  0.00000000e+00  0.00000000e+00
  0.00000000e+00 -4.42427858e-09  2.16793156e-07  7.44633140e-07
  0.00000000e+00  0.00000000e+00  0.00000000e+00  5.74307401e-08
  0.00000000e+00  0.00000000e+00  0.00000000e+00  0.00000000e+00
  0.00000000e+00  0.00000000e+00  0.00000000e+00  0.00000000e+00
  0.00000000e+00  0.00000000e+00  0.00000000e+00  0.00000000e+00
  0.00000000e+00  0.00000000e+00  0.00000000e+00  0.00000000e+00
  0.00000000e+00  0.00000000e+00 -4.42427858e-09  5.74307401e-08
  0.00000000e+00  0.00000000e+00  0.00000000e+00  1.51077134e-06]","[[-0.00091411  0.00020773]
 [-0.00191025 -0.00028963]]",[],0.0,0.0
1787133564.0059402,1.425060791727308,-1.7898303770222161,1.1722645305186088,"[ 3.88698374e-07  2.16793156e-07  0.00000000e+00  0.00000000e+00
  0.00000000e+00 -4.42427858e-09  2.16793156e-07  7.44633140e-07
  0.00000000e+00  0.00000000e+00  0.00000000e+00  5.74307401e-08
  0.00000000e+00  0.00000000e+00  0.00000000e+00  0.00000000e+00
  0.00000000e+00  0.00000000e+00  0.00000000e+00  0.00000000e+00
  0.00000000e+00  0.00000000e+00  0.00000000e+00  0.00000000e+00
  0.00000000e+00  0.00000000e+00  0.00000000e+00  0.00000000e+00
  0.00000000e+00  0.00000000e+00 -4.42427858e-09  5.74307401e-08
  0.00000000e+00  0.00000000e+00  0.00000000e+00  1.51077134e-06]","[[-0.00091411  0.00020773]
 [-0.00191025 -0.00028963]]",[],0.0,0.0
1787133564.0651014,1.425060791727308,-1.7898303770222161,1.1722645305186088,"[ 3.88698374e-07  2.16793156e-07  0.00000000e+00  0.00000000e+00
  0.00000000e+00 -4.42427858e-09  2.16793156e-07  7.44633140e-07
  0.00000000e+00  0.00000000e+00  0.00000000e+00  5.74307401e-08
  0.00000000e+00  0.00000000e+00  0.00000000e+00  0.00000000e+00
  0.00000000e+00  0.00000000e+00  0.00000000e+00  0.00000000e+00
  0.00000000e+00  0.00000000e+00  0.00000000e+00  0.00000000e+00
  0.00000000e+00  0.00000000e+00  0.00000000e+00  0.00000000e+00
  0.00000000e+00  0.00000000e+00 -4.42427858e-09  5.74307401e-08
  0.00000000e+00  0.00000000e+00  0.00000000e+00  1.51077134e-06]","[[-0.00091411  0.00020773]
 [-0.00191025 -0.00028963]]",[],0.0,0.0
1787133564.1238317,1.425060791727308,-1.7898303770222161,1.1722645305186088,"[ 3.88698374e-07  2.16793156e-07  0.00000000e+00  0.00000000e+00
  0.00000000e+00 -4.42427858e-09  2.16793156e-07  7.44633140e-07
  0.00000000e+00  0.00000000e+00  0.00000000e+00  5.74307401e-08
  0.00000000e+00  0.00000000e+00  0.00000000e+00  0.00000000e+00
  0.00000000e+00  0.00000000e+00  0.00000000e+00  0.00000000e+00
  0.00000000e+00  0.00000000e+00  0.00000000e+00  0.00000000e+00
  0.00000000e+00  0.00000000e+00  0.00000000e+00  0.00000000e+00
  0.00000000e+00  0.00000000e+00 -4.42427858e-09  5.74307401e-08
  0.00000000e+00  0.00000000e+00  0.00000000e+00  1.51077134e-06]","[[-0.00091411  0.00020773]
 [-0.00191025 -0.00028963]]",[],0.0,0.0
1787133564.1754205,1.425060791727308,-1.7898303770222161,1.1722645305186088,"[ 3.88698374e-07  2.16793156e-07  0.00000000e+00  0.00000000e+00
  0.00000000e+00 -4.42427858e-09  2.16793156e-07  7.44633140e-07
  0.00000000e+00  0.00000000e+00  0.00000000e+00  5.74307401e-08
  0.00000000e+00  0.00000000e+00  0.00000000e+00  0.00000000e+00
  0.00000000e+00  0.00000000e+00  0.00000000e+00  0.00000000e+00
  0.00000000e+00  0.00000000e+00  0.00000000e+00  0.00000000e+00
  0.00000000e+00  0.00000000e+00  0.00000000e+00  0.00000000e+00
  0.00000000e+00  0.00000000e+00 -4.42427858e-09  5.74307401e-08
  0.00000000e+00  0.00000000e+00  0.00000000e+00  1.51077134e-06]","[[-0.00091411  0.00020773]
 [-0.00191025 -0.00028963]]",[],0.0,0.0
1787133564.2659051,1.425060791727308,-1.7898303770222161,1.1722645305186088,"[ 3.88698374e-07  2.16793156e-07  0.00000000e+00  0.00000000e+00
  0.00000000e+00 -4.42427858e-09  2.16793156e-07  7.44633140e-07
  0.00000000e+00  0.00000000e+00  0.00000000e+00  5.74307401e-08
  0.00000000e+00  0.00000000e+00  0.00000000e+00  0.00000000e+00
  0.00000000e+00  0.00000000e+00  0.00000000e+00  0.00000000e+00
  0.00000000e+00  0.00000000e+00  0.00000000e+00  0.00000000e+00
  0.00000000e+00  0.00000000e+00  0.00000000e+00  0.00000000e+00
  0.00000000e+00  0.00000000e+00 -4.42427858e-09  5.74307401e-08
  0.00000000e+00  0.00000000e+00  0.00000000e+00  1.51077134e-06]","[[-0.00091411  0.00020773]
 [-0.00191025 -0.00028963]]",[],0.0,0.0
1787133564.297915,1.425060791727308,-1.7898303770222161,1.1722645305186088,"[ 3.88698374e-07  2.16793156e-07  0.00000000e+00  0.00000000e+00
  0.00000000e+00 -4.42427858e-09  2.16793156e-07  7.44633140e-07
  0.00000000e+00  0.00000000e+00  0.00000000e+00  5.74307401e-08
  0.00000000e+00  0.00000000e+00  0.00000000e+00  0.00000000e+00
  0.00000000e+00  0.00000000e+00  0.00000000e+00  0.00000000e+00
  0.00000000e+00  0.00000000e+00  0.00000000e+00  0.00000000e+00
  0.00000000e+00  0.00000000e+00  0.00000000e+00  0.00000000e+00
  0.00000000e+00  0.00000000e+00 -4.42427858e-09  5.74307401e-08
  0.00000000e+00  0.00000000e+00  0.00000000e+00  1.51077134e-06]","[[-0.00091411  0.00020773]
 [-0.00191025 -0.00028963]]",[],0.0,0.0
1787133564.3468375,1.425060791727308,-1.7898303770222161,1.1722645305186088,"[ 3.88698374e-07  2.16793156e-07  0.00000000e+00  0.00000000e+00
  0.00000000e+00 -4.42427858e-09  2.16793156e-07  7.44633140e-07
  0.00000000e+00  0.00000000e+00  0.00000000e+00  5.74307401e-08
  0.00000000e+00  0.00000000e+00  0.00000000e+00  0.00000000e+00
  0.00000000e+00  0.00000000e+00  0.00000000e+00  0.00000000e+00
  0.00000000e+00  0.00000000e+00  0.00000000e+00  0.00000000e+00
  0.00000000e+00  0.00000000e+00  0.00000000e+00  0.00000000e+00
  0.00000000e+00  0.00000000e+00 -4.42427858e-09  5.74307401e-08
  0.00000000e+00  0.00000000e+00  0.00000000e+00  1.51077134e-06]","[[-0.00091411  0.00020773]
 [-0.00191025 -0.00028963]]",[],0.0,0.0
1787133564.3960502,1.425060791727308,-1.7898303770222161,1.1722645305186088,"[ 3.88698374e-07  2.16793156e-07  0.00000000e+00  0.00000000e+00
  0.00000000e+00 -4.42427858e-09  2.16793156e-07  7.44633140e-07
  0.00000000e+00  0.00000000e+00  0.00000000e+00  5.74307401e-08
  0.00000000e+00  0.00000000e+00  0.00000000e+00  0.00000000e+00
  0.00000000e+00  0.00000000e+00  0.00000000e+00  0.00000000e+00
  0.00000000e+00  0.00000000e+00  0.00000000e+00  0.00000000e+00
  0.00000000e+00  0.00000000e+00  0.00000000e+00  0.00000000e+00
  0.00000000e+00  0.00000000e+00 -4.42427858e-09  5.74307401e-08
  0.00000000e+00  0.00000000e+00  0.00000000e+00  1.51077134e-06]","[[-0.00091411  0.00020773]
 [-0.00191025 -0.00028963]]",[],0.0,0.0
1787133564.4507127,1.4201296011959723,-1.7947700395119075,1.1790821610623965,"[ 3.61464615e-07  2.12470663e-07  0.00000000e+00  0.00000000e+00
  0.00000000e+00 -3.56129282e-09  2.12470663e-07  7.26281658e-07
  0.00000000e+00  0.00000000e+00  0.00000000e+00  5.24069504e-08
  0.00000000e+00  0.00000000e+00  0.00000000e+00  0.00000000e+00
  0.00000000e+00  0.00000000e+00  0.00000000e+00  0.00000000e+00
  0.00000000e+00  0.00000000e+00  0.00000000e+00  0.00000000e+00
  0.00000000e+00  0.00000000e+00  0.00000000e+00  0.00000000e+00
  0.00000000e+00  0.00000000e+00 -3.56129282e-09  5.24069504e-08
  0.00000000e+00  0.00000000e+00  0.00000000e+00  1.47481203e-06]","[[-0.00091411  0.00020773]
 [-0.00191025 -0.00028963]]",[],0.0,0.0
1787133564.508923,1.4201296011959723,-1.7947700395119075,1.1790821610623965,"[ 3.61464615e-07  2.12470663e-07  0.00000000e+00  0.00000000e+00
  0.00000000e+00 -3.56129282e-09  2.12470663e-07  7.26281658e-07
  0.00000000e+00  0.00000000e+00  0.00000000e+00  5.24069504e-08
  0.00000000e+00  0.00000000e+00  0.00000000e+00  0.00000000e+00
  0.00000000e+00  0.00000000e+00  0.00000000e+00  0.00000000e+00
  0.00000000e+00  0.00000000e+00  0.00000000e+00  0.00000000e+00
  0.00000000e+00  0.00000000e+00  0.00000000e+00  0.00000000e+00
  0.00000000e+00  0.00000000e+00 -3.56129282e-09  5.24069504e-08
  0.00000000e+00  0.00000000e+00  0.00000000e+00  1.47481203e-06]","[[-0.00087287  0.00018876]
 [-0.00186517 -0.00026856]]",[],0.0,0.0
1787133564.547871,1.4201296011959723,-1.7947700395119075,1.1790821610623965,"[ 3.61464615e-07  2.12470663e-07  0.00000000e+00  0.00000000e+00
  0.00000000e+00 -3.56129282e-09  2.12470663e-07  7.26281658e-07
  0.00000000e+00  0.00000000e+00  0.00000000e+00  5.24069504e-08
  0.00000000e+00  0.00000000e+00  0.00000000e+00  0.00000000e+00
  0.00000000e+00  0.00000000e+00  0.00000000e+00  0.00000000e+00
  0.00000000e+00  0.00000000e+00  0.00000000e+00  0.00000000e+00
  0.00000000e+00  0.00000000e+00  0.00000000e+00  0.00000000e+00
  0.00000000e+00  0.00000000e+00 -3.56129282e-09  5.24069504e-08
  0.00000000e+00  0.00000000e+00  0.00000000e+00  1.47481203e-06]","[[-0.00087287  0.00018876]
 [-0.00186517 -0.00026856]]",[],0.0,0.0
1787133564.5973644,1.4201296011959723,-1.7947700395119075,1.1790821610623965,"[ 3.61464615e-07  2.12470663e-07  0.00000000e+00  0.00000000e+00
  0.00000000e+00 -3.56129282e-09  2.12470663e-07  7.26281658e-07
  0.00000000e+00  0.00000000e+00  0.00000000e+00  5.24069504e-08
  0.00000000e+00  0.00000000e+00  0.00000000e+00  0.00000000e+00
  0.00000000e+00  0.00000000e+00  0.00000000e+00  0.00000000e+00
  0.00000000e+00  0.00000000e+00  0.00000000e+00  0.00000000e+00
  0.00000000e+00  0.00000000e+00  0.00000000e+00  0.00000000e+00
  0.00000000e+00  0.00000000e+00 -3.56129282e-09  5.24069504e-08
  0.00000000e+00  0.00000000e+00  0.00000000e+00  1.47481203e-06]","[[-0.00087287  0.00018876]
 [-0.00186517 -0.00026856]]",[],0.0,0.0
1787133564.647933,1.4201296011959723,-1.7947700395119075,1.1790821610623965,"[ 3.61464615e-07  2.12470663e-07  0.00000000e+00  0.00000000e+00
  0.00000000e+00 -3.56129282e-09  2.12470663e-07  7.26281658e-07
  0.00000000e+00  0.00000000e+00  0.00000000e+00  5.24069504e-08
  0.00000000e+00  0.00000000e+00  0.00000000e+00  0.00000000e+00
  0.00000000e+00  0.00000000e+00  0.00000000e+00  0.00000000e+00
  0.00000000e+00  0.00000000e+00  0.00000000e+00  0.00000000e+00
  0.00000000e+00  0.00000000e+00  0.00000000e+00  0.00000000e+00
  0.00000000e+00  0.00000000e+00 -3.56129282e-09  5.24069504e-08
  0.00000000e+00  0.00000000e+00  0.00000000e+00  1.47481203e-06]","[[-0.00087287  0.00018876]
 [-0.00186517 -0.00026856]]",[],0.0,0.0
1787133564.7155614,1.4201296011959723,-1.7947700395119075,1.1790821610623965,"[ 3.61464615e-07  2.12470663e-07  0.00000000e+00  0.00000000e+00
  0.00000000e+00 -3.56129282e-09  2.12470663e-07  7.26281658e-07
  0.00000000e+00  0.00000000e+00  0.00000000e+00  5.24069504e-08
  0.00000000e+00  0.00000000e+00  0.00000000e+00  0.00000000e+00
  0.00000000e+00  0.00000000e+00  0.00000000e+00  0.00000000e+00
  0.00000000e+00  0.00000000e+00  0.00000000e+00  0.00000000e+00
  0.00000000e+00  0.00000000e+00  0.00000000e+00  0.00000000e+00
  0.00000000e+00  0.00000000e+00 -3.56129282e-09  5.24069504e-08
  0.00000000e+00  0.00000000e+00  0.00000000e+00  1.47481203e-06]","[[-0.00087287  0.00018876]
 [-0.00186517 -0.00026856]]",[],0.0,0.0
1787133564.7529263,1.4201296011959723,-1.7947700395119075,1.1790821610623965,"[ 3.61464615e-07  2.12470663e-07  0.00000000e+00  0.00000000e+00
  0.00000000e+00 -3.56129282e-09  2.12470663e-07  7.26281658e-07
  0.00000000e+00  0.00000000e+00  0.00000000e+00  5.24069504e-08
  0.00000000e+00  0.00000000e+00  0.00000000e+00  0.00000000e+00
  0.00000000e+00  0.00000000e+00  0.00000000e+00  0.00000000e+00
  0.00000000e+00  0.00000000e+00  0.00000000e+00  0.00000000e+00
  0.00000000e+00  0.00000000e+00  0.00000000e+00  0.00000000e+00
  0.00000000e+00  0.00000000e+00 -3.56129282e-09  5.24069504e-08
  0.00000000e+00  0.00000000e+00  0.00000000e+00  1.47481203e-06]","[[-0.00087287  0.00018876]
 [-0.00186517 -0.00026856]]",[],0.0,0.0
1787133564.797426,1.4201296011959723,-1.7947700395119075,1.1790821610623965,"[ 3.61464615e-07  2.12470663e-07  0.00000000e+00  0.00000000e+00
  0.00000000e+00 -3.56129282e-09  2.12470663e-07  7.26281658e-07
  0.00000000e+00  0.00000000e+00  0.00000000e+00  5.24069504e-08
  0.00000000e+00  0.00000000e+00  0.00000000e+00  0.00000000e+00
  0.00000000e+00  0.00000000e+00  0.00000000e+00  0.00000000e+00
  0.00000000e+00  0.00000000e+00  0.00000000e+00  0.00000000e+00
  0.00000000e+00  0.00000000e+00  0.00000000e+00  0.00000000e+00
  0.00000000e+00  0.00000000e+00 -3.56129282e-09  5.24069504e-08
  0.00000000e+00  0.00000000e+00  0.00000000e+00  1.47481203e-06]","[[-0.00087287  0.00018876]
 [-0.00186517 -0.00026856]]",[],0.0,0.0
1787133564.8469095,1.4201296011959723,-1.7947700395119075,1.1790821610623965,"[ 3.61464615e-07  2.12470663e-07  0.00000000e+00  0.00000000e+00
  0.00000000e+00 -3.56129282e-09  2.12470663e-07  7.26281658e-07
  0.00000000e+00  0.00000000e+00  0.00000000e+00  5.24069504e-08
  0.00000000e+00  0.00000000e+00  0.00000000e+00  0.00000000e+00
  0.00000000e+00  0.00000000e+00  0.00000000e+00  0.00000000e+00
  0.00000000e+00  0.00000000e+00  0.00000000e+00  0.00000000e+00
  0.00000000e+00  0.00000000e+00  0.00000000e+00  0.00000000e+00
  0.00000000e+00  0.00000000e+00 -3.56129282e-09  5.24069504e-08
  0.00000000e+00  0.00000000e+00  0.00000000e+00  1.47481203e-06]","[[-0.00087287  0.00018876]
 [-0.00186517 -0.00026856]]",[],0.0,0.0
1787133564.8969712,1.4201296011959723,-1.7947700395119075,1.1790821610623965,"[ 3.61464615e-07  2.12470663e-07  0.00000000e+00  0.00000000e+00
  0.00000000e+00 -3.56129282e-09  2.12470663e-07  7.26281658e-07
  0.00000000e+00  0.00000000e+00  0.00000000e+00  5.24069504e-08
  0.00000000e+00  0.00000000e+00  0.00000000e+00  0.00000000e+00
  0.00000000e+00  0.00000000e+00  0.00000000e+00  0.00000000e+00
  0.00000000e+00  0.00000000e+00  0.00000000e+00  0.00000000e+00
  0.00000000e+00  0.00000000e+00  0.00000000e+00  0.00000000e+00
  0.00000000e+00  0.00000000e+00 -3.56129282e-09  5.24069504e-08
  0.00000000e+00  0.00000000e+00  0.00000000e+00  1.47481203e-06]","[[-0.00087287  0.00018876]
 [-0.00186517 -0.00026856]]",[],0.0,0.0
1787133564.94656,1.4201296011959723,-1.7947700395119075,1.1790821610623965,"[ 3.61464615e-07  2.12470663e-07  0.00000000e+00  0.00000000e+00
  0.00000000e+00 -3.56129282e-09  2.12470663e-07  7.26281658e-07
  0.00000000e+00  0.00000000e+00  0.00000000e+00  5.24069504e-08
  0.00000000e+00  0.00000000e+00  0.00000000e+00  0.00000000e+00
  0.00000000e+00  0.00000000e+00  0.00000000e+00  0.00000000e+00
  0.00000000e+00  0.00000000e+00  0.00000000e+00  0.00000000e+00
  0.00000000e+00  0.00000000e+00  0.00000000e+00  0.00000000e+00
  0.00000000e+00  0.00000000e+00 -3.56129282e-09  5.24069504e-08
  0.00000000e+00  0.00000000e+00  0.00000000e+00  1.47481203e-06]","[[-0.00087287  0.00018876]
 [-0.00186517 -0.00026856]]",[],0.0,0.0
1787133564.9979994,1.4201296011959723,-1.7947700395119075,1.1790821610623965,"[ 3.61464615e-07  2.12470663e-07  0.00000000e+00  0.00000000e+00
  0.00000000e+00 -3.56129282e-09  2.12470663e-07  7.26281658e-07
  0.00000000e+00  0.00000000e+00  0.00000000e+00  5.24069504e-08
  0.00000000e+00  0.00000000e+00  0.00000000e+00  0.00000000e+00
  0.00000000e+00  0.00000000e+00  0.00000000e+00  0.00000000e+00
  0.00000000e+00  0.00000000e+00  0.00000000e+00  0.00000000e+00
  0.00000000e+00  0.00000000e+00  0.00000000e+00  0.00000000e+00
  0.00000000e+00  0.00000000e+00 -3.56129282e-09  5.24069504e-08
  0.00000000e+00  0.00000000e+00  0.00000000e+00  1.47481203e-06]","[[-0.00087287  0.00018876]
 [-0.00186517 -0.00026856]]",[],0.0,0.0
1787133565.0469606,1.4201296011959723,-1.7947700395119075,1.1790821610623965,"[ 3.61464615e-07  2.12470663e-07  0.00000000e+00  0.00000000e+00
  0.00000000e+00 -3.56129282e-09  2.12470663e-07  7.26281658e-07
  0.00000000e+00  0.00000000e+00  0.00000000e+00  5.24069504e-08
  0.00000000e+00  0.00000000e+00  0.00000000e+00  0.00000000e+00
  0.00000000e+00  0.00000000e+00  0.00000000e+00  0.00000000e+00
  0.00000000e+00  0.00000000e+00  0.00000000e+00  0.00000000e+00
  0.00000000e+00  0.00000000e+00  0.00000000e+00  0.00000000e+00
  0.00000000e+00  0.00000000e+00 -3.56129282e-09  5.24069504e-08
  0.00000000e+00  0.00000000e+00  0.00000000e+00  1.47481203e-06]","[[-0.00087287  0.00018876]
 [-0.00186517 -0.00026856]]",[],0.0,0.0
1787133565.0968225,1.4201296011959723,-1.7947700395119075,1.1790821610623965,"[ 3.61464615e-07  2.12470663e-07  0.00000000e+00  0.00000000e+00
  0.00000000e+00 -3.56129282e-09  2.12470663e-07  7.26281658e-07
  0.00000000e+00  0.00000000e+00  0.00000000e+00  5.24069504e-08
  0.00000000e+00  0.00000000e+00  0.00000000e+00  0.00000000e+00
  0.00000000e+00  0.00000000e+00  0.00000000e+00  0.00000000e+00
  0.00000000e+00  0.00000000e+00  0.00000000e+00  0.00000000e+00
  0.00000000e+00  0.00000000e+00  0.00000000e+00  0.00000000e+00
  0.00000000e+00  0.00000000e+00 -3.56129282e-09  5.24069504e-08
  0.00000000e+00  0.00000000e+00  0.00000000e+00  1.47481203e-06]","[[-0.00087287  0.00018876]
 [-0.00186517 -0.00026856]]",[],0.0,0.0
1787133565.14668,1.4201296011959723,-1.7947700395119075,1.1790821610623965,"[ 3.61464615e-07  2.12470663e-07  0.00000000e+00  0.00000000e+00
  0.00000000e+00 -3.56129282e-09  2.12470663e-07  7.26281658e-07
  0.00000000e+00  0.00000000e+00  0.00000000e+00  5.24069504e-08
  0.00000000e+00  0.00000000e+00  0.00000000e+00  0.00000000e+00
  0.00000000e+00  0.00000000e+00  0.00000000e+00  0.00000000e+00
  0.00000000e+00  0.00000000e+00  0.00000000e+00  0.00000000e+00
  0.00000000e+00  0.00000000e+00  0.00000000e+00  0.00000000e+00
  0.00000000e+00  0.00000000e+00 -3.56129282e-09  5.24069504e-08
  0.00000000e+00  0.00000000e+00  0.00000000e+00  1.47481203e-06]","[[-0.00087287  0.00018876]
 [-0.00186517 -0.00026856]]",[],0.0,0.0
1787133565.2111394,1.4201296011959723,-1.7947700395119075,1.1790821610623965,"[ 3.61464615e-07  2.12470663e-07  0.00000000e+00  0.00000000e+00
  0.00000000e+00 -3.56129282e-09  2.12470663e-07  7.26281658e-07
  0.00000000e+00  0.00000000e+00  0.00000000e+00  5.24069504e-08
  0.00000000e+00  0.00000000e+00  0.00000000e+00  0.00000000e+00
  0.00000000e+00  0.00000000e+00  0.00000000e+00  0.00000000e+00
  0.00000000e+00  0.00000000e+00  0.00000000e+00  0.00000000e+00
  0.00000000e+00  0.00000000e+00  0.00000000e+00  0.00000000e+00
  0.00000000e+00  0.00000000e+00 -3.56129282e-09  5.24069504e-08
  0.00000000e+00  0.00000000e+00  0.00000000e+00  1.47481203e-06]","[[-0.00087287  0.00018876]
 [-0.00186517 -0.00026856]]",[],0.0,0.0
1787133565.2733905,1.4201296011959723,-1.7947700395119075,1.1790821610623965,"[ 3.61464615e-07  2.12470663e-07  0.00000000e+00  0.00000000e+00
  0.00000000e+00 -3.56129282e-09  2.12470663e-07  7.26281658e-07
  0.00000000e+00  0.00000000e+00  0.00000000e+00  5.24069504e-08
  0.00000000e+00  0.00000000e+00  0.00000000e+00  0.00000000e+00
  0.00000000e+00  0.00000000e+00  0.00000000e+00  0.00000000e+00
  0.00000000e+00  0.00000000e+00  0.00000000e+00  0.00000000e+00
  0.00000000e+00  0.00000000e+00  0.00000000e+00  0.00000000e+00
  0.00000000e+00  0.00000000e+00 -3.56129282e-09  5.24069504e-08
  0.00000000e+00  0.00000000e+00  0.00000000e+00  1.47481203e-06]","[[-0.00087287  0.00018876]
 [-0.00186517 -0.00026856]]",[],0.0,0.0
1787133565.3054993,1.4154845955475646,-1.7997424727980182,1.1834317166206603,"[3.44797631e-07 2.23027752e-07 0.00000000e+00 0.00000000e+00
 0.00000000e+00 2.07954513e-09 2.23027752e-07 7.46052540e-07
 0.00000000e+00 0.00000000e+00 0.00000000e+00 5.86776626e-08
 0.00000000e+00 0.00000000e+00 0.00000000e+00 0.00000000e+00
 0.00000000e+00 0.00000000e+00 0.00000000e+00 0.00000000e+00
 0.00000000e+00 0.00000000e+00 0.00000000e+00 0.00000000e+00
 0.00000000e+00 0.00000000e+00 0.00000000e+00 0.00000000e+00
 0.00000000e+00 0.00000000e+00 2.07954513e-09 5.86776626e-08
 0.00000000e+00 0.00000000e+00 0.00000000e+00 1.55621728e-06]","[[-0.00086187  0.00016441]
 [-0.00192981 -0.00027117]]",[],0.0,0.0
1787133565.585856,1.4154845955475646,-1.7997424727980182,1.1834317166206603,"[3.44797631e-07 2.23027752e-07 0.00000000e+00 0.00000000e+00
 0.00000000e+00 2.07954513e-09 2.23027752e-07 7.46052540e-07
 0.00000000e+00 0.00000000e+00 0.00000000e+00 5.86776626e-08
 0.00000000e+00 0.00000000e+00 0.00000000e+00 0.00000000e+00
 0.00000000e+00 0.00000000e+00 0.00000000e+00 0.00000000e+00
 0.00000000e+00 0.00000000e+00 0.00000000e+00 0.00000000e+00
 0.00000000e+00 0.00000000e+00 0.00000000e+00 0.00000000e+00
 0.00000000e+00 0.00000000e+00 2.07954513e-09 5.86776626e-08
 0.00000000e+00 0.00000000e+00 0.00000000e+00 1.55621728e-06]","[[-0.00086187  0.00016441]
 [-0.00192981 -0.00027117]]",[],0.0,0.0
1787133565.6473746,1.4154845955475646,-1.7997424727980182,1.1834317166206603,"[3.44797631e-07 2.23027752e-07 0.00000000e+00 0.00000000e+00
 0.00000000e+00 2.07954513e-09 2.23027752e-07 7.46052540e-07
 0.00000000e+00 0.00000000e+00 0.00000000e+00 5.86776626e-08
 0.00000000e+00 0.00000000e+00 0.00000000e+00 0.00000000e+00
 0.00000000e+00 0.00000000e+00 0.00000000e+00 0.00000000e+00
 0.00000000e+00 0.00000000e+00 0.00000000e+00 0.00000000e+00
 0.00000000e+00 0.00000000e+00 0.00000000e+00 0.00000000e+00
 0.00000000e+00 0.00000000e+00 2.07954513e-09 5.86776626e-08
 0.00000000e+00 0.00000000e+00 0.00000000e+00 1.55621728e-06]","[[-0.00086187  0.00016441]
 [-0.00192981 -0.00027117]]",[],0.0,0.0
1787133565.7165158,1.4154845955475646,-1.7997424727980182,1.1834317166206603,"[3.44797631e-07 2.23027752e-07 0.00000000e+00 0.00000000e+00
 0.00000000e+00 2.07954513e-09 2.23027752e-07 7.46052540e-07
 0.00000000e+00 0.00000000e+00 0.00000000e+00 5.86776626e-08
 0.00000000e+00 0.00000000e+00 0.00000000e+00 0.00000000e+00
 0.00000000e+00 0.00000000e+00 0.00000000e+00 0.00000000e+00
 0.00000000e+00 0.00000000e+00 0.00000000e+00 0.00000000e+00
 0.00000000e+00 0.00000000e+00 0.00000000e+00 0.00000000e+00
 0.00000000e+00 0.00000000e+00 2.07954513e-09 5.86776626e-08
 0.00000000e+00 0.00000000e+00 0.00000000e+00 1.55621728e-06]","[[-0.00086187  0.00016441]
 [-0.00192981 -0.00027117]]",[],0.0,0.0
1787133565.7473807,1.4154845955475646,-1.7997424727980182,1.1834317166206603,"[3.44797631e-07 2.23027752e-07 0.00000000e+00 0.00000000e+00
 0.00000000e+00 2.07954513e-09 2.23027752e-07 7.46052540e-07
 0.00000000e+00 0.00000000e+00 0.00000000e+00 5.86776626e-08
 0.00000000e+00 0.00000000e+00 0.00000000e+00 0.00000000e+00
 0.00000000e+00 0.00000000e+00 0.00000000e+00 0.00000000e+00
 0.00000000e+00 0.00000000e+00 0.00000000e+00 0.00000000e+00
 0.00000000e+00 0.00000000e+00 0.00000000e+00 0.00000000e+00
 0.00000000e+00 0.00000000e+00 2.07954513e-09 5.86776626e-08
 0.00000000e+00 0.00000000e+00 0.00000000e+00 1.55621728e-06]","[[-0.00086187  0.00016441]
 [-0.00192981 -0.00027117]]",[],0.0,0.0
1787133566.0153537,1.4154845955475646,-1.7997424727980182,1.1834317166206603,"[3.44797631e-07 2.23027752e-07 0.00000000e+00 0.00000000e+00
 0.00000000e+00 2.07954513e-09 2.23027752e-07 7.46052540e-07
 0.00000000e+00 0.00000000e+00 0.00000000e+00 5.86776626e-08
 0.00000000e+00 0.00000000e+00 0.00000000e+00 0.00000000e+00
 0.00000000e+00 0.00000000e+00 0.00000000e+00 0.00000000e+00
 0.00000000e+00 0.00000000e+00 0.00000000e+00 0.00000000e+00
 0.00000000e+00 0.00000000e+00 0.00000000e+00 0.00000000e+00
 0.00000000e+00 0.00000000e+00 2.07954513e-09 5.86776626e-08
 0.00000000e+00 0.00000000e+00 0.00000000e+00 1.55621728e-06]","[[-0.00086187  0.00016441]
 [-0.00192981 -0.00027117]]",[],0.0,0.0
1787133566.0492337,1.4107029638444875,-1.8051567273392681,1.193326682422982,"[3.22710728e-07 2.12869910e-07 0.00000000e+00 0.00000000e+00
 0.00000000e+00 7.31565512e-10 2.12869910e-07 7.14899237e-07
 0.00000000e+00 0.00000000e+00 0.00000000e+00 5.06106407e-08
 0.00000000e+00 0.00000000e+00 0.00000000e+00 0.00000000e+00
 0.00000000e+00 0.00000000e+00 0.00000000e+00 0.00000000e+00
 0.00000000e+00 0.00000000e+00 0.00000000e+00 0.00000000e+00
 0.00000000e+00 0.00000000e+00 0.00000000e+00 0.00000000e+00
 0.00000000e+00 0.00000000e+00 7.31565512e-10 5.06106407e-08
 0.00000000e+00 0.00000000e+00 0.00000000e+00 1.51152454e-06]","[[-0.00081083  0.00015874]
 [-0.00185075 -0.00023615]]",[],0.0,0.0
1787133566.1983938,1.4107029638444875,-1.8051567273392681,1.193326682422982,"[3.22710728e-07 2.12869910e-07 0.00000000e+00 0.00000000e+00
 0.00000000e+00 7.31565512e-10 2.12869910e-07 7.14899237e-07
 0.00000000e+00 0.00000000e+00 0.00000000e+00 5.06106407e-08
 0.00000000e+00 0.00000000e+00 0.00000000e+00 0.00000000e+00
 0.00000000e+00 0.00000000e+00 0.00000000e+00 0.00000000e+00
 0.00000000e+00 0.00000000e+00 0.00000000e+00 0.00000000e+00
 0.00000000e+00 0.00000000e+00 0.00000000e+00 0.00000000e+00
 0.00000000e+00 0.00000000e+00 7.31565512e-10 5.06106407e-08
 0.00000000e+00 0.00000000e+00 0.00000000e+00 1.51152454e-06]","[[-0.00081083  0.00015874]
 [-0.00185075 -0.00023615]]",[],0.0,0.0
1787133566.246352,1.4107029638444875,-1.8051567273392681,1.193326682422982,"[3.22710728e-07 2.12869910e-07 0.00000000e+00 0.00000000e+00
 0.00000000e+00 7.31565512e-10 2.12869910e-07 7.14899237e-07
 0.00000000e+00 0.00000000e+00 0.00000000e+00 5.06106407e-08
 0.00000000e+00 0.00000000e+00 0.00000000e+00 0.00000000e+00
 0.00000000e+00 0.00000000e+00 0.00000000e+00 0.00000000e+00
 0.00000000e+00 0.00000000e+00 0.00000000e+00 0.00000000e+00
 0.00000000e+00 0.00000000e+00 0.00000000e+00 0.00000000e+00
 0.00000000e+00 0.00000000e+00 7.31565512e-10 5.06106407e-08
 0.00000000e+00 0.00000000e+00 0.00000000e+00 1.51152454e-06]","[[-0.00081083  0.00015874]
 [-0.00185075 -0.00023615]]",[],0.0,0.0
1787133566.297854,1.4107029638444875,-1.8051567273392681,1.193326682422982,"[3.22710728e-07 2.12869910e-07 0.00000000e+00 0.00000000e+00
 0.00000000e+00 7.31565512e-10 2.12869910e-07 7.14899237e-07
 0.00000000e+00 0.00000000e+00 0.00000000e+00 5.06106407e-08
 0.00000000e+00 0.00000000e+00 0.00000000e+00 0.00000000e+00
 0.00000000e+00 0.00000000e+00 0.00000000e+00 0.00000000e+00
 0.00000000e+00 0.00000000e+00 0.00000000e+00 0.00000000e+00
 0.00000000e+00 0.00000000e+00 0.00000000e+00 0.00000000e+00
 0.00000000e+00 0.00000000e+00 7.31565512e-10 5.06106407e-08
 0.00000000e+00 0.00000000e+00 0.00000000e+00 1.51152454e-06]","[[-0.00081083  0.00015874]
 [-0.00185075 -0.00023615]]",[],0.0,0.0
1787133566.3679113,1.4107029638444875,-1.8051567273392681,1.193326682422982,"[3.22710728e-07 2.12869910e-07 0.00000000e+00 0.00000000e+00
 0.00000000e+00 7.31565512e-10 2.12869910e-07 7.14899237e-07
 0.00000000e+00 0.00000000e+00 0.00000000e+00 5.06106407e-08
 0.00000000e+00 0.00000000e+00 0.00000000e+00 0.00000000e+00
 0.00000000e+00 0.00000000e+00 0.00000000e+00 0.00000000e+00
 0.00000000e+00 0.00000000e+00 0.00000000e+00 0.00000000e+00
 0.00000000e+00 0.00000000e+00 0.00000000e+00 0.00000000e+00
 0.00000000e+00 0.00000000e+00 7.31565512e-10 5.06106407e-08
 0.00000000e+00 0.00000000e+00 0.00000000e+00 1.51152454e-06]","[[-0.00081083  0.00015874]
 [-0.00185075 -0.00023615]]",[],0.0,0.0
1787133566.4688766,1.4107029638444875,-1.8051567273392681,1.193326682422982,"[3.22710728e-07 2.12869910e-07 0.00000000e+00 0.00000000e+00
 0.00000000e+00 7.31565512e-10 2.12869910e-07 7.14899237e-07
 0.00000000e+00 0.00000000e+00 0.00000000e+00 5.06106407e-08
 0.00000000e+00 0.00000000e+00 0.00000000e+00 0.00000000e+00
 0.00000000e+00 0.00000000e+00 0.00000000e+00 0.00000000e+00
 0.00000000e+00 0.00000000e+00 0.00000000e+00 0.00000000e+00
 0.00000000e+00 0.00000000e+00 0.00000000e+00 0.00000000e+00
 0.00000000e+00 0.00000000e+00 7.31565512e-10 5.06106407e-08
 0.00000000e+00 0.00000000e+00 0.00000000e+00 1.51152454e-06]","[[-0.00081083  0.00015874]
 [-0.00185075 -0.00023615]]",[],0.0,0.0
