time,x,y,yaw,cov_prop,K_gain,innovation,v_ekf,omega_ekf
1786950150.6157088,0.0,0.0,0.0,"[ 9.99980025e-03 -3.43388224e-32  0.00000000e+00  0.00000000e+00
  0.00000000e+00  2.53715115e-10 -3.43388224e-32  9.99980000e-03
  0.00000000e+00  0.00000000e+00  0.00000000e+00 -3.01473775e-24
  0.00000000e+00  0.00000000e+00  0.00000000e+00  0.00000000e+00
  0.00000000e+00  0.00000000e+00  0.00000000e+00  0.00000000e+00
  0.00000000e+00  0.00000000e+00  0.00000000e+00  0.00000000e+00
  0.00000000e+00  0.00000000e+00  0.00000000e+00  0.00000000e+00
  0.00000000e+00  0.00000000e+00  2.53715115e-10 -3.01473775e-24
  0.00000000e+00  0.00000000e+00  0.00000000e+00  9.99980516e-03]","[[ 9.99980025e-06 -3.43388224e-35  2.53715115e-13]
 [-3.43388224e-35  9.99980000e-06 -3.01473775e-27]
 [ 2.53715115e-13 -3.01473775e-27  9.99980516e-06]]",[0. 0. 0.],-1.583559522310911e-20,7.475817488042761e-20
1786950150.6686919,0.0,0.0,0.0,"[ 9.99980025e-03 -3.43388224e-32  0.00000000e+00  0.00000000e+00
  0.00000000e+00  2.53715115e-10 -3.43388224e-32  9.99980000e-03
  0.00000000e+00  0.00000000e+00  0.00000000e+00 -3.01473775e-24
  0.00000000e+00  0.00000000e+00  0.00000000e+00  0.00000000e+00
  0.00000000e+00  0.00000000e+00  0.00000000e+00  0.00000000e+00
  0.00000000e+00  0.00000000e+00  0.00000000e+00  0.00000000e+00
  0.00000000e+00  0.00000000e+00  0.00000000e+00  0.00000000e+00
  0.00000000e+00  0.00000000e+00  2.53715115e-10 -3.01473775e-24
  0.00000000e+00  0.00000000e+00  0.00000000e+00  9.99980516e-03]","[[ 9.99980025e-06 -3.43388224e-35  2.53715115e-13]
 [-3.43388224e-35  9.99980000e-06 -3.01473775e-27]
 [ 2.53715115e-13 -3.01473775e-27  9.99980516e-06]]",[0. 0. 0.],-1.583559522310911e-20,7.475817488042761e-20
1786950150.7177265,0.0,0.0,0.0,"[ 9.99980025e-03 -3.43388224e-32  0.00000000e+00  0.00000000e+00
  0.00000000e+00  2.53715115e-10 -3.43388224e-32  9.99980000e-03
  0.00000000e+00  0.00000000e+00  0.00000000e+00 -3.01473775e-24
  0.00000000e+00  0.00000000e+00  0.00000000e+00  0.00000000e+00
  0.00000000e+00  0.00000000e+00  0.00000000e+00  0.00000000e+00
  0.00000000e+00  0.00000000e+00  0.00000000e+00  0.00000000e+00
  0.00000000e+00  0.00000000e+00  0.00000000e+00  0.00000000e+00
  0.00000000e+00  0.00000000e+00  2.53715115e-10 -3.01473775e-24
  0.00000000e+00  0.00000000e+00  0.00000000e+00  9.99980516e-03]","[[ 9.99980025e-06 -3.43388224e-35  2.53715115e-13]
 [-3.43388224e-35  9.99980000e-06 -3.01473775e-27]
 [ 2.53715115e-13 -3.01473775e-27  9.99980516e-06]]",[0. 0. 0.],-1.583559522310911e-20,7.475817488042761e-20
1786950150.768751,0.0,0.0,0.0,"[ 9.99980025e-03 -3.43388224e-32  0.00000000e+00  0.00000000e+00
  0.00000000e+00  2.53715115e-10 -3.43388224e-32  9.99980000e-03
  0.00000000e+00  0.00000000e+00  0.00000000e+00 -3.01473775e-24
  0.00000000e+00  0.00000000e+00  0.00000000e+00  0.00000000e+00
  0.00000000e+00  0.00000000e+00  0.00000000e+00  0.00000000e+00
  0.00000000e+00  0.00000000e+00  0.00000000e+00  0.00000000e+00
  0.00000000e+00  0.00000000e+00  0.00000000e+00  0.00000000e+00
  0.00000000e+00  0.00000000e+00  2.53715115e-10 -3.01473775e-24
  0.00000000e+00  0.00000000e+00  0.00000000e+00  9.99980516e-03]","[[ 9.99980025e-06 -3.43388224e-35  2.53715115e-13]
 [-3.43388224e-35  9.99980000e-06 -3.01473775e-27]
 [ 2.53715115e-13 -3.01473775e-27  9.99980516e-06]]",[0. 0. 0.],-1.583559522310911e-20,7.475817488042761e-20
1786950150.8166378,0.0,0.0,0.0,"[ 9.99980025e-03 -3.43388224e-32  0.00000000e+00  0.00000000e+00
  0.00000000e+00  2.53715115e-10 -3.43388224e-32  9.99980000e-03
  0.00000000e+00  0.00000000e+00  0.00000000e+00 -3.01473775e-24
  0.00000000e+00  0.00000000e+00  0.00000000e+00  0.00000000e+00
  0.00000000e+00  0.00000000e+00  0.00000000e+00  0.00000000e+00
  0.00000000e+00  0.00000000e+00  0.00000000e+00  0.00000000e+00
  0.00000000e+00  0.00000000e+00  0.00000000e+00  0.00000000e+00
  0.00000000e+00  0.00000000e+00  2.53715115e-10 -3.01473775e-24
  0.00000000e+00  0.00000000e+00  0.00000000e+00  9.99980516e-03]","[[ 9.99980025e-06 -3.43388224e-35  2.53715115e-13]
 [-3.43388224e-35  9.99980000e-06 -3.01473775e-27]
 [ 2.53715115e-13 -3.01473775e-27  9.99980516e-06]]",[0. 0. 0.],-1.583559522310911e-20,7.475817488042761e-20
1786950150.8645205,0.0,0.0,0.0,"[ 9.99980025e-03 -3.43388224e-32  0.00000000e+00  0.00000000e+00
  0.00000000e+00  2.53715115e-10 -3.43388224e-32  9.99980000e-03
  0.00000000e+00  0.00000000e+00  0.00000000e+00 -3.01473775e-24
  0.00000000e+00  0.00000000e+00  0.00000000e+00  0.00000000e+00
  0.00000000e+00  0.00000000e+00  0.00000000e+00  0.00000000e+00
  0.00000000e+00  0.00000000e+00  0.00000000e+00  0.00000000e+00
  0.00000000e+00  0.00000000e+00  0.00000000e+00  0.00000000e+00
  0.00000000e+00  0.00000000e+00  2.53715115e-10 -3.01473775e-24
  0.00000000e+00  0.00000000e+00  0.00000000e+00  9.99980516e-03]","[[ 9.99980025e-06 -3.43388224e-35  2.53715115e-13]
 [-3.43388224e-35  9.99980000e-06 -3.01473775e-27]
 [ 2.53715115e-13 -3.01473775e-27  9.99980516e-06]]",[0. 0. 0.],-1.583559522310911e-20,7.475817488042761e-20
1786950150.9149828,0.0,0.0,0.0,"[ 9.99980025e-03 -3.43388224e-32  0.00000000e+00  0.00000000e+00
  0.00000000e+00  2.53715115e-10 -3.43388224e-32  9.99980000e-03
  0.00000000e+00  0.00000000e+00  0.00000000e+00 -3.01473775e-24
  0.00000000e+00  0.00000000e+00  0.00000000e+00  0.00000000e+00
  0.00000000e+00  0.00000000e+00  0.00000000e+00  0.00000000e+00
  0.00000000e+00  0.00000000e+00  0.00000000e+00  0.00000000e+00
  0.00000000e+00  0.00000000e+00  0.00000000e+00  0.00000000e+00
  0.00000000e+00  0.00000000e+00  2.53715115e-10 -3.01473775e-24
  0.00000000e+00  0.00000000e+00  0.00000000e+00  9.99980516e-03]","[[ 9.99980025e-06 -3.43388224e-35  2.53715115e-13]
 [-3.43388224e-35  9.99980000e-06 -3.01473775e-27]
 [ 2.53715115e-13 -3.01473775e-27  9.99980516e-06]]",[0. 0. 0.],-1.583559522310911e-20,7.475817488042761e-20
1786950150.980783,0.0,0.0,0.0,"[ 9.99964017e-03 -3.07477445e-29  0.00000000e+00  0.00000000e+00
  0.00000000e+00  4.13279133e-08 -3.07477445e-29  9.99960002e-03
  0.00000000e+00  0.00000000e+00  0.00000000e+00 -6.65714794e-22
  0.00000000e+00  0.00000000e+00  0.00000000e+00  0.00000000e+00
  0.00000000e+00  0.00000000e+00  0.00000000e+00  0.00000000e+00
  0.00000000e+00  0.00000000e+00  0.00000000e+00  0.00000000e+00
  0.00000000e+00  0.00000000e+00  0.00000000e+00  0.00000000e+00
  0.00000000e+00  0.00000000e+00  4.13279133e-08 -6.65714794e-22
  0.00000000e+00  0.00000000e+00  0.00000000e+00  1.00004394e-02]","[[ 9.99964017e-06 -3.07477445e-32  4.13279133e-11]
 [-3.07477445e-32  9.99960002e-06 -6.65714794e-25]
 [ 4.13279133e-11 -6.65714794e-25  1.00004394e-05]]",[0. 0. 0.],-2.024806539817504e-19,7.811959873410988e-19
1786950151.0149994,-5.52123566210092e-22,-2.165964509977406e-52,0.0,"[ 9.99934054e-03 -3.92293136e-28  0.00000000e+00  0.00000000e+00
  0.00000000e+00  4.16711862e-08 -3.92293136e-28  9.99930005e-03
  0.00000000e+00  0.00000000e+00  0.00000000e+00 -7.53141942e-22
  0.00000000e+00  0.00000000e+00  0.00000000e+00  0.00000000e+00
  0.00000000e+00  0.00000000e+00  0.00000000e+00  0.00000000e+00
  0.00000000e+00  0.00000000e+00  0.00000000e+00  0.00000000e+00
  0.00000000e+00  0.00000000e+00  0.00000000e+00  0.00000000e+00
  0.00000000e+00  0.00000000e+00  4.16711862e-08 -7.53141942e-22
  0.00000000e+00  0.00000000e+00  0.00000000e+00  1.00001464e-02]","[[ 9.99934054e-06 -3.92293136e-31  4.16711862e-11]
 [-3.92293136e-31  9.99930005e-06 -7.53141942e-25]
 [ 4.16711862e-11 -7.53141942e-25  1.00001464e-05]]",[5.52129087e-22 0.00000000e+00 0.00000000e+00],1.779088711976249e-20,-1.1583450994529418e-18
1786950151.066131,-3.1902929920498175e-21,-2.0651939758558088e-51,0.0,"[ 9.99914087e-03 -4.17742334e-28  0.00000000e+00  0.00000000e+00
  0.00000000e+00  4.19833314e-08 -4.17742334e-28  9.99910008e-03
  0.00000000e+00  0.00000000e+00  0.00000000e+00 -7.59287495e-22
  0.00000000e+00  0.00000000e+00  0.00000000e+00  0.00000000e+00
  0.00000000e+00  0.00000000e+00  0.00000000e+00  0.00000000e+00
  0.00000000e+00  0.00000000e+00  0.00000000e+00  0.00000000e+00
  0.00000000e+00  0.00000000e+00  0.00000000e+00  0.00000000e+00
  0.00000000e+00  0.00000000e+00  4.19833314e-08 -7.59287495e-22
  0.00000000e+00  0.00000000e+00  0.00000000e+00  9.99995278e-03]","[[ 9.99914087e-06 -4.17742334e-31  4.19833314e-11]
 [-4.17742334e-31  9.99910008e-06 -7.59287495e-25]
 [ 4.19833314e-11 -7.59287495e-25  9.99995278e-06]]",[3.19032489e-21 7.32467533e-52 0.00000000e+00],6.615853357039423e-20,2.204006640678648e-18
1786950151.1287527,-5.190536283344258e-21,-5.0794496197859014e-51,0.0,"[ 9.99904103e-03 -5.80719600e-28  0.00000000e+00  0.00000000e+00
  0.00000000e+00  4.21289570e-08 -5.80719600e-28  9.99900010e-03
  0.00000000e+00  0.00000000e+00  0.00000000e+00 -7.98101643e-22
  0.00000000e+00  0.00000000e+00  0.00000000e+00  0.00000000e+00
  0.00000000e+00  0.00000000e+00  0.00000000e+00  0.00000000e+00
  0.00000000e+00  0.00000000e+00  0.00000000e+00  0.00000000e+00
  0.00000000e+00  0.00000000e+00  0.00000000e+00  0.00000000e+00
  0.00000000e+00  0.00000000e+00  4.21289570e-08 -7.98101643e-22
  0.00000000e+00  0.00000000e+00  0.00000000e+00  9.99985576e-03]","[[ 9.99904103e-06 -5.80719600e-31  4.21289570e-11]
 [-5.80719600e-31  9.99900010e-06 -7.98101643e-25]
 [ 4.21289570e-11 -7.98101643e-25  9.99985576e-06]]",[5.19058818e-21 2.06519398e-51 0.00000000e+00],-1.9927310986469627e-19,-1.130148178255357e-18
1786950151.171534,-1.278680762244646e-20,-2.1762926385565163e-50,0.0,"[ 9.99874204e-03 -4.53627209e-28  0.00000000e+00  0.00000000e+00
  0.00000000e+00  4.30897968e-08 -4.53627209e-28  9.99870017e-03
  0.00000000e+00  0.00000000e+00  0.00000000e+00 -7.68258073e-22
  0.00000000e+00  0.00000000e+00  0.00000000e+00  0.00000000e+00
  0.00000000e+00  0.00000000e+00  0.00000000e+00  0.00000000e+00
  0.00000000e+00  0.00000000e+00  0.00000000e+00  0.00000000e+00
  0.00000000e+00  0.00000000e+00  0.00000000e+00  0.00000000e+00
  0.00000000e+00  0.00000000e+00  4.30897968e-08 -7.68258073e-22
  0.00000000e+00  0.00000000e+00  0.00000000e+00  9.99957534e-03]","[[ 9.99874204e-06 -4.53627209e-31  4.30897968e-11]
 [-4.53627209e-31  9.99870017e-06 -7.68258073e-25]
 [ 4.30897968e-11 -7.68258073e-25  9.99957534e-06]]",[1.27869355e-20 1.59625841e-50 0.00000000e+00],9.315937758125882e-20,-2.9570862031019713e-20
1786950151.226451,-1.5673989993831664e-20,-5.330220488705743e-50,0.0,"[ 9.99844264e-03 -6.98910613e-28  0.00000000e+00  0.00000000e+00
  0.00000000e+00  4.36231311e-08 -6.98910613e-28  9.99840026e-03
  0.00000000e+00  0.00000000e+00  0.00000000e+00 -8.25187506e-22
  0.00000000e+00  0.00000000e+00  0.00000000e+00  0.00000000e+00
  0.00000000e+00  0.00000000e+00  0.00000000e+00  0.00000000e+00
  0.00000000e+00  0.00000000e+00  0.00000000e+00  0.00000000e+00
  0.00000000e+00  0.00000000e+00  0.00000000e+00  0.00000000e+00
  0.00000000e+00  0.00000000e+00  4.36231311e-08 -8.25187506e-22
  0.00000000e+00  0.00000000e+00  0.00000000e+00  9.99928626e-03]","[[ 9.99844264e-06 -6.98910613e-31  4.36231311e-11]
 [-6.98910613e-31  9.99840026e-06 -8.25187506e-25]
 [ 4.36231311e-11 -8.25187506e-25  9.99928626e-06]]",[1.56741467e-20 4.23478008e-50 0.00000000e+00],6.090706942136459e-20,5.174943531359318e-19
1786950151.27426,-1.513944192952581e-20,-7.318342709633845e-50,0.0,"[ 9.99824302e-03 -6.46109191e-28  0.00000000e+00  0.00000000e+00
  0.00000000e+00  4.39369992e-08 -6.46109191e-28  9.99820032e-03
  0.00000000e+00  0.00000000e+00  0.00000000e+00 -8.13077950e-22
  0.00000000e+00  0.00000000e+00  0.00000000e+00  0.00000000e+00
  0.00000000e+00  0.00000000e+00  0.00000000e+00  0.00000000e+00
  0.00000000e+00  0.00000000e+00  0.00000000e+00  0.00000000e+00
  0.00000000e+00  0.00000000e+00  0.00000000e+00  0.00000000e+00
  0.00000000e+00  0.00000000e+00  4.39369992e-08 -8.13077950e-22
  0.00000000e+00  0.00000000e+00  0.00000000e+00  9.99909270e-03]","[[ 9.99824302e-06 -6.46109191e-31  4.39369992e-11]
 [-6.46109191e-31  9.99820032e-06 -8.13077950e-25]
 [ 4.39369992e-11 -8.13077950e-25  9.99909270e-06]]",[1.51395933e-20 6.34022306e-50 0.00000000e+00],6.341710146311776e-21,-8.589791978998638e-21
1786950151.3194788,-1.425872953115887e-20,-1.1132890297545858e-49,0.0,"[ 9.99794360e-03 -1.03296835e-27  0.00000000e+00  0.00000000e+00
  0.00000000e+00  4.44221378e-08 -1.03296835e-27  9.99790044e-03
  0.00000000e+00  0.00000000e+00  0.00000000e+00 -9.00716192e-22
  0.00000000e+00  0.00000000e+00  0.00000000e+00  0.00000000e+00
  0.00000000e+00  0.00000000e+00  0.00000000e+00  0.00000000e+00
  0.00000000e+00  0.00000000e+00  0.00000000e+00  0.00000000e+00
  0.00000000e+00  0.00000000e+00  0.00000000e+00  0.00000000e+00
  0.00000000e+00  0.00000000e+00  4.44221378e-08 -9.00716192e-22
  0.00000000e+00  0.00000000e+00  0.00000000e+00  9.99880267e-03]","[[ 9.99794360e-06 -1.03296835e-30  4.44221378e-11]
 [-1.03296835e-30  9.99790044e-06 -9.00716192e-25]
 [ 4.44221378e-11 -9.00716192e-25  9.99880267e-06]]",[1.42588721e-20 9.66009052e-50 0.00000000e+00],-2.3948949153171413e-19,1.154859696060683e-18
1786950151.3642414,-1.6517620401710454e-20,-1.4997370479437043e-49,0.0,"[ 9.99774400e-03 -1.19435045e-27  0.00000000e+00  0.00000000e+00
  0.00000000e+00  4.47348910e-08 -1.19435045e-27  9.99770053e-03
  0.00000000e+00  0.00000000e+00  0.00000000e+00 -9.37054734e-22
  0.00000000e+00  0.00000000e+00  0.00000000e+00  0.00000000e+00
  0.00000000e+00  0.00000000e+00  0.00000000e+00  0.00000000e+00
  0.00000000e+00  0.00000000e+00  0.00000000e+00  0.00000000e+00
  0.00000000e+00  0.00000000e+00  0.00000000e+00  0.00000000e+00
  0.00000000e+00  0.00000000e+00  4.47348910e-08 -9.37054734e-22
  0.00000000e+00  0.00000000e+00  0.00000000e+00  9.99860911e-03]","[[ 9.99774400e-06 -1.19435045e-30  4.47348910e-11]
 [-1.19435045e-30  9.99770053e-06 -9.37054734e-25]
 [ 4.47348910e-11 -9.37054734e-25  9.99860911e-06]]",[1.65177855e-20 1.30246982e-49 0.00000000e+00],2.7720058537260945e-20,-2.4993688210571426e-19
1786950151.444533,-1.9646577271606975e-20,-2.2258945093233996e-49,0.0,"[ 9.99744461e-03 -1.36456827e-27  0.00000000e+00  0.00000000e+00
  0.00000000e+00  4.52206618e-08 -1.36456827e-27  9.99740068e-03
  0.00000000e+00  0.00000000e+00  0.00000000e+00 -9.74841237e-22
  0.00000000e+00  0.00000000e+00  0.00000000e+00  0.00000000e+00
  0.00000000e+00  0.00000000e+00  0.00000000e+00  0.00000000e+00
  0.00000000e+00  0.00000000e+00  0.00000000e+00  0.00000000e+00
  0.00000000e+00  0.00000000e+00  0.00000000e+00  0.00000000e+00
  0.00000000e+00  0.00000000e+00  4.52206618e-08 -9.74841237e-22
  0.00000000e+00  0.00000000e+00  0.00000000e+00  9.99831913e-03]","[[ 9.99744461e-06 -1.36456827e-30  4.52206618e-11]
 [-1.36456827e-30  9.99740068e-06 -9.74841237e-25]
 [ 4.52206618e-11 -9.74841237e-25  9.99831913e-06]]",[1.96467737e-20 1.95782044e-49 0.00000000e+00],-8.147251859763575e-20,7.712003785433138e-19
1786950151.46519,-2.129282334415337e-20,-2.8583556530744844e-49,0.0,"[ 9.99724519e-03 -1.52536390e-27  0.00000000e+00  0.00000000e+00
  0.00000000e+00  4.57057248e-08 -1.52536390e-27  9.99720078e-03
  0.00000000e+00  0.00000000e+00  0.00000000e+00 -1.01022151e-21
  0.00000000e+00  0.00000000e+00  0.00000000e+00  0.00000000e+00
  0.00000000e+00  0.00000000e+00  0.00000000e+00  0.00000000e+00
  0.00000000e+00  0.00000000e+00  0.00000000e+00  0.00000000e+00
  0.00000000e+00  0.00000000e+00  0.00000000e+00  0.00000000e+00
  0.00000000e+00  0.00000000e+00  4.57057248e-08 -1.01022151e-21
  0.00000000e+00  0.00000000e+00  0.00000000e+00  9.99812909e-03]","[[ 9.99724519e-06 -1.52536390e-30  4.57057248e-11]
 [-1.52536390e-30  9.99720078e-06 -1.01022151e-24]
 [ 4.57057248e-11 -1.01022151e-24  9.99812909e-06]]",[2.12930362e-20 2.53358470e-49 0.00000000e+00],-1.6346634531963136e-19,1.3363093182342432e-18
1786950151.5251913,-2.297103391937655e-20,-3.792809248379799e-49,0.0,"[ 9.99694577e-03 -1.48923741e-27  0.00000000e+00  0.00000000e+00
  0.00000000e+00  4.61159488e-08 -1.48923741e-27  9.99690096e-03
  0.00000000e+00  0.00000000e+00  0.00000000e+00 -1.00211937e-21
  0.00000000e+00  0.00000000e+00  0.00000000e+00  0.00000000e+00
  0.00000000e+00  0.00000000e+00  0.00000000e+00  0.00000000e+00
  0.00000000e+00  0.00000000e+00  0.00000000e+00  0.00000000e+00
  0.00000000e+00  0.00000000e+00  0.00000000e+00  0.00000000e+00
  0.00000000e+00  0.00000000e+00  4.61159488e-08 -1.00211937e-21
  0.00000000e+00  0.00000000e+00  0.00000000e+00  9.99783760e-03]","[[ 9.99694577e-06 -1.48923741e-30  4.61159488e-11]
 [-1.48923741e-30  9.99690096e-06 -1.00211937e-24]
 [ 4.61159488e-11 -1.00211937e-24  9.99783760e-06]]",[2.29712636e-20 3.45074709e-49 0.00000000e+00],-1.843510560925871e-19,-6.059366574919426e-20
1786950151.5728106,-2.3772597373086813e-20,-4.525185737342481e-49,0.0,"[ 9.99674620e-03 -1.66008725e-27  0.00000000e+00  0.00000000e+00
  0.00000000e+00  4.64248498e-08 -1.66008725e-27  9.99670109e-03
  0.00000000e+00  0.00000000e+00  0.00000000e+00 -1.03893520e-21
  0.00000000e+00  0.00000000e+00  0.00000000e+00  0.00000000e+00
  0.00000000e+00  0.00000000e+00  0.00000000e+00  0.00000000e+00
  0.00000000e+00  0.00000000e+00  0.00000000e+00  0.00000000e+00
  0.00000000e+00  0.00000000e+00  0.00000000e+00  0.00000000e+00
  0.00000000e+00  0.00000000e+00  4.64248498e-08 -1.03893520e-21
  0.00000000e+00  0.00000000e+00  0.00000000e+00  9.99764400e-03]","[[ 9.99674620e-06 -1.66008725e-30  4.64248498e-11]
 [-1.66008725e-30  9.99670109e-06 -1.03893520e-24]
 [ 4.64248498e-11 -1.03893520e-24  9.99764400e-06]]",[2.37728350e-20 4.13057723e-49 0.00000000e+00],-2.985767588283216e-19,1.214017297862187e-18
1786950151.6168575,-2.5390404391840776e-20,-5.491246262858182e-49,0.0,"[ 9.99654714e-03 -1.95316060e-27  0.00000000e+00  0.00000000e+00
  0.00000000e+00  4.72572260e-08 -1.95316060e-27  9.99650122e-03
  0.00000000e+00  0.00000000e+00  0.00000000e+00 -1.10184194e-21
  0.00000000e+00  0.00000000e+00  0.00000000e+00  0.00000000e+00
  0.00000000e+00  0.00000000e+00  0.00000000e+00  0.00000000e+00
  0.00000000e+00  0.00000000e+00  0.00000000e+00  0.00000000e+00
  0.00000000e+00  0.00000000e+00  0.00000000e+00  0.00000000e+00
  0.00000000e+00  0.00000000e+00  4.72572260e-08 -1.10184194e-21
  0.00000000e+00  0.00000000e+00  0.00000000e+00  9.99746104e-03]","[[ 9.99654714e-06 -1.95316060e-30  4.72572260e-11]
 [-1.95316060e-30  9.99650122e-06 -1.10184194e-24]
 [ 4.72572260e-11 -1.10184194e-24  9.99746104e-06]]",[2.53906582e-20 4.99537587e-49 0.00000000e+00],-7.076484523033318e-20,-1.3652216231910203e-18
1786950151.6670187,-2.7284977509969904e-20,-6.601193275433724e-49,0.0,"[ 9.99634758e-03 -2.08735900e-27  0.00000000e+00  0.00000000e+00
  0.00000000e+00  4.75624273e-08 -2.08735900e-27  9.99630137e-03
  0.00000000e+00  0.00000000e+00  0.00000000e+00 -1.13021047e-21
  0.00000000e+00  0.00000000e+00  0.00000000e+00  0.00000000e+00
  0.00000000e+00  0.00000000e+00  0.00000000e+00  0.00000000e+00
  0.00000000e+00  0.00000000e+00  0.00000000e+00  0.00000000e+00
  0.00000000e+00  0.00000000e+00  0.00000000e+00  0.00000000e+00
  0.00000000e+00  0.00000000e+00  4.75624273e-08 -1.13021047e-21
  0.00000000e+00  0.00000000e+00  0.00000000e+00  9.99726738e-03]","[[ 9.99634758e-06 -2.08735900e-30  4.75624273e-11]
 [-2.08735900e-30  9.99630137e-06 -1.13021047e-24]
 [ 4.75624273e-11 -1.13021047e-24  9.99726738e-06]]",[2.72852503e-20 6.03171244e-49 0.00000000e+00],-2.87442103683448e-20,1.3586498730720175e-19
1786950151.7166915,-3.140839483260497e-20,-8.607016742174093e-49,0.0,"[ 9.99604827e-03 -2.24982802e-27  0.00000000e+00  0.00000000e+00
  0.00000000e+00  4.80303369e-08 -2.24982802e-27  9.99600160e-03
  0.00000000e+00  0.00000000e+00  0.00000000e+00 -1.16430134e-21
  0.00000000e+00  0.00000000e+00  0.00000000e+00  0.00000000e+00
  0.00000000e+00  0.00000000e+00  0.00000000e+00  0.00000000e+00
  0.00000000e+00  0.00000000e+00  0.00000000e+00  0.00000000e+00
  0.00000000e+00  0.00000000e+00  0.00000000e+00  0.00000000e+00
  0.00000000e+00  0.00000000e+00  4.80303369e-08 -1.16430134e-21
  0.00000000e+00  0.00000000e+00  0.00000000e+00  9.99697712e-03]","[[ 9.99604827e-06 -2.24982802e-30  4.80303369e-11]
 [-2.24982802e-30  9.99600160e-06 -1.16430134e-24]
 [ 4.80303369e-11 -1.16430134e-24  9.99697712e-06]]",[3.14087088e-20 7.90045378e-49 0.00000000e+00],1.3594156650875638e-20,1.4552640669195524e-18
1786950151.7672813,-3.7493275521893916e-20,-1.028703748146202e-48,0.0,"[ 9.99584892e-03 -2.42037690e-27  0.00000000e+00  0.00000000e+00
  0.00000000e+00  4.85366146e-08 -2.42037690e-27  9.99580176e-03
  0.00000000e+00  0.00000000e+00  0.00000000e+00 -1.19972238e-21
  0.00000000e+00  0.00000000e+00  0.00000000e+00  0.00000000e+00
  0.00000000e+00  0.00000000e+00  0.00000000e+00  0.00000000e+00
  0.00000000e+00  0.00000000e+00  0.00000000e+00  0.00000000e+00
  0.00000000e+00  0.00000000e+00  0.00000000e+00  0.00000000e+00
  0.00000000e+00  0.00000000e+00  4.85366146e-08 -1.19972238e-21
  0.00000000e+00  0.00000000e+00  0.00000000e+00  9.99678756e-03]","[[ 9.99584892e-06 -2.42037690e-30  4.85366146e-11]
 [-2.42037690e-30  9.99580176e-06 -1.19972238e-24]
 [ 4.85366146e-11 -1.19972238e-24  9.99678756e-06]]",[3.74936503e-20 9.37964359e-49 0.00000000e+00],-8.431376756812643e-20,1.3197435716152192e-18
1786950151.814379,-4.352617450943727e-20,-1.3430551011322672e-48,0.0,"[ 9.99554951e-03 -2.62239959e-27  0.00000000e+00  0.00000000e+00
  0.00000000e+00  4.88669643e-08 -2.62239959e-27  9.99550202e-03
  0.00000000e+00  0.00000000e+00  0.00000000e+00 -1.24124898e-21
  0.00000000e+00  0.00000000e+00  0.00000000e+00  0.00000000e+00
  0.00000000e+00  0.00000000e+00  0.00000000e+00  0.00000000e+00
  0.00000000e+00  0.00000000e+00  0.00000000e+00  0.00000000e+00
  0.00000000e+00  0.00000000e+00  0.00000000e+00  0.00000000e+00
  0.00000000e+00  0.00000000e+00  4.88669643e-08 -1.24124898e-21
  0.00000000e+00  0.00000000e+00  0.00000000e+00  9.99649453e-03]","[[ 9.99554951e-06 -2.62239959e-30  4.88669643e-11]
 [-2.62239959e-30  9.99550202e-06 -1.24124898e-24]
 [ 4.88669643e-11 -1.24124898e-24  9.99649453e-06]]",[4.35266096e-20 1.22892322e-48 0.00000000e+00],-8.431376756812643e-20,1.3197435716152192e-18
1786950151.8649511,-4.849358875781276e-20,-1.602646800164882e-48,0.0,"[ 9.99535000e-03 -2.78986907e-27  0.00000000e+00  0.00000000e+00
  0.00000000e+00  4.91836164e-08 -2.78986907e-27  9.99530221e-03
  0.00000000e+00  0.00000000e+00  0.00000000e+00 -1.27545004e-21
  0.00000000e+00  0.00000000e+00  0.00000000e+00  0.00000000e+00
  0.00000000e+00  0.00000000e+00  0.00000000e+00  0.00000000e+00
  0.00000000e+00  0.00000000e+00  0.00000000e+00  0.00000000e+00
  0.00000000e+00  0.00000000e+00  0.00000000e+00  0.00000000e+00
  0.00000000e+00  0.00000000e+00  4.91836164e-08 -1.27545004e-21
  0.00000000e+00  0.00000000e+00  0.00000000e+00  9.99630115e-03]","[[ 9.99535000e-06 -2.78986907e-30  4.91836164e-11]
 [-2.78986907e-30  9.99530221e-06 -1.27545004e-24]
 [ 4.91836164e-11 -1.27545004e-24  9.99630115e-06]]",[4.84940735e-20 1.46736935e-48 0.00000000e+00],-8.431376756812643e-20,1.3197435716152192e-18
1786950151.9198635,-5.3265483779387403e-20,-1.9056979902938168e-48,0.0,"[ 9.99515047e-03 -2.95175355e-27  0.00000000e+00  0.00000000e+00
  0.00000000e+00  4.94757054e-08 -2.95175355e-27  9.99510240e-03
  0.00000000e+00  0.00000000e+00  0.00000000e+00 -1.30830189e-21
  0.00000000e+00  0.00000000e+00  0.00000000e+00  0.00000000e+00
  0.00000000e+00  0.00000000e+00  0.00000000e+00  0.00000000e+00
  0.00000000e+00  0.00000000e+00  0.00000000e+00  0.00000000e+00
  0.00000000e+00  0.00000000e+00  0.00000000e+00  0.00000000e+00
  0.00000000e+00  0.00000000e+00  4.94757054e-08 -1.30830189e-21
  0.00000000e+00  0.00000000e+00  0.00000000e+00  9.99610727e-03]","[[ 9.99515047e-06 -2.95175355e-30  4.94757054e-11]
 [-2.95175355e-30  9.99510240e-06 -1.30830189e-24]
 [ 4.94757054e-11 -1.30830189e-24  9.99610727e-06]]",[5.32660162e-20 1.74848731e-48 0.00000000e+00],-8.431376756812643e-20,1.3197435716152192e-18
1786950151.9707875,-5.950922814440625e-20,-2.3980084824811374e-48,0.0,"[ 9.99485131e-03 -2.81991316e-27  0.00000000e+00  0.00000000e+00
  0.00000000e+00  5.00207496e-08 -2.81991316e-27  9.99480270e-03
  0.00000000e+00  0.00000000e+00  0.00000000e+00 -1.28162139e-21
  0.00000000e+00  0.00000000e+00  0.00000000e+00  0.00000000e+00
  0.00000000e+00  0.00000000e+00  0.00000000e+00  0.00000000e+00
  0.00000000e+00  0.00000000e+00  0.00000000e+00  0.00000000e+00
  0.00000000e+00  0.00000000e+00  0.00000000e+00  0.00000000e+00
  0.00000000e+00  0.00000000e+00  5.00207496e-08 -1.28162139e-21
  0.00000000e+00  0.00000000e+00  0.00000000e+00  9.99581865e-03]","[[ 9.99485131e-06 -2.81991316e-30  5.00207496e-11]
 [-2.81991316e-30  9.99480270e-06 -1.28162139e-24]
 [ 5.00207496e-11 -1.28162139e-24  9.99581865e-06]]",[5.95098229e-20 2.23021824e-48 0.00000000e+00],-9.592265357425177e-20,1.282900012540114e-18
1786950152.0172925,-6.193766486353175e-20,-2.771336740984458e-48,0.0,"[ 9.99465181e-03 -3.10099803e-27  0.00000000e+00  0.00000000e+00
  0.00000000e+00  5.03197654e-08 -3.10099803e-27  9.99460291e-03
  0.00000000e+00  0.00000000e+00  0.00000000e+00 -1.33773085e-21
  0.00000000e+00  0.00000000e+00  0.00000000e+00  0.00000000e+00
  0.00000000e+00  0.00000000e+00  0.00000000e+00  0.00000000e+00
  0.00000000e+00  0.00000000e+00  0.00000000e+00  0.00000000e+00
  0.00000000e+00  0.00000000e+00  0.00000000e+00  0.00000000e+00
  0.00000000e+00  0.00000000e+00  5.03197654e-08 -1.33773085e-21
  0.00000000e+00  0.00000000e+00  0.00000000e+00  9.99562493e-03]","[[ 9.99465181e-06 -3.10099803e-30  5.03197654e-11]
 [-3.10099803e-30  9.99460291e-06 -1.33773085e-24]
 [ 5.03197654e-11 -1.33773085e-24  9.99562493e-06]]",[6.19382839e-20 2.57929202e-48 0.00000000e+00],-1.0505645245820747e-19,-1.2776804884384746e-18
1786950152.0668142,-6.683499895929095e-20,-3.492794651275325e-48,0.0,"[ 9.99435263e-03 -3.97582648e-27  0.00000000e+00  0.00000000e+00
  0.00000000e+00  5.08229145e-08 -3.97582648e-27  9.99430325e-03
  0.00000000e+00  0.00000000e+00  0.00000000e+00 -1.51099941e-21
  0.00000000e+00  0.00000000e+00  0.00000000e+00  0.00000000e+00
  0.00000000e+00  0.00000000e+00  0.00000000e+00  0.00000000e+00
  0.00000000e+00  0.00000000e+00  0.00000000e+00  0.00000000e+00
  0.00000000e+00  0.00000000e+00  0.00000000e+00  0.00000000e+00
  0.00000000e+00  0.00000000e+00  5.08229145e-08 -1.51099941e-21
  0.00000000e+00  0.00000000e+00  0.00000000e+00  9.99533548e-03]","[[ 9.99435263e-06 -3.97582648e-30  5.08229145e-11]
 [-3.97582648e-30  9.99430325e-06 -1.51099941e-24]
 [ 5.08229145e-11 -1.51099941e-24  9.99533548e-06]]",[6.68356669e-20 3.22709989e-48 0.00000000e+00],-3.32588859843042e-19,8.432219460214294e-19
1786950152.130778,-7.24591044262394e-20,-4.378024546326982e-48,0.0,"[ 9.99405340e-03 -4.26963717e-27  0.00000000e+00  0.00000000e+00
  0.00000000e+00  5.12595259e-08 -4.26963717e-27  9.99400360e-03
  0.00000000e+00  0.00000000e+00  0.00000000e+00 -1.56864917e-21
  0.00000000e+00  0.00000000e+00  0.00000000e+00  0.00000000e+00
  0.00000000e+00  0.00000000e+00  0.00000000e+00  0.00000000e+00
  0.00000000e+00  0.00000000e+00  0.00000000e+00  0.00000000e+00
  0.00000000e+00  0.00000000e+00  0.00000000e+00  0.00000000e+00
  0.00000000e+00  0.00000000e+00  5.12595259e-08 -1.56864917e-21
  0.00000000e+00  0.00000000e+00  0.00000000e+00  9.99504470e-03]","[[ 9.99405340e-06 -4.26963717e-30  5.12595259e-11]
 [-4.26963717e-30  9.99400360e-06 -1.56864917e-24]
 [ 5.12595259e-11 -1.56864917e-24  9.99504470e-06]]",[7.24598286e-20 4.06868803e-48 0.00000000e+00],-6.922154335480965e-20,9.509061855832382e-20
1786950152.1647124,-7.407903936651904e-20,-4.9878150631550944e-48,0.0,"[ 9.99385394e-03 -4.02199983e-27  0.00000000e+00  0.00000000e+00
  0.00000000e+00  5.15635532e-08 -4.02199983e-27  9.99380384e-03
  0.00000000e+00  0.00000000e+00  0.00000000e+00 -1.52049923e-21
  0.00000000e+00  0.00000000e+00  0.00000000e+00  0.00000000e+00
  0.00000000e+00  0.00000000e+00  0.00000000e+00  0.00000000e+00
  0.00000000e+00  0.00000000e+00  0.00000000e+00  0.00000000e+00
  0.00000000e+00  0.00000000e+00  0.00000000e+00  0.00000000e+00
  0.00000000e+00  0.00000000e+00  5.15635532e-08 -1.52049923e-21
  0.00000000e+00  0.00000000e+00  0.00000000e+00  9.99485112e-03]","[[ 9.99385394e-06 -4.02199983e-30  5.15635532e-11]
 [-4.02199983e-30  9.99380384e-06 -1.52049923e-24]
 [ 5.15635532e-11 -1.52049923e-24  9.99485112e-06]]",[7.40797797e-20 4.68991307e-48 0.00000000e+00],2.100407417588274e-19,4.852293140510089e-19
1786950152.215695,-7.607171244304546e-20,-5.918327728884797e-48,0.0,"[ 9.99355478e-03 -4.17638856e-27  0.00000000e+00  0.00000000e+00
  0.00000000e+00  5.20298766e-08 -4.17638856e-27  9.99350422e-03
  0.00000000e+00  0.00000000e+00  0.00000000e+00 -1.55036492e-21
  0.00000000e+00  0.00000000e+00  0.00000000e+00  0.00000000e+00
  0.00000000e+00  0.00000000e+00  0.00000000e+00  0.00000000e+00
  0.00000000e+00  0.00000000e+00  0.00000000e+00  0.00000000e+00
  0.00000000e+00  0.00000000e+00  0.00000000e+00  0.00000000e+00
  0.00000000e+00  0.00000000e+00  5.20298766e-08 -1.55036492e-21
  0.00000000e+00  0.00000000e+00  0.00000000e+00  9.99456097e-03]","[[ 9.99355478e-06 -4.17638856e-30  5.20298766e-11]
 [-4.17638856e-30  9.99350422e-06 -1.55036492e-24]
 [ 5.20298766e-11 -1.55036492e-24  9.99456097e-06]]",[7.60724727e-20 5.60067549e-48 0.00000000e+00],-1.5961661447641703e-20,8.477549354223888e-19
1786950152.2659569,-7.839168880363704e-20,-6.607967971633704e-48,0.0,"[ 9.99335533e-03 -4.39783487e-27  0.00000000e+00  0.00000000e+00
  0.00000000e+00  5.23233670e-08 -4.39783487e-27  9.99330449e-03
  0.00000000e+00  0.00000000e+00  0.00000000e+00 -1.59294221e-21
  0.00000000e+00  0.00000000e+00  0.00000000e+00  0.00000000e+00
  0.00000000e+00  0.00000000e+00  0.00000000e+00  0.00000000e+00
  0.00000000e+00  0.00000000e+00  0.00000000e+00  0.00000000e+00
  0.00000000e+00  0.00000000e+00  0.00000000e+00  0.00000000e+00
  0.00000000e+00  0.00000000e+00  5.23233670e-08 -1.59294221e-21
  0.00000000e+00  0.00000000e+00  0.00000000e+00  9.99436720e-03]","[[ 9.99335533e-06 -4.39783487e-30  5.23233670e-11]
 [-4.39783487e-30  9.99330449e-06 -1.59294221e-24]
 [ 5.23233670e-11 -1.59294221e-24  9.99436720e-06]]",[7.83924722e-20 6.26327341e-48 0.00000000e+00],6.763443648665903e-20,8.255067243477667e-20
1786950152.3183033,-8.26818648386577e-20,-7.656865942504445e-48,0.0,"[ 9.99305620e-03 -4.39206727e-27  0.00000000e+00  0.00000000e+00
  0.00000000e+00  5.27998354e-08 -4.39206727e-27  9.99300490e-03
  0.00000000e+00  0.00000000e+00  0.00000000e+00 -1.59166046e-21
  0.00000000e+00  0.00000000e+00  0.00000000e+00  0.00000000e+00
  0.00000000e+00  0.00000000e+00  0.00000000e+00  0.00000000e+00
  0.00000000e+00  0.00000000e+00  0.00000000e+00  0.00000000e+00
  0.00000000e+00  0.00000000e+00  0.00000000e+00  0.00000000e+00
  0.00000000e+00  0.00000000e+00  5.27998354e-08 -1.59166046e-21
  0.00000000e+00  0.00000000e+00  0.00000000e+00  9.99407728e-03]","[[ 9.99305620e-06 -4.39206727e-30  5.27998354e-11]
 [-4.39206727e-30  9.99300490e-06 -1.59166046e-24]
 [ 5.27998354e-11 -1.59166046e-24  9.99407728e-06]]",[8.26826911e-20 7.29379089e-48 0.00000000e+00],-1.37905158261385e-19,-1.826648760322499e-18
1786950152.364859,-8.339455307589198e-20,-8.349609112221835e-48,0.0,"[ 9.99285678e-03 -4.19931009e-27  0.00000000e+00  0.00000000e+00
  0.00000000e+00  5.31009967e-08 -4.19931009e-27  9.99280518e-03
  0.00000000e+00  0.00000000e+00  0.00000000e+00 -1.55511099e-21
  0.00000000e+00  0.00000000e+00  0.00000000e+00  0.00000000e+00
  0.00000000e+00  0.00000000e+00  0.00000000e+00  0.00000000e+00
  0.00000000e+00  0.00000000e+00  0.00000000e+00  0.00000000e+00
  0.00000000e+00  0.00000000e+00  0.00000000e+00  0.00000000e+00
  0.00000000e+00  0.00000000e+00  5.31009967e-08 -1.55511099e-21
  0.00000000e+00  0.00000000e+00  0.00000000e+00  9.99388368e-03]","[[ 9.99285678e-06 -4.19931009e-30  5.31009967e-11]
 [-4.19931009e-30  9.99280518e-06 -1.55511099e-24]
 [ 5.31009967e-11 -1.55511099e-24  9.99388368e-06]]",[8.33953864e-20 7.99948596e-48 0.00000000e+00],-1.0585626960427087e-19,-3.0482561493563626e-18
1786950152.4145672,-8.359597202230651e-20,-9.432293969221631e-48,0.0,"[ 9.99255767e-03 -4.45683683e-27  0.00000000e+00  0.00000000e+00
  0.00000000e+00  5.35656225e-08 -4.45683683e-27  9.99250562e-03
  0.00000000e+00  0.00000000e+00  0.00000000e+00 -1.60336196e-21
  0.00000000e+00  0.00000000e+00  0.00000000e+00  0.00000000e+00
  0.00000000e+00  0.00000000e+00  0.00000000e+00  0.00000000e+00
  0.00000000e+00  0.00000000e+00  0.00000000e+00  0.00000000e+00
  0.00000000e+00  0.00000000e+00  0.00000000e+00  0.00000000e+00
  0.00000000e+00  0.00000000e+00  5.35656225e-08 -1.60336196e-21
  0.00000000e+00  0.00000000e+00  0.00000000e+00  9.99359356e-03]","[[ 9.99255767e-06 -4.45683683e-30  5.35656225e-11]
 [-4.45683683e-30  9.99250562e-06 -1.60336196e-24]
 [ 5.35656225e-11 -1.60336196e-24  9.99359356e-06]]",[8.35968074e-20 9.05980717e-48 0.00000000e+00],-2.335033723790986e-19,3.1918773788033346e-18
1786950152.4641957,-8.556047587402257e-20,-1.021040902616491e-47,0.0,"[ 9.99235826e-03 -4.61858260e-27  0.00000000e+00  0.00000000e+00
  0.00000000e+00  5.38614664e-08 -4.61858260e-27  9.99230592e-03
  0.00000000e+00  0.00000000e+00  0.00000000e+00 -1.63351428e-21
  0.00000000e+00  0.00000000e+00  0.00000000e+00  0.00000000e+00
  0.00000000e+00  0.00000000e+00  0.00000000e+00  0.00000000e+00
  0.00000000e+00  0.00000000e+00  0.00000000e+00  0.00000000e+00
  0.00000000e+00  0.00000000e+00  0.00000000e+00  0.00000000e+00
  0.00000000e+00  0.00000000e+00  5.38614664e-08 -1.63351428e-21
  0.00000000e+00  0.00000000e+00  0.00000000e+00  9.99339987e-03]","[[ 9.99235826e-06 -4.61858260e-30  5.38614664e-11]
 [-4.61858260e-30  9.99230592e-06 -1.63351428e-24]
 [ 5.38614664e-11 -1.63351428e-24  9.99339987e-06]]",[8.55613308e-20 9.81533503e-48 0.00000000e+00],-4.6128791242568245e-20,5.530513168324065e-19
1786950152.52294,-8.857572284851811e-20,-1.1489763003906726e-47,0.0,"[ 9.99205929e-03 -4.98863923e-27  0.00000000e+00  0.00000000e+00
  0.00000000e+00  5.44417106e-08 -4.98863923e-27  9.99200639e-03
  0.00000000e+00  0.00000000e+00  0.00000000e+00 -1.70187885e-21
  0.00000000e+00  0.00000000e+00  0.00000000e+00  0.00000000e+00
  0.00000000e+00  0.00000000e+00  0.00000000e+00  0.00000000e+00
  0.00000000e+00  0.00000000e+00  0.00000000e+00  0.00000000e+00
  0.00000000e+00  0.00000000e+00  0.00000000e+00  0.00000000e+00
  0.00000000e+00  0.00000000e+00  5.44417106e-08 -1.70187885e-21
  0.00000000e+00  0.00000000e+00  0.00000000e+00  9.99311213e-03]","[[ 9.99205929e-06 -4.98863923e-30  5.44417106e-11]
 [-4.98863923e-30  9.99200639e-06 -1.70187885e-24]
 [ 5.44417106e-11 -1.70187885e-24  9.99311213e-06]]",[8.85766079e-20 1.10479967e-47 0.00000000e+00],-2.1848468969280143e-19,-3.5909831561973236e-20
1786950152.5650263,-8.952443012163976e-20,-1.2389084296983372e-47,0.0,"[ 9.99185993e-03 -5.00387267e-27  0.00000000e+00  0.00000000e+00
  0.00000000e+00  5.47629474e-08 -5.00387267e-27  9.99180672e-03
  0.00000000e+00  0.00000000e+00  0.00000000e+00 -1.70469727e-21
  0.00000000e+00  0.00000000e+00  0.00000000e+00  0.00000000e+00
  0.00000000e+00  0.00000000e+00  0.00000000e+00  0.00000000e+00
  0.00000000e+00  0.00000000e+00  0.00000000e+00  0.00000000e+00
  0.00000000e+00  0.00000000e+00  0.00000000e+00  0.00000000e+00
  0.00000000e+00  0.00000000e+00  5.47629474e-08 -1.70469727e-21
  0.00000000e+00  0.00000000e+00  0.00000000e+00  9.99291898e-03]","[[ 9.99185993e-06 -5.00387267e-30  5.47629474e-11]
 [-5.00387267e-30  9.99180672e-06 -1.70469727e-24]
 [ 5.47629474e-11 -1.70469727e-24  9.99291898e-06]]",[8.95253246e-20 1.19412303e-47 0.00000000e+00],3.2850493848646146e-20,6.512139913565823e-19
1786950152.6160853,-8.948970528613696e-20,-1.374934912170725e-47,0.0,"[ 9.99156088e-03 -5.07686167e-27  0.00000000e+00  0.00000000e+00
  0.00000000e+00  5.52256632e-08 -5.07686167e-27  9.99150722e-03
  0.00000000e+00  0.00000000e+00  0.00000000e+00 -1.71801128e-21
  0.00000000e+00  0.00000000e+00  0.00000000e+00  0.00000000e+00
  0.00000000e+00  0.00000000e+00  0.00000000e+00  0.00000000e+00
  0.00000000e+00  0.00000000e+00  0.00000000e+00  0.00000000e+00
  0.00000000e+00  0.00000000e+00  0.00000000e+00  0.00000000e+00
  0.00000000e+00  0.00000000e+00  5.52256632e-08 -1.71801128e-21
  0.00000000e+00  0.00000000e+00  0.00000000e+00  9.99262888e-03]","[[ 9.99156088e-06 -5.07686167e-30  5.52256632e-11]
 [-5.07686167e-30  9.99150722e-06 -1.71801128e-24]
 [ 5.52256632e-11 -1.71801128e-24  9.99262888e-06]]",[8.94905994e-20 1.32951506e-47 0.00000000e+00],-3.1806994652841335e-20,-2.1269853737611717e-18
1786950152.6711094,-8.973216543145989e-20,-1.4671834773096e-47,0.0,"[ 9.99136151e-03 -5.05584253e-27  0.00000000e+00  0.00000000e+00
  0.00000000e+00  5.55173633e-08 -5.05584253e-27  9.99130756e-03
  0.00000000e+00  0.00000000e+00  0.00000000e+00 -1.71430314e-21
  0.00000000e+00  0.00000000e+00  0.00000000e+00  0.00000000e+00
  0.00000000e+00  0.00000000e+00  0.00000000e+00  0.00000000e+00
  0.00000000e+00  0.00000000e+00  0.00000000e+00  0.00000000e+00
  0.00000000e+00  0.00000000e+00  0.00000000e+00  0.00000000e+00
  0.00000000e+00  0.00000000e+00  5.55173633e-08 -1.71430314e-21
  0.00000000e+00  0.00000000e+00  0.00000000e+00  9.99243514e-03]","[[ 9.99136151e-06 -5.05584253e-30  5.55173633e-11]
 [-5.05584253e-30  9.99130756e-06 -1.71430314e-24]
 [ 5.55173633e-11 -1.71430314e-24  9.99243514e-06]]",[8.97330620e-20 1.42183006e-47 0.00000000e+00],1.7414946975982167e-19,1.3610983440795199e-18
1786950152.7145994,-9.08502274634239e-20,-1.6079346239968079e-47,0.0,"[ 9.99106253e-03 -5.18219680e-27  0.00000000e+00  0.00000000e+00
  0.00000000e+00  5.60293406e-08 -5.18219680e-27  9.99100809e-03
  0.00000000e+00  0.00000000e+00  0.00000000e+00 -1.73707621e-21
  0.00000000e+00  0.00000000e+00  0.00000000e+00  0.00000000e+00
  0.00000000e+00  0.00000000e+00  0.00000000e+00  0.00000000e+00
  0.00000000e+00  0.00000000e+00  0.00000000e+00  0.00000000e+00
  0.00000000e+00  0.00000000e+00  0.00000000e+00  0.00000000e+00
  0.00000000e+00  0.00000000e+00  5.60293406e-08 -1.73707621e-21
  0.00000000e+00  0.00000000e+00  0.00000000e+00  9.99214607e-03]","[[ 9.99106253e-06 -5.18219680e-30  5.60293406e-11]
 [-5.18219680e-30  9.99100809e-06 -1.73707621e-24]
 [ 5.60293406e-11 -1.73707621e-24  9.99214607e-06]]",[9.08511352e-20 1.56086937e-47 0.00000000e+00],6.626998096879207e-21,1.782063110356811e-18
1786950152.7681534,-9.209872571323774e-20,-1.7020032626835757e-47,0.0,"[ 9.99086318e-03 -5.12669398e-27  0.00000000e+00  0.00000000e+00
  0.00000000e+00  5.63213041e-08 -5.12669398e-27  9.99080846e-03
  0.00000000e+00  0.00000000e+00  0.00000000e+00 -1.72718112e-21
  0.00000000e+00  0.00000000e+00  0.00000000e+00  0.00000000e+00
  0.00000000e+00  0.00000000e+00  0.00000000e+00  0.00000000e+00
  0.00000000e+00  0.00000000e+00  0.00000000e+00  0.00000000e+00
  0.00000000e+00  0.00000000e+00  0.00000000e+00  0.00000000e+00
  0.00000000e+00  0.00000000e+00  5.63213041e-08 -1.72718112e-21
  0.00000000e+00  0.00000000e+00  0.00000000e+00  9.99195237e-03]","[[ 9.99086318e-06 -5.12669398e-30  5.63213041e-11]
 [-5.12669398e-30  9.99080846e-06 -1.72718112e-24]
 [ 5.63213041e-11 -1.72718112e-24  9.99195237e-06]]",[9.20996459e-20 1.65480313e-47 0.00000000e+00],2.3232432056535505e-21,-5.166612201878124e-19
1786950152.8147109,-9.644984311993938e-20,-1.860743779951247e-47,0.0,"[ 9.99056417e-03 -5.84785643e-27  0.00000000e+00  0.00000000e+00
  0.00000000e+00  5.67596516e-08 -5.84785643e-27  9.99050902e-03
  0.00000000e+00  0.00000000e+00  0.00000000e+00 -1.85472700e-21
  0.00000000e+00  0.00000000e+00  0.00000000e+00  0.00000000e+00
  0.00000000e+00  0.00000000e+00  0.00000000e+00  0.00000000e+00
  0.00000000e+00  0.00000000e+00  0.00000000e+00  0.00000000e+00
  0.00000000e+00  0.00000000e+00  0.00000000e+00  0.00000000e+00
  0.00000000e+00  0.00000000e+00  5.67596516e-08 -1.85472700e-21
  0.00000000e+00  0.00000000e+00  0.00000000e+00  9.99166183e-03]","[[ 9.99056417e-06 -5.84785643e-30  5.67596516e-11]
 [-5.84785643e-30  9.99050902e-06 -1.85472700e-24]
 [ 5.67596516e-11 -1.85472700e-24  9.99166183e-06]]",[9.64508067e-20 1.80435876e-47 0.00000000e+00],-2.822425102846023e-19,-1.3386479181860257e-18
1786950152.875864,-9.867638346342063e-20,-1.9774688186658978e-47,0.0,"[ 9.99036484e-03 -5.98073451e-27  0.00000000e+00  0.00000000e+00
  0.00000000e+00  5.70629365e-08 -5.98073451e-27  9.99030940e-03
  0.00000000e+00  0.00000000e+00  0.00000000e+00 -1.87809583e-21
  0.00000000e+00  0.00000000e+00  0.00000000e+00  0.00000000e+00
  0.00000000e+00  0.00000000e+00  0.00000000e+00  0.00000000e+00
  0.00000000e+00  0.00000000e+00  0.00000000e+00  0.00000000e+00
  0.00000000e+00  0.00000000e+00  0.00000000e+00  0.00000000e+00
  0.00000000e+00  0.00000000e+00  5.70629365e-08 -1.87809583e-21
  0.00000000e+00  0.00000000e+00  0.00000000e+00  9.99146837e-03]","[[ 9.99036484e-06 -5.98073451e-30  5.70629365e-11]
 [-5.98073451e-30  9.99030940e-06 -1.87809583e-24]
 [ 5.70629365e-11 -1.87809583e-24  9.99146837e-06]]",[9.86773693e-20 1.91847167e-47 0.00000000e+00],-5.000475553560847e-20,5.071721900056843e-19
1786950152.91676,-1.0109333884967969e-19,-2.1622090481795958e-47,0.0,"[ 9.99006596e-03 -6.41493933e-27  0.00000000e+00  0.00000000e+00
  0.00000000e+00  5.76077588e-08 -6.41493933e-27  9.99000999e-03
  0.00000000e+00  0.00000000e+00  0.00000000e+00 -1.95350638e-21
  0.00000000e+00  0.00000000e+00  0.00000000e+00  0.00000000e+00
  0.00000000e+00  0.00000000e+00  0.00000000e+00  0.00000000e+00
  0.00000000e+00  0.00000000e+00  0.00000000e+00  0.00000000e+00
  0.00000000e+00  0.00000000e+00  0.00000000e+00  0.00000000e+00
  0.00000000e+00  0.00000000e+00  5.76077588e-08 -1.95350638e-21
  0.00000000e+00  0.00000000e+00  0.00000000e+00  9.99118003e-03]","[[ 9.99006596e-06 -6.41493933e-30  5.76077588e-11]
 [-6.41493933e-30  9.99000999e-06 -1.95350638e-24]
 [ 5.76077588e-11 -1.95350638e-24  9.99118003e-06]]",[1.01094349e-19 2.09737859e-47 0.00000000e+00],-3.9566794682749924e-19,-2.8787711724200234e-19
1786950152.9642394,-1.044642281212746e-19,-2.2951228157155563e-47,0.0,"[ 9.98986667e-03 -6.56845440e-27  0.00000000e+00  0.00000000e+00
  0.00000000e+00  5.79195271e-08 -6.56845440e-27  9.98981039e-03
  0.00000000e+00  0.00000000e+00  0.00000000e+00 -1.98002613e-21
  0.00000000e+00  0.00000000e+00  0.00000000e+00  0.00000000e+00
  0.00000000e+00  0.00000000e+00  0.00000000e+00  0.00000000e+00
  0.00000000e+00  0.00000000e+00  0.00000000e+00  0.00000000e+00
  0.00000000e+00  0.00000000e+00  0.00000000e+00  0.00000000e+00
  0.00000000e+00  0.00000000e+00  5.79195271e-08 -1.98002613e-21
  0.00000000e+00  0.00000000e+00  0.00000000e+00  9.99098676e-03]","[[ 9.98986667e-06 -6.56845440e-30  5.79195271e-11]
 [-6.56845440e-30  9.98981039e-06 -1.98002613e-24]
 [ 5.79195271e-11 -1.98002613e-24  9.99098676e-06]]",[1.04465272e-19 2.22652752e-47 0.00000000e+00],-1.9852714338676309e-19,-2.5725633830689837e-19
1786950153.0241756,-1.0584676048788023e-19,-2.517010179146756e-47,0.0,"[ 9.98956774e-03 -7.16419615e-27  0.00000000e+00  0.00000000e+00
  0.00000000e+00  5.83781868e-08 -7.16419615e-27  9.98951101e-03
  0.00000000e+00  0.00000000e+00  0.00000000e+00 -2.08257867e-21
  0.00000000e+00  0.00000000e+00  0.00000000e+00  0.00000000e+00
  0.00000000e+00  0.00000000e+00  0.00000000e+00  0.00000000e+00
  0.00000000e+00  0.00000000e+00  0.00000000e+00  0.00000000e+00
  0.00000000e+00  0.00000000e+00  0.00000000e+00  0.00000000e+00
  0.00000000e+00  0.00000000e+00  5.83781868e-08 -2.08257867e-21
  0.00000000e+00  0.00000000e+00  0.00000000e+00  9.99069670e-03]","[[ 9.98956774e-06 -7.16419615e-30  5.83781868e-11]
 [-7.16419615e-30  9.98951101e-06 -2.08257867e-24]
 [ 5.83781868e-11 -2.08257867e-24  9.99069670e-06]]",[1.05847818e-19 2.44120311e-47 0.00000000e+00],-8.426460711641843e-20,-1.7248342159582279e-18
1786950153.0665164,-1.0660569839744332e-19,-2.6717721072751564e-47,0.0,"[ 9.98936848e-03 -7.33755958e-27  0.00000000e+00  0.00000000e+00
  0.00000000e+00  5.87086151e-08 -7.33755958e-27  9.98931144e-03
  0.00000000e+00  0.00000000e+00  0.00000000e+00 -2.11219513e-21
  0.00000000e+00  0.00000000e+00  0.00000000e+00  0.00000000e+00
  0.00000000e+00  0.00000000e+00  0.00000000e+00  0.00000000e+00
  0.00000000e+00  0.00000000e+00  0.00000000e+00  0.00000000e+00
  0.00000000e+00  0.00000000e+00  0.00000000e+00  0.00000000e+00
  0.00000000e+00  0.00000000e+00  5.87086151e-08 -2.11219513e-21
  0.00000000e+00  0.00000000e+00  0.00000000e+00  9.99050383e-03]","[[ 9.98936848e-06 -7.33755958e-30  5.87086151e-11]
 [-7.33755958e-30  9.98931144e-06 -2.11219513e-24]
 [ 5.87086151e-11 -2.11219513e-24  9.99050383e-06]]",[1.06606763e-19 2.59357467e-47 0.00000000e+00],-1.0640844622627928e-19,6.338973472756166e-19
1786950153.1145341,-1.0760120876126757e-19,-2.8958489507360764e-47,0.0,"[ 9.98906955e-03 -7.06445528e-27  0.00000000e+00  0.00000000e+00
  0.00000000e+00  5.91411633e-08 -7.06445528e-27  9.98901209e-03
  0.00000000e+00  0.00000000e+00  0.00000000e+00 -2.06561288e-21
  0.00000000e+00  0.00000000e+00  0.00000000e+00  0.00000000e+00
  0.00000000e+00  0.00000000e+00  0.00000000e+00  0.00000000e+00
  0.00000000e+00  0.00000000e+00  0.00000000e+00  0.00000000e+00
  0.00000000e+00  0.00000000e+00  0.00000000e+00  0.00000000e+00
  0.00000000e+00  0.00000000e+00  5.91411633e-08 -2.06561288e-21
  0.00000000e+00  0.00000000e+00  0.00000000e+00  9.99021327e-03]","[[ 9.98906955e-06 -7.06445528e-30  5.91411633e-11]
 [-7.06445528e-30  9.98901209e-06 -2.06561288e-24]
 [ 5.91411633e-11 -2.06561288e-24  9.99021327e-06]]",[1.07602284e-19 2.81986197e-47 0.00000000e+00],-1.7927313664023924e-19,-1.559159799971708e-19
1786950153.1642685,-1.0884338398373498e-19,-3.054198687196363e-47,0.0,"[ 9.98887033e-03 -7.34695430e-27  0.00000000e+00  0.00000000e+00
  0.00000000e+00  5.94875184e-08 -7.34695430e-27  9.98881253e-03
  0.00000000e+00  0.00000000e+00  0.00000000e+00 -2.11326331e-21
  0.00000000e+00  0.00000000e+00  0.00000000e+00  0.00000000e+00
  0.00000000e+00  0.00000000e+00  0.00000000e+00  0.00000000e+00
  0.00000000e+00  0.00000000e+00  0.00000000e+00  0.00000000e+00
  0.00000000e+00  0.00000000e+00  0.00000000e+00  0.00000000e+00
  0.00000000e+00  0.00000000e+00  5.94875184e-08 -2.11326331e-21
  0.00000000e+00  0.00000000e+00  0.00000000e+00  9.99002075e-03]","[[ 9.98887033e-06 -7.34695430e-30  5.94875184e-11]
 [-7.34695430e-30  9.98881253e-06 -2.11326331e-24]
 [ 5.94875184e-11 -2.11326331e-24  9.99002075e-06]]",[1.08844471e-19 2.97426086e-47 0.00000000e+00],-1.194199391491366e-19,-2.6059234462827395e-19
1786950153.2149448,-1.0949446877170644e-19,-3.21185401872311e-47,0.0,"[ 9.98867110e-03 -7.22149007e-27  0.00000000e+00  0.00000000e+00
  0.00000000e+00  5.98171983e-08 -7.22149007e-27  9.98861298e-03
  0.00000000e+00  0.00000000e+00  0.00000000e+00 -2.09217798e-21
  0.00000000e+00  0.00000000e+00  0.00000000e+00  0.00000000e+00
  0.00000000e+00  0.00000000e+00  0.00000000e+00  0.00000000e+00
  0.00000000e+00  0.00000000e+00  0.00000000e+00  0.00000000e+00
  0.00000000e+00  0.00000000e+00  0.00000000e+00  0.00000000e+00
  0.00000000e+00  0.00000000e+00  5.98171983e-08 -2.09217798e-21
  0.00000000e+00  0.00000000e+00  0.00000000e+00  9.98982789e-03]","[[ 9.98867110e-06 -7.22149007e-30  5.98171983e-11]
 [-7.22149007e-30  9.98861298e-06 -2.09217798e-24]
 [ 5.98171983e-11 -2.09217798e-24  9.98982789e-06]]",[1.09495562e-19 3.13281320e-47 0.00000000e+00],-4.076507903581743e-20,-1.6334540665006995e-19
1786950153.264871,-1.0899234043614615e-19,-3.447364277033845e-47,0.0,"[ 9.98837226e-03 -7.24335426e-27  0.00000000e+00  0.00000000e+00
  0.00000000e+00  6.02976582e-08 -7.24335426e-27  9.98831367e-03
  0.00000000e+00  0.00000000e+00  0.00000000e+00 -2.09576652e-21
  0.00000000e+00  0.00000000e+00  0.00000000e+00  0.00000000e+00
  0.00000000e+00  0.00000000e+00  0.00000000e+00  0.00000000e+00
  0.00000000e+00  0.00000000e+00  0.00000000e+00  0.00000000e+00
  0.00000000e+00  0.00000000e+00  0.00000000e+00  0.00000000e+00
  0.00000000e+00  0.00000000e+00  6.02976582e-08 -2.09576652e-21
  0.00000000e+00  0.00000000e+00  0.00000000e+00  9.98953834e-03]","[[ 9.98837226e-06 -7.24335426e-30  6.02976582e-11]
 [-7.24335426e-30  9.98831367e-06 -2.09576652e-24]
 [ 6.02976582e-11 -2.09576652e-24  9.98953834e-06]]",[1.08993429e-19 3.36845012e-47 0.00000000e+00],5.165485322835898e-22,-4.979815201372157e-19
1786950153.3160105,-1.0915748051528099e-19,-3.6075729262423604e-47,0.0,"[ 9.98817299e-03 -7.32153595e-27  0.00000000e+00  0.00000000e+00
  0.00000000e+00  6.05671493e-08 -7.32153595e-27  9.98811414e-03
  0.00000000e+00  0.00000000e+00  0.00000000e+00 -2.10874009e-21
  0.00000000e+00  0.00000000e+00  0.00000000e+00  0.00000000e+00
  0.00000000e+00  0.00000000e+00  0.00000000e+00  0.00000000e+00
  0.00000000e+00  0.00000000e+00  0.00000000e+00  0.00000000e+00
  0.00000000e+00  0.00000000e+00  0.00000000e+00  0.00000000e+00
  0.00000000e+00  0.00000000e+00  6.05671493e-08 -2.10874009e-21
  0.00000000e+00  0.00000000e+00  0.00000000e+00  9.98934429e-03]","[[ 9.98817299e-06 -7.32153595e-30  6.05671493e-11]
 [-7.32153595e-30  9.98811414e-06 -2.10874009e-24]
 [ 6.05671493e-11 -2.10874009e-24  9.98934429e-06]]",[1.09158571e-19 3.52768732e-47 0.00000000e+00],3.7780865561765084e-20,-3.7237676575846626e-19
1786950153.364227,-1.1254184800112312e-19,-3.8569385268465826e-47,0.0,"[ 9.98787424e-03 -7.66235308e-27  0.00000000e+00  0.00000000e+00
  0.00000000e+00  6.11063461e-08 -7.66235308e-27  9.98781487e-03
  0.00000000e+00  0.00000000e+00  0.00000000e+00 -2.16472118e-21
  0.00000000e+00  0.00000000e+00  0.00000000e+00  0.00000000e+00
  0.00000000e+00  0.00000000e+00  0.00000000e+00  0.00000000e+00
  0.00000000e+00  0.00000000e+00  0.00000000e+00  0.00000000e+00
  0.00000000e+00  0.00000000e+00  0.00000000e+00  0.00000000e+00
  0.00000000e+00  0.00000000e+00  6.11063461e-08 -2.16472118e-21
  0.00000000e+00  0.00000000e+00  0.00000000e+00  9.98905596e-03]","[[ 9.98787424e-06 -7.66235308e-30  6.11063461e-11]
 [-7.66235308e-30  9.98781487e-06 -2.16472118e-24]
 [ 6.11063461e-11 -2.16472118e-24  9.98905596e-06]]",[1.12542972e-19 3.77074179e-47 0.00000000e+00],-2.817515266202396e-19,3.047298920790532e-18
1786950153.4143174,-1.1802569393268086e-19,-4.123790513325271e-47,0.0,"[ 9.98757542e-03 -7.64623742e-27  0.00000000e+00  0.00000000e+00
  0.00000000e+00  6.15632466e-08 -7.64623742e-27  9.98751561e-03
  0.00000000e+00  0.00000000e+00  0.00000000e+00 -2.16213798e-21
  0.00000000e+00  0.00000000e+00  0.00000000e+00  0.00000000e+00
  0.00000000e+00  0.00000000e+00  0.00000000e+00  0.00000000e+00
  0.00000000e+00  0.00000000e+00  0.00000000e+00  0.00000000e+00
  0.00000000e+00  0.00000000e+00  0.00000000e+00  0.00000000e+00
  0.00000000e+00  0.00000000e+00  6.15632466e-08 -2.16213798e-21
  0.00000000e+00  0.00000000e+00  0.00000000e+00  9.98876598e-03]","[[ 9.98757542e-06 -7.64623742e-30  6.15632466e-11]
 [-7.64623742e-30  9.98751561e-06 -2.16213798e-24]
 [ 6.15632466e-11 -2.16213798e-24  9.98876598e-06]]",[1.18026873e-19 4.03358465e-47 0.00000000e+00],1.066841968280307e-19,-1.2756236447215246e-18
1786950153.4716306,-1.1989991863060771e-19,-4.3085525647168116e-47,0.0,"[ 9.98737624e-03 -7.77684722e-27  0.00000000e+00  0.00000000e+00
  0.00000000e+00  6.18845498e-08 -7.77684722e-27  9.98731611e-03
  0.00000000e+00  0.00000000e+00  0.00000000e+00 -2.18327439e-21
  0.00000000e+00  0.00000000e+00  0.00000000e+00  0.00000000e+00
  0.00000000e+00  0.00000000e+00  0.00000000e+00  0.00000000e+00
  0.00000000e+00  0.00000000e+00  0.00000000e+00  0.00000000e+00
  0.00000000e+00  0.00000000e+00  0.00000000e+00  0.00000000e+00
  0.00000000e+00  0.00000000e+00  6.18845498e-08 -2.18327439e-21
  0.00000000e+00  0.00000000e+00  0.00000000e+00  9.98857301e-03]","[[ 9.98737624e-06 -7.77684722e-30  6.18845498e-11]
 [-7.77684722e-30  9.98731611e-06 -2.18327439e-24]
 [ 6.18845498e-11 -2.18327439e-24  9.98857301e-06]]",[1.19901116e-19 4.21534940e-47 0.00000000e+00],-1.1533374535668923e-19,-1.619342618177741e-18
1786950153.517555,-1.2035069610085047e-19,-4.501543609025536e-47,0.0,"[ 9.98717712e-03 -8.12039272e-27  0.00000000e+00  0.00000000e+00
  0.00000000e+00  6.22661283e-08 -8.12039272e-27  9.98711662e-03
  0.00000000e+00  0.00000000e+00  0.00000000e+00 -2.23866854e-21
  0.00000000e+00  0.00000000e+00  0.00000000e+00  0.00000000e+00
  0.00000000e+00  0.00000000e+00  0.00000000e+00  0.00000000e+00
  0.00000000e+00  0.00000000e+00  0.00000000e+00  0.00000000e+00
  0.00000000e+00  0.00000000e+00  0.00000000e+00  0.00000000e+00
  0.00000000e+00  0.00000000e+00  6.22661283e-08 -2.23866854e-21
  0.00000000e+00  0.00000000e+00  0.00000000e+00  9.98838127e-03]","[[ 9.98717712e-06 -8.12039272e-30  6.22661283e-11]
 [-8.12039272e-30  9.98711662e-06 -2.23866854e-24]
 [ 6.22661283e-11 -2.23866854e-24  9.98838127e-06]]",[1.20351898e-19 4.40385712e-47 0.00000000e+00],-1.0589365325113942e-19,-1.4125403248589554e-18
1786950153.5646856,-1.2392895755463846e-19,-4.802830326986889e-47,0.0,"[ 9.98687831e-03 -8.43873352e-27  0.00000000e+00  0.00000000e+00
  0.00000000e+00  6.26818967e-08 -8.43873352e-27  9.98681740e-03
  0.00000000e+00  0.00000000e+00  0.00000000e+00 -2.28953132e-21
  0.00000000e+00  0.00000000e+00  0.00000000e+00  0.00000000e+00
  0.00000000e+00  0.00000000e+00  0.00000000e+00  0.00000000e+00
  0.00000000e+00  0.00000000e+00  0.00000000e+00  0.00000000e+00
  0.00000000e+00  0.00000000e+00  0.00000000e+00  0.00000000e+00
  0.00000000e+00  0.00000000e+00  6.26818967e-08 -2.28953132e-21
  0.00000000e+00  0.00000000e+00  0.00000000e+00  9.98809050e-03]","[[ 9.98687831e-06 -8.43873352e-30  6.26818967e-11]
 [-8.43873352e-30  9.98681740e-06 -2.28953132e-24]
 [ 6.26818967e-11 -2.28953132e-24  9.98809050e-06]]",[1.23930195e-19 4.69829586e-47 0.00000000e+00],-2.322118487918212e-19,4.351385367706781e-19
1786950153.6149325,-1.3024315877919768e-19,-5.130832238165573e-47,0.0,"[ 9.98657953e-03 -8.51309507e-27  0.00000000e+00  0.00000000e+00
  0.00000000e+00  6.31190600e-08 -8.51309507e-27  9.98651820e-03
  0.00000000e+00  0.00000000e+00  0.00000000e+00 -2.30139758e-21
  0.00000000e+00  0.00000000e+00  0.00000000e+00  0.00000000e+00
  0.00000000e+00  0.00000000e+00  0.00000000e+00  0.00000000e+00
  0.00000000e+00  0.00000000e+00  0.00000000e+00  0.00000000e+00
  0.00000000e+00  0.00000000e+00  0.00000000e+00  0.00000000e+00
  0.00000000e+00  0.00000000e+00  6.31190600e-08 -2.30139758e-21
  0.00000000e+00  0.00000000e+00  0.00000000e+00  9.98780018e-03]","[[ 9.98657953e-06 -8.51309507e-30  6.31190600e-11]
 [-8.51309507e-30  9.98651820e-06 -2.30139758e-24]
 [ 6.31190600e-11 -2.30139758e-24  9.98780018e-06]]",[1.30244459e-19 5.02000402e-47 0.00000000e+00],5.7299792127853584e-21,-1.368030685991023e-18
1786950153.6658823,-1.3203168833027096e-19,-5.35126654608475e-47,0.0,"[ 9.98638037e-03 -8.43492879e-27  0.00000000e+00  0.00000000e+00
  0.00000000e+00  6.34266631e-08 -8.43492879e-27  9.98631874e-03
  0.00000000e+00  0.00000000e+00  0.00000000e+00 -2.28899372e-21
  0.00000000e+00  0.00000000e+00  0.00000000e+00  0.00000000e+00
  0.00000000e+00  0.00000000e+00  0.00000000e+00  0.00000000e+00
  0.00000000e+00  0.00000000e+00  0.00000000e+00  0.00000000e+00
  0.00000000e+00  0.00000000e+00  0.00000000e+00  0.00000000e+00
  0.00000000e+00  0.00000000e+00  6.34266631e-08 -2.28899372e-21
  0.00000000e+00  0.00000000e+00  0.00000000e+00  9.98760697e-03]","[[ 9.98638037e-06 -8.43492879e-30  6.34266631e-11]
 [-8.43492879e-30  9.98631874e-06 -2.28899372e-24]
 [ 6.34266631e-11 -2.28899372e-24  9.98760697e-06]]",[1.32033007e-19 5.23994997e-47 0.00000000e+00],-8.705437489982058e-20,1.7211347888770957e-18
1786950153.713846,-1.3429489011038501e-19,-5.6853639166924655e-47,0.0,"[ 9.98608174e-03 -8.35588311e-27  0.00000000e+00  0.00000000e+00
  0.00000000e+00  6.39787892e-08 -8.35588311e-27  9.98601957e-03
  0.00000000e+00  0.00000000e+00  0.00000000e+00 -2.27654994e-21
  0.00000000e+00  0.00000000e+00  0.00000000e+00  0.00000000e+00
  0.00000000e+00  0.00000000e+00  0.00000000e+00  0.00000000e+00
  0.00000000e+00  0.00000000e+00  0.00000000e+00  0.00000000e+00
  0.00000000e+00  0.00000000e+00  0.00000000e+00  0.00000000e+00
  0.00000000e+00  0.00000000e+00  6.39787892e-08 -2.27654994e-21
  0.00000000e+00  0.00000000e+00  0.00000000e+00  9.98731901e-03]","[[ 9.98608174e-06 -8.35588311e-30  6.39787892e-11]
 [-8.35588311e-30  9.98601957e-06 -2.27654994e-24]
 [ 6.39787892e-11 -2.27654994e-24  9.98731901e-06]]",[1.34296231e-19 5.57320321e-47 0.00000000e+00],2.1831722396290215e-20,1.309828541976772e-18
1786950153.7709115,-1.3501271327999718e-19,-5.915233198188225e-47,0.0,"[ 9.98588254e-03 -8.62612819e-27  0.00000000e+00  0.00000000e+00
  0.00000000e+00  6.42290269e-08 -8.62612819e-27  9.98582014e-03
  0.00000000e+00  0.00000000e+00  0.00000000e+00 -2.31870399e-21
  0.00000000e+00  0.00000000e+00  0.00000000e+00  0.00000000e+00
  0.00000000e+00  0.00000000e+00  0.00000000e+00  0.00000000e+00
  0.00000000e+00  0.00000000e+00  0.00000000e+00  0.00000000e+00
  0.00000000e+00  0.00000000e+00  0.00000000e+00  0.00000000e+00
  0.00000000e+00  0.00000000e+00  6.42290269e-08 -2.31870399e-21
  0.00000000e+00  0.00000000e+00  0.00000000e+00  9.98712465e-03]","[[ 9.98588254e-06 -8.62612819e-30  6.42290269e-11]
 [-8.62612819e-30  9.98582014e-06 -2.31870399e-24]
 [ 6.42290269e-11 -2.31870399e-24  9.98712465e-06]]",[1.35014062e-19 5.79882624e-47 0.00000000e+00],-1.4387145969137642e-19,2.04670514130146e-18
1786950153.8229406,-1.382589811193339e-19,-6.284465492809318e-47,0.0,"[ 9.98558384e-03 -9.14888090e-27  0.00000000e+00  0.00000000e+00
  0.00000000e+00  6.46827171e-08 -9.14888090e-27  9.98552099e-03
  0.00000000e+00  0.00000000e+00  0.00000000e+00 -2.39980698e-21
  0.00000000e+00  0.00000000e+00  0.00000000e+00  0.00000000e+00
  0.00000000e+00  0.00000000e+00  0.00000000e+00  0.00000000e+00
  0.00000000e+00  0.00000000e+00  0.00000000e+00  0.00000000e+00
  0.00000000e+00  0.00000000e+00  0.00000000e+00  0.00000000e+00
  0.00000000e+00  0.00000000e+00  6.46827171e-08 -2.39980698e-21
  0.00000000e+00  0.00000000e+00  0.00000000e+00  9.98683473e-03]","[[ 9.98558384e-06 -9.14888090e-30  6.46827171e-11]
 [-9.14888090e-30  9.98552099e-06 -2.39980698e-24]
 [ 6.46827171e-11 -2.39980698e-24  9.98683473e-06]]",[1.38260362e-19 6.15803423e-47 0.00000000e+00],-1.27803256996572e-19,1.6288608075399293e-19
1786950153.8730938,-1.390579328167586e-19,-6.532067341623673e-47,0.0,"[ 9.98538489e-03 -9.00823294e-27  0.00000000e+00  0.00000000e+00
  0.00000000e+00  6.51561581e-08 -9.00823294e-27  9.98532158e-03
  0.00000000e+00  0.00000000e+00  0.00000000e+00 -2.37802846e-21
  0.00000000e+00  0.00000000e+00  0.00000000e+00  0.00000000e+00
  0.00000000e+00  0.00000000e+00  0.00000000e+00  0.00000000e+00
  0.00000000e+00  0.00000000e+00  0.00000000e+00  0.00000000e+00
  0.00000000e+00  0.00000000e+00  0.00000000e+00  0.00000000e+00
  0.00000000e+00  0.00000000e+00  6.51561581e-08 -2.37802846e-21
  0.00000000e+00  0.00000000e+00  0.00000000e+00  9.98664493e-03]","[[ 9.98538489e-06 -9.00823294e-30  6.51561581e-11]
 [-9.00823294e-30  9.98532158e-06 -2.37802846e-24]
 [ 6.51561581e-11 -2.37802846e-24  9.98664493e-06]]",[1.39059321e-19 6.40686344e-47 0.00000000e+00],-9.524162112774789e-20,1.6768972367956191e-18
1786950153.9190373,-1.3987182724973204e-19,-6.900822517953799e-47,0.0,"[ 9.98508618e-03 -8.81597236e-27  0.00000000e+00  0.00000000e+00
  0.00000000e+00  6.55736489e-08 -8.81597236e-27  9.98502247e-03
  0.00000000e+00  0.00000000e+00  0.00000000e+00 -2.34855849e-21
  0.00000000e+00  0.00000000e+00  0.00000000e+00  0.00000000e+00
  0.00000000e+00  0.00000000e+00  0.00000000e+00  0.00000000e+00
  0.00000000e+00  0.00000000e+00  0.00000000e+00  0.00000000e+00
  0.00000000e+00  0.00000000e+00  0.00000000e+00  0.00000000e+00
  0.00000000e+00  0.00000000e+00  6.55736489e-08 -2.34855849e-21
  0.00000000e+00  0.00000000e+00  0.00000000e+00  9.98635430e-03]","[[ 9.98508618e-06 -8.81597236e-30  6.55736489e-11]
 [-8.81597236e-30  9.98502247e-06 -2.34855849e-24]
 [ 6.55736489e-11 -2.34855849e-24  9.98635430e-06]]",[1.39873224e-19 6.77757834e-47 0.00000000e+00],-7.848069391616041e-21,-3.4540769844282484e-19
1786950153.966763,-1.392630560041087e-19,-7.1459355825555295e-47,0.0,"[ 9.98488709e-03 -8.75617176e-27  0.00000000e+00  0.00000000e+00
  0.00000000e+00  6.58869959e-08 -8.75617176e-27  9.98482307e-03
  0.00000000e+00  0.00000000e+00  0.00000000e+00 -2.33948641e-21
  0.00000000e+00  0.00000000e+00  0.00000000e+00  0.00000000e+00
  0.00000000e+00  0.00000000e+00  0.00000000e+00  0.00000000e+00
  0.00000000e+00  0.00000000e+00  0.00000000e+00  0.00000000e+00
  0.00000000e+00  0.00000000e+00  0.00000000e+00  0.00000000e+00
  0.00000000e+00  0.00000000e+00  6.58869959e-08 -2.33948641e-21
  0.00000000e+00  0.00000000e+00  0.00000000e+00  9.98616126e-03]","[[ 9.98488709e-06 -8.75617176e-30  6.58869959e-11]
 [-8.75617176e-30  9.98482307e-06 -2.33948641e-24]
 [ 6.58869959e-11 -2.33948641e-24  9.98616126e-06]]",[1.39264447e-19 7.02406338e-47 0.00000000e+00],5.862148173720051e-20,-1.2573189978362878e-18
1786950154.028292,-1.4106558109606863e-19,-7.511141880441447e-47,0.0,"[ 9.98458852e-03 -8.67630281e-27  0.00000000e+00  0.00000000e+00
  0.00000000e+00  6.64142097e-08 -8.67630281e-27  9.98452399e-03
  0.00000000e+00  0.00000000e+00  0.00000000e+00 -2.32734112e-21
  0.00000000e+00  0.00000000e+00  0.00000000e+00  0.00000000e+00
  0.00000000e+00  0.00000000e+00  0.00000000e+00  0.00000000e+00
  0.00000000e+00  0.00000000e+00  0.00000000e+00  0.00000000e+00
  0.00000000e+00  0.00000000e+00  0.00000000e+00  0.00000000e+00
  0.00000000e+00  0.00000000e+00  6.64142097e-08 -2.32734112e-21
  0.00000000e+00  0.00000000e+00  0.00000000e+00  9.98587289e-03]","[[ 9.98458852e-06 -8.67630281e-30  6.64142097e-11]
 [-8.67630281e-30  9.98452399e-06 -2.32734112e-24]
 [ 6.64142097e-11 -2.32734112e-24  9.98587289e-06]]",[1.41066990e-19 7.38882166e-47 0.00000000e+00],-1.2675583328940906e-19,-2.0031361381481034e-19
1786950154.064187,-1.425444015400745e-19,-7.754872262536013e-47,0.0,"[ 9.98438944e-03 -8.60638023e-27  0.00000000e+00  0.00000000e+00
  0.00000000e+00  6.67246602e-08 -8.60638023e-27  9.98432461e-03
  0.00000000e+00  0.00000000e+00  0.00000000e+00 -2.31680838e-21
  0.00000000e+00  0.00000000e+00  0.00000000e+00  0.00000000e+00
  0.00000000e+00  0.00000000e+00  0.00000000e+00  0.00000000e+00
  0.00000000e+00  0.00000000e+00  0.00000000e+00  0.00000000e+00
  0.00000000e+00  0.00000000e+00  0.00000000e+00  0.00000000e+00
  0.00000000e+00  0.00000000e+00  6.67246602e-08 -2.31680838e-21
  0.00000000e+00  0.00000000e+00  0.00000000e+00  9.98567982e-03]","[[ 9.98438944e-06 -8.60638023e-30  6.67246602e-11]
 [-8.60638023e-30  9.98432461e-06 -2.31680838e-24]
 [ 6.67246602e-11 -2.31680838e-24  9.98567982e-06]]",[1.42545825e-19 7.63226811e-47 0.00000000e+00],-4.8576872870599865e-20,-5.543605119996388e-19
1786950154.1143749,-1.4628402504059137e-19,-8.141291538921098e-47,0.0,"[ 9.98409087e-03 -8.93517031e-27  0.00000000e+00  0.00000000e+00
  0.00000000e+00  6.72129692e-08 -8.93517031e-27  9.98402556e-03
  0.00000000e+00  0.00000000e+00  0.00000000e+00 -2.36597118e-21
  0.00000000e+00  0.00000000e+00  0.00000000e+00  0.00000000e+00
  0.00000000e+00  0.00000000e+00  0.00000000e+00  0.00000000e+00
  0.00000000e+00  0.00000000e+00  0.00000000e+00  0.00000000e+00
  0.00000000e+00  0.00000000e+00  0.00000000e+00  0.00000000e+00
  0.00000000e+00  0.00000000e+00  6.72129692e-08 -2.36597118e-21
  0.00000000e+00  0.00000000e+00  0.00000000e+00  9.98539068e-03]","[[ 9.98409087e-06 -8.93517031e-30  6.72129692e-11]
 [-8.93517031e-30  9.98402556e-06 -2.36597118e-24]
 [ 6.72129692e-11 -2.36597118e-24  9.98539068e-06]]",[1.46285486e-19 8.01066294e-47 0.00000000e+00],-2.0509787028289643e-20,5.304195713210492e-20
1786950154.1648955,-1.490770203884175e-19,-8.407526995689871e-47,0.0,"[ 9.98389179e-03 -8.95695167e-27  0.00000000e+00  0.00000000e+00
  0.00000000e+00  6.75034218e-08 -8.95695167e-27  9.98382620e-03
  0.00000000e+00  0.00000000e+00  0.00000000e+00 -2.36922690e-21
  0.00000000e+00  0.00000000e+00  0.00000000e+00  0.00000000e+00
  0.00000000e+00  0.00000000e+00  0.00000000e+00  0.00000000e+00
  0.00000000e+00  0.00000000e+00  0.00000000e+00  0.00000000e+00
  0.00000000e+00  0.00000000e+00  0.00000000e+00  0.00000000e+00
  0.00000000e+00  0.00000000e+00  6.75034218e-08 -2.36922690e-21
  0.00000000e+00  0.00000000e+00  0.00000000e+00  9.98519723e-03]","[[ 9.98389179e-06 -8.95695167e-30  6.75034218e-11]
 [-8.95695167e-30  9.98382620e-06 -2.36922690e-24]
 [ 6.75034218e-11 -2.36922690e-24  9.98519723e-06]]",[1.49078509e-19 8.27408070e-47 0.00000000e+00],3.342265746167533e-20,7.2243049243112415e-19
1786950154.2142203,-1.495534909881422e-19,-8.821509705108575e-47,0.0,"[ 9.98359331e-03 -9.29480912e-27  0.00000000e+00  0.00000000e+00
  0.00000000e+00  6.80590342e-08 -9.29480912e-27  9.98352718e-03
  0.00000000e+00  0.00000000e+00  0.00000000e+00 -2.41910925e-21
  0.00000000e+00  0.00000000e+00  0.00000000e+00  0.00000000e+00
  0.00000000e+00  0.00000000e+00  0.00000000e+00  0.00000000e+00
  0.00000000e+00  0.00000000e+00  0.00000000e+00  0.00000000e+00
  0.00000000e+00  0.00000000e+00  0.00000000e+00  0.00000000e+00
  0.00000000e+00  0.00000000e+00  6.80590342e-08 -2.41910925e-21
  0.00000000e+00  0.00000000e+00  0.00000000e+00  9.98490949e-03]","[[ 9.98359331e-06 -9.29480912e-30  6.80590342e-11]
 [-9.29480912e-30  9.98352718e-06 -2.41910925e-24]
 [ 6.80590342e-11 -2.41910925e-24  9.98490949e-06]]",[1.49554984e-19 8.68258788e-47 0.00000000e+00],1.7903257191822194e-20,-1.6562429765255304e-18
1786950154.2682004,-1.4977892182156596e-19,-9.103531903677206e-47,0.0,"[ 9.98339426e-03 -9.61982635e-27  0.00000000e+00  0.00000000e+00
  0.00000000e+00  6.83585302e-08 -9.61982635e-27  9.98332784e-03
  0.00000000e+00  0.00000000e+00  0.00000000e+00 -2.46671150e-21
  0.00000000e+00  0.00000000e+00  0.00000000e+00  0.00000000e+00
  0.00000000e+00  0.00000000e+00  0.00000000e+00  0.00000000e+00
  0.00000000e+00  0.00000000e+00  0.00000000e+00  0.00000000e+00
  0.00000000e+00  0.00000000e+00  0.00000000e+00  0.00000000e+00
  0.00000000e+00  0.00000000e+00  6.83585302e-08 -2.46671150e-21
  0.00000000e+00  0.00000000e+00  0.00000000e+00  9.98471623e-03]","[[ 9.98339426e-06 -9.61982635e-30  6.83585302e-11]
 [-9.61982635e-30  9.98332784e-06 -2.46671150e-24]
 [ 6.83585302e-11 -2.46671150e-24  9.98471623e-06]]",[1.49780417e-19 8.95953519e-47 0.00000000e+00],-2.3698957584546183e-19,3.795650522518136e-18
1786950154.3139043,-1.525410058816908e-19,-9.540198905255213e-47,0.0,"[ 9.98309575e-03 -9.84072756e-27  0.00000000e+00  0.00000000e+00
  0.00000000e+00  6.88478215e-08 -9.84072756e-27  9.98302885e-03
  0.00000000e+00  0.00000000e+00  0.00000000e+00 -2.49875755e-21
  0.00000000e+00  0.00000000e+00  0.00000000e+00  0.00000000e+00
  0.00000000e+00  0.00000000e+00  0.00000000e+00  0.00000000e+00
  0.00000000e+00  0.00000000e+00  0.00000000e+00  0.00000000e+00
  0.00000000e+00  0.00000000e+00  0.00000000e+00  0.00000000e+00
  0.00000000e+00  0.00000000e+00  6.88478215e-08 -2.49875755e-21
  0.00000000e+00  0.00000000e+00  0.00000000e+00  9.98442718e-03]","[[ 9.98309575e-06 -9.84072756e-30  6.88478215e-11]
 [-9.84072756e-30  9.98302885e-06 -2.49875755e-24]
 [ 6.88478215e-11 -2.49875755e-24  9.98442718e-06]]",[1.52542529e-19 9.39017970e-47 0.00000000e+00],-2.699004631915609e-19,1.8626917184115668e-18
1786950154.3678584,-1.5544819430734716e-19,-9.859769640151072e-47,0.0,"[ 9.98289675e-03 -1.03464554e-26  0.00000000e+00  0.00000000e+00
  0.00000000e+00  6.91810452e-08 -1.03464554e-26  9.98282953e-03
  0.00000000e+00  0.00000000e+00  0.00000000e+00 -2.57209792e-21
  0.00000000e+00  0.00000000e+00  0.00000000e+00  0.00000000e+00
  0.00000000e+00  0.00000000e+00  0.00000000e+00  0.00000000e+00
  0.00000000e+00  0.00000000e+00  0.00000000e+00  0.00000000e+00
  0.00000000e+00  0.00000000e+00  0.00000000e+00  0.00000000e+00
  0.00000000e+00  0.00000000e+00  6.91810452e-08 -2.57209792e-21
  0.00000000e+00  0.00000000e+00  0.00000000e+00  9.98423463e-03]","[[ 9.98289675e-06 -1.03464554e-29  6.91810452e-11]
 [-1.03464554e-29  9.98282953e-06 -2.57209792e-24]
 [ 6.91810452e-11 -2.57209792e-24  9.98423463e-06]]",[1.55449746e-19 9.69903108e-47 0.00000000e+00],-1.926543182290774e-20,-1.4516589383164723e-18
1786950154.4142423,-1.5810081439286405e-19,-1.0192458151865343e-46,0.0,"[ 9.98269773e-03 -1.05887364e-26  0.00000000e+00  0.00000000e+00
  0.00000000e+00  6.94725206e-08 -1.05887364e-26  9.98263022e-03
  0.00000000e+00  0.00000000e+00  0.00000000e+00 -2.60707072e-21
  0.00000000e+00  0.00000000e+00  0.00000000e+00  0.00000000e+00
  0.00000000e+00  0.00000000e+00  0.00000000e+00  0.00000000e+00
  0.00000000e+00  0.00000000e+00  0.00000000e+00  0.00000000e+00
  0.00000000e+00  0.00000000e+00  0.00000000e+00  0.00000000e+00
  0.00000000e+00  0.00000000e+00  6.94725206e-08 -2.60707072e-21
  0.00000000e+00  0.00000000e+00  0.00000000e+00  9.98404124e-03]","[[ 9.98269773e-06 -1.05887364e-29  6.94725206e-11]
 [-1.05887364e-29  9.98263022e-06 -2.60707072e-24]
 [ 6.94725206e-11 -2.60707072e-24  9.98404124e-06]]",[1.58102393e-19 1.00251478e-46 0.00000000e+00],-8.515478488589366e-21,1.28971554963897e-18
1786950154.471366,-1.6410137954211334e-19,-1.0703907184818215e-46,0.0,"[ 9.98239918e-03 -1.05283643e-26  0.00000000e+00  0.00000000e+00
  0.00000000e+00  6.98838676e-08 -1.05283643e-26  9.98233127e-03
  0.00000000e+00  0.00000000e+00  0.00000000e+00 -2.59842522e-21
  0.00000000e+00  0.00000000e+00  0.00000000e+00  0.00000000e+00
  0.00000000e+00  0.00000000e+00  0.00000000e+00  0.00000000e+00
  0.00000000e+00  0.00000000e+00  0.00000000e+00  0.00000000e+00
  0.00000000e+00  0.00000000e+00  0.00000000e+00  0.00000000e+00
  0.00000000e+00  0.00000000e+00  6.98838676e-08 -2.59842522e-21
  0.00000000e+00  0.00000000e+00  0.00000000e+00  9.98375065e-03]","[[ 9.98239918e-06 -1.05283643e-29  6.98838676e-11]
 [-1.05283643e-29  9.98233127e-06 -2.59842522e-24]
 [ 6.98838676e-11 -2.59842522e-24  9.98375065e-06]]",[1.64103018e-19 1.05312387e-46 0.00000000e+00],-3.882650909123326e-22,-9.912127626923224e-19
1786950154.5156972,-1.6658111050953562e-19,-1.124752690951222e-46,0.0,"[ 9.98210069e-03 -1.09764781e-26  0.00000000e+00  0.00000000e+00
  0.00000000e+00  7.03471391e-08 -1.09764781e-26  9.98203234e-03
  0.00000000e+00  0.00000000e+00  0.00000000e+00 -2.66234905e-21
  0.00000000e+00  0.00000000e+00  0.00000000e+00  0.00000000e+00
  0.00000000e+00  0.00000000e+00  0.00000000e+00  0.00000000e+00
  0.00000000e+00  0.00000000e+00  0.00000000e+00  0.00000000e+00
  0.00000000e+00  0.00000000e+00  0.00000000e+00  0.00000000e+00
  0.00000000e+00  0.00000000e+00  7.03471391e-08 -2.66234905e-21
  0.00000000e+00  0.00000000e+00  0.00000000e+00  9.98346112e-03]","[[ 9.98210069e-06 -1.09764781e-29  7.03471391e-11]
 [-1.09764781e-29  9.98203234e-06 -2.66234905e-24]
 [ 7.03471391e-11 -2.66234905e-24  9.98346112e-06]]",[1.66582773e-19 1.10647881e-46 0.00000000e+00],-1.1987868470732084e-20,-1.4624016417168703e-18
1786950154.5683897,-1.6505978435577965e-19,-1.1623272336537072e-46,0.0,"[ 9.98190178e-03 -1.13918760e-26  0.00000000e+00  0.00000000e+00
  0.00000000e+00  7.07221724e-08 -1.13918760e-26  9.98183306e-03
  0.00000000e+00  0.00000000e+00  0.00000000e+00 -2.72128810e-21
  0.00000000e+00  0.00000000e+00  0.00000000e+00  0.00000000e+00
  0.00000000e+00  0.00000000e+00  0.00000000e+00  0.00000000e+00
  0.00000000e+00  0.00000000e+00  0.00000000e+00  0.00000000e+00
  0.00000000e+00  0.00000000e+00  0.00000000e+00  0.00000000e+00
  0.00000000e+00  0.00000000e+00  7.07221724e-08 -2.72128810e-21
  0.00000000e+00  0.00000000e+00  0.00000000e+00  9.98326946e-03]","[[ 9.98190178e-06 -1.13918760e-29  7.07221724e-11]
 [-1.13918760e-29  9.98183306e-06 -2.72128810e-24]
 [ 7.07221724e-11 -2.72128810e-24  9.98326946e-06]]",[1.65061432e-19 1.14353505e-46 0.00000000e+00],-4.489243106600907e-20,-1.1639695065432886e-18
1786950154.6162426,-1.6899721493575823e-19,-1.2178479795890206e-46,0.0,"[ 9.98160334e-03 -1.09429185e-26  0.00000000e+00  0.00000000e+00
  0.00000000e+00  7.12000479e-08 -1.09429185e-26  9.98153416e-03
  0.00000000e+00  0.00000000e+00  0.00000000e+00 -2.65801448e-21
  0.00000000e+00  0.00000000e+00  0.00000000e+00  0.00000000e+00
  0.00000000e+00  0.00000000e+00  0.00000000e+00  0.00000000e+00
  0.00000000e+00  0.00000000e+00  0.00000000e+00  0.00000000e+00
  0.00000000e+00  0.00000000e+00  0.00000000e+00  0.00000000e+00
  0.00000000e+00  0.00000000e+00  7.12000479e-08 -2.65801448e-21
  0.00000000e+00  0.00000000e+00  0.00000000e+00  9.98298027e-03]","[[ 9.98160334e-06 -1.09429185e-29  7.12000479e-11]
 [-1.09429185e-29  9.98153416e-06 -2.65801448e-24]
 [ 7.12000479e-11 -2.65801448e-24  9.98298027e-06]]",[1.68998902e-19 1.19936654e-46 0.00000000e+00],-6.356151042363916e-21,-5.470972246264051e-19
1786950154.664618,-1.7193928311944026e-19,-1.2555768526082284e-46,0.0,"[ 9.98140436e-03 -1.09591371e-26  0.00000000e+00  0.00000000e+00
  0.00000000e+00  7.14828946e-08 -1.09591371e-26  9.98133490e-03
  0.00000000e+00  0.00000000e+00  0.00000000e+00 -2.66033320e-21
  0.00000000e+00  0.00000000e+00  0.00000000e+00  0.00000000e+00
  0.00000000e+00  0.00000000e+00  0.00000000e+00  0.00000000e+00
  0.00000000e+00  0.00000000e+00  0.00000000e+00  0.00000000e+00
  0.00000000e+00  0.00000000e+00  0.00000000e+00  0.00000000e+00
  0.00000000e+00  0.00000000e+00  7.14828946e-08 -2.66033320e-21
  0.00000000e+00  0.00000000e+00  0.00000000e+00  9.98278675e-03]","[[ 9.98140436e-06 -1.09591371e-29  7.14828946e-11]
 [-1.09591371e-29  9.98133490e-06 -2.66033320e-24]
 [ 7.14828946e-11 -2.66033320e-24  9.98278675e-06]]",[1.71940999e-19 1.23674595e-46 0.00000000e+00],9.79143427682683e-20,-1.1452384740318512e-18
1786950154.7153103,-1.7520989917682686e-19,-1.3144354960755436e-46,0.0,"[ 9.98110602e-03 -1.11862438e-26  0.00000000e+00  0.00000000e+00
  0.00000000e+00  7.20344959e-08 -1.11862438e-26  9.98103603e-03
  0.00000000e+00  0.00000000e+00  0.00000000e+00 -2.69211484e-21
  0.00000000e+00  0.00000000e+00  0.00000000e+00  0.00000000e+00
  0.00000000e+00  0.00000000e+00  0.00000000e+00  0.00000000e+00
  0.00000000e+00  0.00000000e+00  0.00000000e+00  0.00000000e+00
  0.00000000e+00  0.00000000e+00  0.00000000e+00  0.00000000e+00
  0.00000000e+00  0.00000000e+00  7.20344959e-08 -2.69211484e-21
  0.00000000e+00  0.00000000e+00  0.00000000e+00  9.98249908e-03]","[[ 9.98110602e-06 -1.11862438e-29  7.20344959e-11]
 [-1.11862438e-29  9.98103603e-06 -2.69211484e-24]
 [ 7.20344959e-11 -2.69211484e-24  9.98249908e-06]]",[1.75211648e-19 1.29484882e-46 0.00000000e+00],4.0328449770436163e-20,1.3255513644543067e-18
1786950154.7682261,-1.7537921575609041e-19,-1.3532746095276652e-46,0.0,"[ 9.98090702e-03 -1.08956785e-26  0.00000000e+00  0.00000000e+00
  0.00000000e+00  7.22747921e-08 -1.08956785e-26  9.98083679e-03
  0.00000000e+00  0.00000000e+00  0.00000000e+00 -2.65195613e-21
  0.00000000e+00  0.00000000e+00  0.00000000e+00  0.00000000e+00
  0.00000000e+00  0.00000000e+00  0.00000000e+00  0.00000000e+00
  0.00000000e+00  0.00000000e+00  0.00000000e+00  0.00000000e+00
  0.00000000e+00  0.00000000e+00  0.00000000e+00  0.00000000e+00
  0.00000000e+00  0.00000000e+00  7.22747921e-08 -2.65195613e-21
  0.00000000e+00  0.00000000e+00  0.00000000e+00  9.98230473e-03]","[[ 9.98090702e-06 -1.08956785e-29  7.22747921e-11]
 [-1.08956785e-29  9.98083679e-06 -2.65195613e-24]
 [ 7.22747921e-11 -2.65195613e-24  9.98230473e-06]]",[1.75380966e-19 1.33417898e-46 0.00000000e+00],3.1609493285733663e-19,-4.8924478791337524e-20
1786950154.8413618,-1.765522186863408e-19,-1.4115776374118718e-46,0.0,"[ 9.98060864e-03 -1.08674826e-26  0.00000000e+00  0.00000000e+00
  0.00000000e+00  7.27511015e-08 -1.08674826e-26  9.98053795e-03
  0.00000000e+00  0.00000000e+00  0.00000000e+00 -2.64826480e-21
  0.00000000e+00  0.00000000e+00  0.00000000e+00  0.00000000e+00
  0.00000000e+00  0.00000000e+00  0.00000000e+00  0.00000000e+00
  0.00000000e+00  0.00000000e+00  0.00000000e+00  0.00000000e+00
  0.00000000e+00  0.00000000e+00  0.00000000e+00  0.00000000e+00
  0.00000000e+00  0.00000000e+00  7.27511015e-08 -2.64826480e-21
  0.00000000e+00  0.00000000e+00  0.00000000e+00  9.98201556e-03]","[[ 9.98060864e-06 -1.08674826e-29  7.27511015e-11]
 [-1.08674826e-29  9.98053795e-06 -2.64826480e-24]
 [ 7.27511015e-11 -2.64826480e-24  9.98201556e-06]]",[1.76553981e-19 1.39240456e-46 0.00000000e+00],1.099389849852398e-19,6.82007294972636e-20
1786950154.867045,-1.7807736472353139e-19,-1.450297126450611e-46,0.0,"[ 9.98040986e-03 -1.08894344e-26  0.00000000e+00  0.00000000e+00
  0.00000000e+00  7.32071059e-08 -1.08894344e-26  9.98033873e-03
  0.00000000e+00  0.00000000e+00  0.00000000e+00 -2.65128047e-21
  0.00000000e+00  0.00000000e+00  0.00000000e+00  0.00000000e+00
  0.00000000e+00  0.00000000e+00  0.00000000e+00  0.00000000e+00
  0.00000000e+00  0.00000000e+00  0.00000000e+00  0.00000000e+00
  0.00000000e+00  0.00000000e+00  0.00000000e+00  0.00000000e+00
  0.00000000e+00  0.00000000e+00  7.32071059e-08 -2.65128047e-21
  0.00000000e+00  0.00000000e+00  0.00000000e+00  9.98182560e-03]","[[ 9.98040986e-06 -1.08894344e-29  7.32071059e-11]
 [-1.08894344e-29  9.98033873e-06 -2.65128047e-24]
 [ 7.32071059e-11 -2.65128047e-24  9.98182560e-06]]",[1.78079142e-19 1.43091960e-46 0.00000000e+00],-7.63137733926751e-21,-9.484138724626563e-19
1786950154.9158,-1.8030162592166992e-19,-1.509662487397693e-46,0.0,"[ 9.98011147e-03 -1.13299814e-26  0.00000000e+00  0.00000000e+00
  0.00000000e+00  7.36392519e-08 -1.13299814e-26  9.98003992e-03
  0.00000000e+00  0.00000000e+00  0.00000000e+00 -2.71114064e-21
  0.00000000e+00  0.00000000e+00  0.00000000e+00  0.00000000e+00
  0.00000000e+00  0.00000000e+00  0.00000000e+00  0.00000000e+00
  0.00000000e+00  0.00000000e+00  0.00000000e+00  0.00000000e+00
  0.00000000e+00  0.00000000e+00  0.00000000e+00  0.00000000e+00
  0.00000000e+00  0.00000000e+00  7.36392519e-08 -2.71114064e-21
  0.00000000e+00  0.00000000e+00  0.00000000e+00  9.98153557e-03]","[[ 9.98011147e-06 -1.13299814e-29  7.36392519e-11]
 [-1.13299814e-29  9.98003992e-06 -2.71114064e-24]
 [ 7.36392519e-11 -2.71114064e-24  9.98153557e-06]]",[1.80303425e-19 1.48924901e-46 0.00000000e+00],-2.463190781464246e-19,1.163521260377391e-18
1786950154.9677408,-1.818856696153752e-19,-1.5502641273533387e-46,0.0,"[ 9.97991258e-03 -1.11675999e-26  0.00000000e+00  0.00000000e+00
  0.00000000e+00  7.39559238e-08 -1.11675999e-26  9.97984072e-03
  0.00000000e+00  0.00000000e+00  0.00000000e+00 -2.68915461e-21
  0.00000000e+00  0.00000000e+00  0.00000000e+00  0.00000000e+00
  0.00000000e+00  0.00000000e+00  0.00000000e+00  0.00000000e+00
  0.00000000e+00  0.00000000e+00  0.00000000e+00  0.00000000e+00
  0.00000000e+00  0.00000000e+00  0.00000000e+00  0.00000000e+00
  0.00000000e+00  0.00000000e+00  7.39559238e-08 -2.68915461e-21
  0.00000000e+00  0.00000000e+00  0.00000000e+00  9.98134280e-03]","[[ 9.97991258e-06 -1.11675999e-29  7.39559238e-11]
 [-1.11675999e-29  9.97984072e-06 -2.68915461e-24]
 [ 7.39559238e-11 -2.68915461e-24  9.98134280e-06]]",[1.81887485e-19 1.52996693e-46 0.00000000e+00],3.658482214322788e-20,-1.8012287381956086e-18
1786950155.026216,-1.8459106272008022e-19,-1.6127865391130005e-46,0.0,"[ 9.97961425e-03 -1.13161501e-26  0.00000000e+00  0.00000000e+00
  0.00000000e+00  7.44216345e-08 -1.13161501e-26  9.97954194e-03
  0.00000000e+00  0.00000000e+00  0.00000000e+00 -2.70924500e-21
  0.00000000e+00  0.00000000e+00  0.00000000e+00  0.00000000e+00
  0.00000000e+00  0.00000000e+00  0.00000000e+00  0.00000000e+00
  0.00000000e+00  0.00000000e+00  0.00000000e+00  0.00000000e+00
  0.00000000e+00  0.00000000e+00  0.00000000e+00  0.00000000e+00
  0.00000000e+00  0.00000000e+00  7.44216345e-08 -2.70924500e-21
  0.00000000e+00  0.00000000e+00  0.00000000e+00  9.98105347e-03]","[[ 9.97961425e-06 -1.13161501e-29  7.44216345e-11]
 [-1.13161501e-29  9.97954194e-06 -2.70924500e-24]
 [ 7.44216345e-11 -2.70924500e-24  9.98105347e-06]]",[1.84592905e-19 1.59191362e-46 0.00000000e+00],7.932535462883936e-20,-7.800428140019888e-19
1786950155.0677118,-1.8589362788985698e-19,-1.6553633840538916e-46,0.0,"[ 9.97941537e-03 -1.14691682e-26  0.00000000e+00  0.00000000e+00
  0.00000000e+00  7.47257031e-08 -1.14691682e-26  9.97934276e-03
  0.00000000e+00  0.00000000e+00  0.00000000e+00 -2.72977468e-21
  0.00000000e+00  0.00000000e+00  0.00000000e+00  0.00000000e+00
  0.00000000e+00  0.00000000e+00  0.00000000e+00  0.00000000e+00
  0.00000000e+00  0.00000000e+00  0.00000000e+00  0.00000000e+00
  0.00000000e+00  0.00000000e+00  0.00000000e+00  0.00000000e+00
  0.00000000e+00  0.00000000e+00  7.47257031e-08 -2.72977468e-21
  0.00000000e+00  0.00000000e+00  0.00000000e+00  9.98086047e-03]","[[ 9.97941537e-06 -1.14691682e-29  7.47257031e-11]
 [-1.14691682e-29  9.97934276e-06 -2.72977468e-24]
 [ 7.47257031e-11 -2.72977468e-24  9.98086047e-06]]",[1.85895483e-19 1.63405903e-46 0.00000000e+00],1.2885553921342985e-21,-8.339729167288122e-19
1786950155.1145666,-1.8610572760819912e-19,-1.7209137349992547e-46,0.0,"[ 9.97911706e-03 -1.19299286e-26  0.00000000e+00  0.00000000e+00
  0.00000000e+00  7.51854655e-08 -1.19299286e-26  9.97904401e-03
  0.00000000e+00  0.00000000e+00  0.00000000e+00 -2.79117261e-21
  0.00000000e+00  0.00000000e+00  0.00000000e+00  0.00000000e+00
  0.00000000e+00  0.00000000e+00  0.00000000e+00  0.00000000e+00
  0.00000000e+00  0.00000000e+00  0.00000000e+00  0.00000000e+00
  0.00000000e+00  0.00000000e+00  0.00000000e+00  0.00000000e+00
  0.00000000e+00  0.00000000e+00  7.51854655e-08 -2.79117261e-21
  0.00000000e+00  0.00000000e+00  0.00000000e+00  9.98057106e-03]","[[ 9.97911706e-06 -1.19299286e-29  7.51854655e-11]
 [-1.19299286e-29  9.97904401e-06 -2.79117261e-24]
 [ 7.51854655e-11 -2.79117261e-24  9.98057106e-06]]",[1.86107585e-19 1.69872818e-46 0.00000000e+00],-1.5579641523062697e-19,-8.336196720663911e-19
1786950155.1662126,-1.8983006571203026e-19,-1.7651208372357297e-46,0.0,"[ 9.97891820e-03 -1.17319624e-26  0.00000000e+00  0.00000000e+00
  0.00000000e+00  7.54955968e-08 -1.17319624e-26  9.97884485e-03
  0.00000000e+00  0.00000000e+00  0.00000000e+00 -2.76488995e-21
  0.00000000e+00  0.00000000e+00  0.00000000e+00  0.00000000e+00
  0.00000000e+00  0.00000000e+00  0.00000000e+00  0.00000000e+00
  0.00000000e+00  0.00000000e+00  0.00000000e+00  0.00000000e+00
  0.00000000e+00  0.00000000e+00  0.00000000e+00  0.00000000e+00
  0.00000000e+00  0.00000000e+00  7.54955968e-08 -2.76488995e-21
  0.00000000e+00  0.00000000e+00  0.00000000e+00  9.98037820e-03]","[[ 9.97891820e-06 -1.17319624e-29  7.54955968e-11]
 [-1.17319624e-29  9.97884485e-06 -2.76488995e-24]
 [ 7.54955968e-11 -2.76488995e-24  9.98037820e-06]]",[1.89831960e-19 1.74286721e-46 0.00000000e+00],-2.6075682440863905e-20,7.565639039675566e-19
1786950155.2200365,-1.9352985873094053e-19,-1.8102109429114103e-46,0.0,"[ 9.97871935e-03 -1.16301784e-26  0.00000000e+00  0.00000000e+00
  0.00000000e+00  7.58013655e-08 -1.16301784e-26  9.97864570e-03
  0.00000000e+00  0.00000000e+00  0.00000000e+00 -2.75148645e-21
  0.00000000e+00  0.00000000e+00  0.00000000e+00  0.00000000e+00
  0.00000000e+00  0.00000000e+00  0.00000000e+00  0.00000000e+00
  0.00000000e+00  0.00000000e+00  0.00000000e+00  0.00000000e+00
  0.00000000e+00  0.00000000e+00  0.00000000e+00  0.00000000e+00
  0.00000000e+00  0.00000000e+00  7.58013655e-08 -2.75148645e-21
  0.00000000e+00  0.00000000e+00  0.00000000e+00  9.98018526e-03]","[[ 9.97871935e-06 -1.16301784e-29  7.58013655e-11]
 [-1.16301784e-29  9.97864570e-06 -2.75148645e-24]
 [ 7.58013655e-11 -2.75148645e-24  9.98018526e-06]]",[1.93531790e-19 1.78772069e-46 0.00000000e+00],1.1156209866428252e-19,1.233587041056466e-18
1786950155.265781,-1.9542473751063564e-19,-1.8774893181310506e-46,0.0,"[ 9.97842118e-03 -1.15041887e-26  0.00000000e+00  0.00000000e+00
  0.00000000e+00  7.63622848e-08 -1.15041887e-26  9.97834699e-03
  0.00000000e+00  0.00000000e+00  0.00000000e+00 -2.73491129e-21
  0.00000000e+00  0.00000000e+00  0.00000000e+00  0.00000000e+00
  0.00000000e+00  0.00000000e+00  0.00000000e+00  0.00000000e+00
  0.00000000e+00  0.00000000e+00  0.00000000e+00  0.00000000e+00
  0.00000000e+00  0.00000000e+00  0.00000000e+00  0.00000000e+00
  0.00000000e+00  0.00000000e+00  7.63622848e-08 -2.73491129e-21
  0.00000000e+00  0.00000000e+00  0.00000000e+00  9.97989794e-03]","[[ 9.97842118e-06 -1.15041887e-29  7.63622848e-11]
 [-1.15041887e-29  9.97834699e-06 -2.73491129e-24]
 [ 7.63622848e-11 -2.73491129e-24  9.97989794e-06]]",[1.95426688e-19 1.85502557e-46 0.00000000e+00],1.4400796538961696e-20,1.0578378534779721e-18
1786950155.3147328,-1.9794635223284884e-19,-1.9470670404237695e-46,0.0,"[ 9.97812293e-03 -1.18352487e-26  0.00000000e+00  0.00000000e+00
  0.00000000e+00  7.68130944e-08 -1.18352487e-26  9.97804829e-03
  0.00000000e+00  0.00000000e+00  0.00000000e+00 -2.77812904e-21
  0.00000000e+00  0.00000000e+00  0.00000000e+00  0.00000000e+00
  0.00000000e+00  0.00000000e+00  0.00000000e+00  0.00000000e+00
  0.00000000e+00  0.00000000e+00  0.00000000e+00  0.00000000e+00
  0.00000000e+00  0.00000000e+00  0.00000000e+00  0.00000000e+00
  0.00000000e+00  0.00000000e+00  7.68130944e-08 -2.77812904e-21
  0.00000000e+00  0.00000000e+00  0.00000000e+00  9.97960840e-03]","[[ 9.97812293e-06 -1.18352487e-29  7.68130944e-11]
 [-1.18352487e-29  9.97804829e-06 -2.77812904e-24]
 [ 7.68130944e-11 -2.77812904e-24  9.97960840e-06]]",[1.97948327e-19 1.92365856e-46 0.00000000e+00],1.2254513338286257e-19,-1.7426776345619594e-18
1786950155.368823,-1.989606961587566e-19,-1.9710721254276622e-46,0.0,"[ 9.97802353e-03 -1.20748839e-26  0.00000000e+00  0.00000000e+00
  0.00000000e+00  7.69743997e-08 -1.20748839e-26  9.97794873e-03
  0.00000000e+00  0.00000000e+00  0.00000000e+00 -2.80926593e-21
  0.00000000e+00  0.00000000e+00  0.00000000e+00  0.00000000e+00
  0.00000000e+00  0.00000000e+00  0.00000000e+00  0.00000000e+00
  0.00000000e+00  0.00000000e+00  0.00000000e+00  0.00000000e+00
  0.00000000e+00  0.00000000e+00  0.00000000e+00  0.00000000e+00
  0.00000000e+00  0.00000000e+00  7.69743997e-08 -2.80926593e-21
  0.00000000e+00  0.00000000e+00  0.00000000e+00  9.97951212e-03]","[[ 9.97802353e-06 -1.20748839e-29  7.69743997e-11]
 [-1.20748839e-29  9.97794873e-06 -2.80926593e-24]
 [ 7.69743997e-11 -2.80926593e-24  9.97951212e-06]]",[1.98962681e-19 1.94706704e-46 0.00000000e+00],-1.5212837259620958e-19,-6.055458837569263e-19
1786950155.4149806,-2.0319820560803425e-19,-2.0679033054509307e-46,0.0,"[ 9.97762596e-03 -1.22646058e-26  0.00000000e+00  0.00000000e+00
  0.00000000e+00  7.76480713e-08 -1.22646058e-26  9.97755051e-03
  0.00000000e+00  0.00000000e+00  0.00000000e+00 -2.83360281e-21
  0.00000000e+00  0.00000000e+00  0.00000000e+00  0.00000000e+00
  0.00000000e+00  0.00000000e+00  0.00000000e+00  0.00000000e+00
  0.00000000e+00  0.00000000e+00  0.00000000e+00  0.00000000e+00
  0.00000000e+00  0.00000000e+00  0.00000000e+00  0.00000000e+00
  0.00000000e+00  0.00000000e+00  7.76480713e-08 -2.83360281e-21
  0.00000000e+00  0.00000000e+00  0.00000000e+00  9.97912758e-03]","[[ 9.97762596e-06 -1.22646058e-29  7.76480713e-11]
 [-1.22646058e-29  9.97755051e-06 -2.83360281e-24]
 [ 7.76480713e-11 -2.83360281e-24  9.97912758e-06]]",[2.03200233e-19 2.04300198e-46 0.00000000e+00],-2.235758988624379e-19,1.2691693852320934e-18
1786950155.4728205,-2.0473565204036146e-19,-2.1183433636966006e-46,0.0,"[ 9.97742716e-03 -1.22803505e-26  0.00000000e+00  0.00000000e+00
  0.00000000e+00  7.79561510e-08 -1.22803505e-26  9.97735141e-03
  0.00000000e+00  0.00000000e+00  0.00000000e+00 -2.83566176e-21
  0.00000000e+00  0.00000000e+00  0.00000000e+00  0.00000000e+00
  0.00000000e+00  0.00000000e+00  0.00000000e+00  0.00000000e+00
  0.00000000e+00  0.00000000e+00  0.00000000e+00  0.00000000e+00
  0.00000000e+00  0.00000000e+00  0.00000000e+00  0.00000000e+00
  0.00000000e+00  0.00000000e+00  7.79561510e-08 -2.83566176e-21
  0.00000000e+00  0.00000000e+00  0.00000000e+00  9.97893474e-03]","[[ 9.97742716e-06 -1.22803505e-29  7.79561510e-11]
 [-1.22803505e-29  9.97735141e-06 -2.83566176e-24]
 [ 7.79561510e-11 -2.83566176e-24  9.97893474e-06]]",[2.04737695e-19 2.09322174e-46 0.00000000e+00],7.331574165426624e-20,-1.0652115119327011e-18
1786950155.5160704,-2.053916183295256e-19,-2.16901297601897e-46,0.0,"[ 9.97722839e-03 -1.23157830e-26  0.00000000e+00  0.00000000e+00
  0.00000000e+00  7.82929323e-08 -1.23157830e-26  9.97715232e-03
  0.00000000e+00  0.00000000e+00  0.00000000e+00 -2.84023697e-21
  0.00000000e+00  0.00000000e+00  0.00000000e+00  0.00000000e+00
  0.00000000e+00  0.00000000e+00  0.00000000e+00  0.00000000e+00
  0.00000000e+00  0.00000000e+00  0.00000000e+00  0.00000000e+00
  0.00000000e+00  0.00000000e+00  0.00000000e+00  0.00000000e+00
  0.00000000e+00  0.00000000e+00  7.82929323e-08 -2.84023697e-21
  0.00000000e+00  0.00000000e+00  0.00000000e+00  9.97874248e-03]","[[ 9.97722839e-06 -1.23157830e-29  7.82929323e-11]
 [-1.23157830e-29  9.97715232e-06 -2.84023697e-24]
 [ 7.82929323e-11 -2.84023697e-24  9.97874248e-06]]",[2.05393668e-19 2.14373853e-46 0.00000000e+00],7.892563397118321e-20,-2.7510731553604908e-18
1786950155.5642238,-2.0763707051801326e-19,-2.249188927068423e-46,0.0,"[ 9.97693021e-03 -1.31388070e-26  0.00000000e+00  0.00000000e+00
  0.00000000e+00  7.87475103e-08 -1.31388070e-26  9.97685370e-03
  0.00000000e+00  0.00000000e+00  0.00000000e+00 -2.94497757e-21
  0.00000000e+00  0.00000000e+00  0.00000000e+00  0.00000000e+00
  0.00000000e+00  0.00000000e+00  0.00000000e+00  0.00000000e+00
  0.00000000e+00  0.00000000e+00  0.00000000e+00  0.00000000e+00
  0.00000000e+00  0.00000000e+00  0.00000000e+00  0.00000000e+00
  0.00000000e+00  0.00000000e+00  7.87475103e-08 -2.94497757e-21
  0.00000000e+00  0.00000000e+00  0.00000000e+00  9.97845310e-03]","[[ 9.97693021e-06 -1.31388070e-29  7.87475103e-11]
 [-1.31388070e-29  9.97685370e-06 -2.94497757e-24]
 [ 7.87475103e-11 -2.94497757e-24  9.97845310e-06]]",[2.07639142e-19 2.22192979e-46 0.00000000e+00],-5.835255111950604e-20,-1.3719371982099474e-18
1786950155.6263418,-2.1029415285843798e-19,-2.3307546511527226e-46,0.0,"[ 9.97663209e-03 -1.29691168e-26  0.00000000e+00  0.00000000e+00
  0.00000000e+00  7.92403157e-08 -1.29691168e-26  9.97655510e-03
  0.00000000e+00  0.00000000e+00  0.00000000e+00 -2.92351921e-21
  0.00000000e+00  0.00000000e+00  0.00000000e+00  0.00000000e+00
  0.00000000e+00  0.00000000e+00  0.00000000e+00  0.00000000e+00
  0.00000000e+00  0.00000000e+00  0.00000000e+00  0.00000000e+00
  0.00000000e+00  0.00000000e+00  0.00000000e+00  0.00000000e+00
  0.00000000e+00  0.00000000e+00  7.92403157e-08 -2.92351921e-21
  0.00000000e+00  0.00000000e+00  0.00000000e+00  9.97816450e-03]","[[ 9.97663209e-06 -1.29691168e-29  7.92403157e-11]
 [-1.29691168e-29  9.97655510e-06 -2.92351921e-24]
 [ 7.92403157e-11 -2.92351921e-24  9.97816450e-06]]",[2.10296251e-19 2.30350407e-46 0.00000000e+00],-1.1429312402471694e-20,7.44666246206754e-19
1786950155.6729646,-2.1137961190921645e-19,-2.3860821004212417e-46,0.0,"[ 9.97643331e-03 -1.29960783e-26  0.00000000e+00  0.00000000e+00
  0.00000000e+00  7.95294401e-08 -1.29960783e-26  9.97635604e-03
  0.00000000e+00  0.00000000e+00  0.00000000e+00 -2.92696418e-21
  0.00000000e+00  0.00000000e+00  0.00000000e+00  0.00000000e+00
  0.00000000e+00  0.00000000e+00  0.00000000e+00  0.00000000e+00
  0.00000000e+00  0.00000000e+00  0.00000000e+00  0.00000000e+00
  0.00000000e+00  0.00000000e+00  0.00000000e+00  0.00000000e+00
  0.00000000e+00  0.00000000e+00  7.95294401e-08 -2.92696418e-21
  0.00000000e+00  0.00000000e+00  0.00000000e+00  9.97797131e-03]","[[ 9.97643331e-06 -1.29960783e-29  7.95294401e-11]
 [-1.29960783e-29  9.97635604e-06 -2.92696418e-24]
 [ 7.95294401e-11 -2.92696418e-24  9.97797131e-06]]",[2.11381721e-19 2.35863430e-46 0.00000000e+00],1.2595756665852945e-19,-2.1127625628697003e-18
1786950155.714255,-2.113568736299883e-19,-2.471288929366377e-46,0.0,"[ 9.97613530e-03 -1.34899661e-26  0.00000000e+00  0.00000000e+00
  0.00000000e+00  8.01079934e-08 -1.34899661e-26  9.97605746e-03
  0.00000000e+00  0.00000000e+00  0.00000000e+00 -2.98891061e-21
  0.00000000e+00  0.00000000e+00  0.00000000e+00  0.00000000e+00
  0.00000000e+00  0.00000000e+00  0.00000000e+00  0.00000000e+00
  0.00000000e+00  0.00000000e+00  0.00000000e+00  0.00000000e+00
  0.00000000e+00  0.00000000e+00  0.00000000e+00  0.00000000e+00
  0.00000000e+00  0.00000000e+00  8.01079934e-08 -2.98891061e-21
  0.00000000e+00  0.00000000e+00  0.00000000e+00  9.97768449e-03]","[[ 9.97613530e-06 -1.34899661e-29  8.01079934e-11]
 [-1.34899661e-29  9.97605746e-06 -2.98891061e-24]
 [ 8.01079934e-11 -2.98891061e-24  9.97768449e-06]]",[2.11358982e-19 2.44280104e-46 0.00000000e+00],-3.814007422758096e-20,-2.6256059521787787e-19
1786950155.7650378,-2.127415436759852e-19,-2.4997768303552173e-46,0.0,"[ 9.97603589e-03 -1.34023048e-26  0.00000000e+00  0.00000000e+00
  0.00000000e+00  8.02240392e-08 -1.34023048e-26  9.97595794e-03
  0.00000000e+00  0.00000000e+00  0.00000000e+00 -2.97799578e-21
  0.00000000e+00  0.00000000e+00  0.00000000e+00  0.00000000e+00
  0.00000000e+00  0.00000000e+00  0.00000000e+00  0.00000000e+00
  0.00000000e+00  0.00000000e+00  0.00000000e+00  0.00000000e+00
  0.00000000e+00  0.00000000e+00  0.00000000e+00  0.00000000e+00
  0.00000000e+00  0.00000000e+00  8.02240392e-08 -2.97799578e-21
  0.00000000e+00  0.00000000e+00  0.00000000e+00  9.97758733e-03]","[[ 9.97603589e-06 -1.34023048e-29  8.02240392e-11]
 [-1.34023048e-29  9.97595794e-06 -2.97799578e-24]
 [ 8.02240392e-11 -2.97799578e-24  9.97758733e-06]]",[2.12743666e-19 2.47128893e-46 0.00000000e+00],6.229834105424503e-20,3.564945285327864e-19
1786950155.8155591,-2.172944875253512e-19,-2.5887848383728375e-46,0.0,"[ 9.97573777e-03 -1.37098043e-26  0.00000000e+00  0.00000000e+00
  0.00000000e+00  8.06616895e-08 -1.37098043e-26  9.97565939e-03
  0.00000000e+00  0.00000000e+00  0.00000000e+00 -3.01627681e-21
  0.00000000e+00  0.00000000e+00  0.00000000e+00  0.00000000e+00
  0.00000000e+00  0.00000000e+00  0.00000000e+00  0.00000000e+00
  0.00000000e+00  0.00000000e+00  0.00000000e+00  0.00000000e+00
  0.00000000e+00  0.00000000e+00  0.00000000e+00  0.00000000e+00
  0.00000000e+00  0.00000000e+00  8.06616895e-08 -3.01627681e-21
  0.00000000e+00  0.00000000e+00  0.00000000e+00  9.97729766e-03]","[[ 9.97573777e-06 -1.37098043e-29  8.06616895e-11]
 [-1.37098043e-29  9.97565939e-06 -3.01627681e-24]
 [ 8.06616895e-11 -3.01627681e-24  9.97729766e-06]]",[2.17296655e-19 2.55901942e-46 0.00000000e+00],5.697917033285044e-20,-2.2748263174376225e-18
1786950155.864823,-2.1925735166550354e-19,-2.6787949861866015e-46,0.0,"[ 9.97543999e-03 -1.37270565e-26  0.00000000e+00  0.00000000e+00
  0.00000000e+00  8.14403384e-08 -1.37270565e-26  9.97536086e-03
  0.00000000e+00  0.00000000e+00  0.00000000e+00 -3.01841099e-21
  0.00000000e+00  0.00000000e+00  0.00000000e+00  0.00000000e+00
  0.00000000e+00  0.00000000e+00  0.00000000e+00  0.00000000e+00
  0.00000000e+00  0.00000000e+00  0.00000000e+00  0.00000000e+00
  0.00000000e+00  0.00000000e+00  0.00000000e+00  0.00000000e+00
  0.00000000e+00  0.00000000e+00  8.14403384e-08 -3.01841099e-21
  0.00000000e+00  0.00000000e+00  0.00000000e+00  9.97701495e-03]","[[ 9.97543999e-06 -1.37270565e-29  8.14403384e-11]
 [-1.37270565e-29  9.97536086e-06 -3.01841099e-24]
 [ 8.14403384e-11 -3.01841099e-24  9.97701495e-06]]",[2.19259539e-19 2.64872353e-46 0.00000000e+00],1.7104620284870982e-20,3.006871657954093e-19
1786950155.9166656,-2.206868377703148e-19,-2.768749466769759e-46,0.0,"[ 9.97514176e-03 -1.36509277e-26  0.00000000e+00  0.00000000e+00
  0.00000000e+00  8.17333190e-08 -1.36509277e-26  9.97506234e-03
  0.00000000e+00  0.00000000e+00  0.00000000e+00 -3.00908369e-21
  0.00000000e+00  0.00000000e+00  0.00000000e+00  0.00000000e+00
  0.00000000e+00  0.00000000e+00  0.00000000e+00  0.00000000e+00
  0.00000000e+00  0.00000000e+00  0.00000000e+00  0.00000000e+00
  0.00000000e+00  0.00000000e+00  0.00000000e+00  0.00000000e+00
  0.00000000e+00  0.00000000e+00  8.17333190e-08 -3.00908369e-21
  0.00000000e+00  0.00000000e+00  0.00000000e+00  9.97672238e-03]","[[ 9.97514176e-06 -1.36509277e-29  8.17333190e-11]
 [-1.36509277e-29  9.97506234e-06 -3.00908369e-24]
 [ 8.17333190e-11 -3.00908369e-24  9.97672238e-06]]",[2.20689039e-19 2.73865068e-46 0.00000000e+00],-8.295160352282155e-20,-1.1440967835146363e-18
1786950155.9667585,-2.224218709078272e-19,-2.828185283377887e-46,0.0,"[ 9.97494306e-03 -1.34589881e-26  0.00000000e+00  0.00000000e+00
  0.00000000e+00  8.20386389e-08 -1.34589881e-26  9.97486334e-03
  0.00000000e+00  0.00000000e+00  0.00000000e+00 -2.98563116e-21
  0.00000000e+00  0.00000000e+00  0.00000000e+00  0.00000000e+00
  0.00000000e+00  0.00000000e+00  0.00000000e+00  0.00000000e+00
  0.00000000e+00  0.00000000e+00  0.00000000e+00  0.00000000e+00
  0.00000000e+00  0.00000000e+00  0.00000000e+00  0.00000000e+00
  0.00000000e+00  0.00000000e+00  8.20386389e-08 -2.98563116e-21
  0.00000000e+00  0.00000000e+00  0.00000000e+00  9.97652958e-03]","[[ 9.97494306e-06 -1.34589881e-29  8.20386389e-11]
 [-1.34589881e-29  9.97486334e-06 -2.98563116e-24]
 [ 8.20386389e-11 -2.98563116e-24  9.97652958e-06]]",[2.22424090e-19 2.79827716e-46 0.00000000e+00],-7.660760689155651e-20,-3.589814616128826e-19
1786950156.0160475,-2.2591901554735226e-19,-2.921454834695466e-46,0.0,"[ 9.97464510e-03 -1.40262776e-26  0.00000000e+00  0.00000000e+00
  0.00000000e+00  8.25830052e-08 -1.40262776e-26  9.97456486e-03
  0.00000000e+00  0.00000000e+00  0.00000000e+00 -3.05449218e-21
  0.00000000e+00  0.00000000e+00  0.00000000e+00  0.00000000e+00
  0.00000000e+00  0.00000000e+00  0.00000000e+00  0.00000000e+00
  0.00000000e+00  0.00000000e+00  0.00000000e+00  0.00000000e+00
  0.00000000e+00  0.00000000e+00  0.00000000e+00  0.00000000e+00
  0.00000000e+00  0.00000000e+00  8.25830052e-08 -3.05449218e-21
  0.00000000e+00  0.00000000e+00  0.00000000e+00  9.97624216e-03]","[[ 9.97464510e-06 -1.40262776e-29  8.25830052e-11]
 [-1.40262776e-29  9.97456486e-06 -3.05449218e-24]
 [ 8.25830052e-11 -3.05449218e-24  9.97624216e-06]]",[2.25921269e-19 2.88979531e-46 0.00000000e+00],-7.064992996732078e-20,-4.93118965494901e-19
1786950156.0678573,-2.273282070451822e-19,-2.9856866491888466e-46,0.0,"[ 9.97444636e-03 -1.42399912e-26  0.00000000e+00  0.00000000e+00
  0.00000000e+00  8.28295131e-08 -1.42399912e-26  9.97436588e-03
  0.00000000e+00  0.00000000e+00  0.00000000e+00 -3.08029631e-21
  0.00000000e+00  0.00000000e+00  0.00000000e+00  0.00000000e+00
  0.00000000e+00  0.00000000e+00  0.00000000e+00  0.00000000e+00
  0.00000000e+00  0.00000000e+00  0.00000000e+00  0.00000000e+00
  0.00000000e+00  0.00000000e+00  0.00000000e+00  0.00000000e+00
  0.00000000e+00  0.00000000e+00  8.28295131e-08 -3.08029631e-21
  0.00000000e+00  0.00000000e+00  0.00000000e+00  9.97604818e-03]","[[ 9.97444636e-06 -1.42399912e-29  8.28295131e-11]
 [-1.42399912e-29  9.97436588e-06 -3.08029631e-24]
 [ 8.28295131e-11 -3.08029631e-24  9.97604818e-06]]",[2.27330475e-19 2.95334427e-46 0.00000000e+00],-9.013939782288072e-20,1.1691593101554783e-18
1786950156.1175294,-2.293215203387836e-19,-3.049690100880468e-46,0.0,"[ 9.97424768e-03 -1.39860436e-26  0.00000000e+00  0.00000000e+00
  0.00000000e+00  8.31320214e-08 -1.39860436e-26  9.97416691e-03
  0.00000000e+00  0.00000000e+00  0.00000000e+00 -3.04972239e-21
  0.00000000e+00  0.00000000e+00  0.00000000e+00  0.00000000e+00
  0.00000000e+00  0.00000000e+00  0.00000000e+00  0.00000000e+00
  0.00000000e+00  0.00000000e+00  0.00000000e+00  0.00000000e+00
  0.00000000e+00  0.00000000e+00  0.00000000e+00  0.00000000e+00
  0.00000000e+00  0.00000000e+00  8.31320214e-08 -3.04972239e-21
  0.00000000e+00  0.00000000e+00  0.00000000e+00  9.97585536e-03]","[[ 9.97424768e-06 -1.39860436e-29  8.31320214e-11]
 [-1.39860436e-29  9.97416691e-06 -3.04972239e-24]
 [ 8.31320214e-11 -3.04972239e-24  9.97585536e-06]]",[2.29323808e-19 3.01764687e-46 0.00000000e+00],1.3648220636274098e-20,-7.576113422988151e-20
1786950156.164201,-2.3088043502449422e-19,-3.1485921405136293e-46,0.0,"[ 9.97394968e-03 -1.45950505e-26  0.00000000e+00  0.00000000e+00
  0.00000000e+00  8.35854284e-08 -1.45950505e-26  9.97386846e-03
  0.00000000e+00  0.00000000e+00  0.00000000e+00 -3.12262615e-21
  0.00000000e+00  0.00000000e+00  0.00000000e+00  0.00000000e+00
  0.00000000e+00  0.00000000e+00  0.00000000e+00  0.00000000e+00
  0.00000000e+00  0.00000000e+00  0.00000000e+00  0.00000000e+00
  0.00000000e+00  0.00000000e+00  0.00000000e+00  0.00000000e+00
  0.00000000e+00  0.00000000e+00  8.35854284e-08 -3.12262615e-21
  0.00000000e+00  0.00000000e+00  0.00000000e+00  9.97556612e-03]","[[ 9.97394968e-06 -1.45950505e-29  8.35854284e-11]
 [-1.45950505e-29  9.97386846e-06 -3.12262615e-24]
 [ 8.35854284e-11 -3.12262615e-24  9.97556612e-06]]",[2.30882738e-19 3.11492576e-46 0.00000000e+00],-1.5996782448622575e-19,-1.1986380841568657e-18
1786950156.214336,-2.3670085601977514e-19,-3.249263394585051e-46,0.0,"[ 9.97365174e-03 -1.42240755e-26  0.00000000e+00  0.00000000e+00
  0.00000000e+00  8.40882345e-08 -1.42240755e-26  9.97357004e-03
  0.00000000e+00  0.00000000e+00  0.00000000e+00 -3.07843858e-21
  0.00000000e+00  0.00000000e+00  0.00000000e+00  0.00000000e+00
  0.00000000e+00  0.00000000e+00  0.00000000e+00  0.00000000e+00
  0.00000000e+00  0.00000000e+00  0.00000000e+00  0.00000000e+00
  0.00000000e+00  0.00000000e+00  0.00000000e+00  0.00000000e+00
  0.00000000e+00  0.00000000e+00  8.40882345e-08 -3.07843858e-21
  0.00000000e+00  0.00000000e+00  0.00000000e+00  9.97527791e-03]","[[ 9.97365174e-06 -1.42240755e-29  8.40882345e-11]
 [-1.42240755e-29  9.97357004e-06 -3.07843858e-24]
 [ 8.40882345e-11 -3.07843858e-24  9.97527791e-06]]",[2.36703217e-19 3.21562662e-46 0.00000000e+00],-2.472060438910575e-20,-4.0690802595433346e-19
1786950156.2695694,-2.372701279308495e-19,-3.316802059751245e-46,0.0,"[ 9.97345306e-03 -1.43805273e-26  0.00000000e+00  0.00000000e+00
  0.00000000e+00  8.43508682e-08 -1.43805273e-26  9.97337110e-03
  0.00000000e+00  0.00000000e+00  0.00000000e+00 -3.09696117e-21
  0.00000000e+00  0.00000000e+00  0.00000000e+00  0.00000000e+00
  0.00000000e+00  0.00000000e+00  0.00000000e+00  0.00000000e+00
  0.00000000e+00  0.00000000e+00  0.00000000e+00  0.00000000e+00
  0.00000000e+00  0.00000000e+00  0.00000000e+00  0.00000000e+00
  0.00000000e+00  0.00000000e+00  8.43508682e-08 -3.09696117e-21
  0.00000000e+00  0.00000000e+00  0.00000000e+00  9.97508430e-03]","[[ 9.97345306e-06 -1.43805273e-29  8.43508682e-11]
 [-1.43805273e-29  9.97337110e-06 -3.09696117e-24]
 [ 8.43508682e-11 -3.09696117e-24  9.97508430e-06]]",[2.37272494e-19 3.28271376e-46 0.00000000e+00],-1.5517436072481287e-19,-1.0233306550443192e-18
1786950156.318893,-2.3820207885049423e-19,-3.4160588857321494e-46,0.0,"[ 9.97315516e-03 -1.38118185e-26  0.00000000e+00  0.00000000e+00
  0.00000000e+00  8.48675053e-08 -1.38118185e-26  9.97307270e-03
  0.00000000e+00  0.00000000e+00  0.00000000e+00 -3.02981785e-21
  0.00000000e+00  0.00000000e+00  0.00000000e+00  0.00000000e+00
  0.00000000e+00  0.00000000e+00  0.00000000e+00  0.00000000e+00
  0.00000000e+00  0.00000000e+00  0.00000000e+00  0.00000000e+00
  0.00000000e+00  0.00000000e+00  0.00000000e+00  0.00000000e+00
  0.00000000e+00  0.00000000e+00  8.48675053e-08 -3.02981785e-21
  0.00000000e+00  0.00000000e+00  0.00000000e+00  9.97479640e-03]","[[ 9.97315516e-06 -1.38118185e-29  8.48675053e-11]
 [-1.38118185e-29  9.97307270e-06 -3.02981785e-24]
 [ 8.48675053e-11 -3.02981785e-24  9.97479640e-06]]",[2.38204455e-19 3.38319226e-46 0.00000000e+00],-9.139553161767963e-20,-1.030771998082157e-18
1786950156.370112,-2.372234873232671e-19,-3.480936671992162e-46,0.0,"[ 9.97295658e-03 -1.37250989e-26  0.00000000e+00  0.00000000e+00
  0.00000000e+00  8.52105212e-08 -1.37250989e-26  9.97287378e-03
  0.00000000e+00  0.00000000e+00  0.00000000e+00 -3.01959954e-21
  0.00000000e+00  0.00000000e+00  0.00000000e+00  0.00000000e+00
  0.00000000e+00  0.00000000e+00  0.00000000e+00  0.00000000e+00
  0.00000000e+00  0.00000000e+00  0.00000000e+00  0.00000000e+00
  0.00000000e+00  0.00000000e+00  0.00000000e+00  0.00000000e+00
  0.00000000e+00  0.00000000e+00  8.52105212e-08 -3.01959954e-21
  0.00000000e+00  0.00000000e+00  0.00000000e+00  9.97460445e-03]","[[ 9.97295658e-06 -1.37250989e-29  8.52105212e-11]
 [-1.37250989e-29  9.97287378e-06 -3.01959954e-24]
 [ 8.52105212e-11 -3.01959954e-24  9.97460445e-06]]",[2.37225853e-19 3.44841158e-46 0.00000000e+00],-6.431428368971427e-20,-7.039027639009615e-19
1786950156.419466,-2.3785151429967237e-19,-3.5823922354493076e-46,0.0,"[ 9.97265863e-03 -1.46710728e-26  0.00000000e+00  0.00000000e+00
  0.00000000e+00  8.56411982e-08 -1.46710728e-26  9.97257542e-03
  0.00000000e+00  0.00000000e+00  0.00000000e+00 -3.13011150e-21
  0.00000000e+00  0.00000000e+00  0.00000000e+00  0.00000000e+00
  0.00000000e+00  0.00000000e+00  0.00000000e+00  0.00000000e+00
  0.00000000e+00  0.00000000e+00  0.00000000e+00  0.00000000e+00
  0.00000000e+00  0.00000000e+00  0.00000000e+00  0.00000000e+00
  0.00000000e+00  0.00000000e+00  8.56411982e-08 -3.13011150e-21
  0.00000000e+00  0.00000000e+00  0.00000000e+00  9.97431483e-03]","[[ 9.97265863e-06 -1.46710728e-29  8.56411982e-11]
 [-1.46710728e-29  9.97257542e-06 -3.13011150e-24]
 [ 8.56411982e-11 -3.13011150e-24  9.97431483e-06]]",[2.37853886e-19 3.54753190e-46 0.00000000e+00],-3.001330322085402e-19,1.8766654618885986e-18
1786950156.4737947,-2.3811807793449993e-19,-3.6167948125560265e-46,0.0,"[ 9.97255932e-03 -1.44625554e-26  0.00000000e+00  0.00000000e+00
  0.00000000e+00  8.57892609e-08 -1.44625554e-26  9.97247597e-03
  0.00000000e+00  0.00000000e+00  0.00000000e+00 -3.10582894e-21
  0.00000000e+00  0.00000000e+00  0.00000000e+00  0.00000000e+00
  0.00000000e+00  0.00000000e+00  0.00000000e+00  0.00000000e+00
  0.00000000e+00  0.00000000e+00  0.00000000e+00  0.00000000e+00
  0.00000000e+00  0.00000000e+00  0.00000000e+00  0.00000000e+00
  0.00000000e+00  0.00000000e+00  8.57892609e-08 -3.10582894e-21
  0.00000000e+00  0.00000000e+00  0.00000000e+00  9.97421838e-03]","[[ 9.97255932e-06 -1.44625554e-29  8.57892609e-11]
 [-1.44625554e-29  9.97247597e-06 -3.10582894e-24]
 [ 8.57892609e-11 -3.10582894e-24  9.97421838e-06]]",[2.38120453e-19 3.58239224e-46 0.00000000e+00],1.2323490717428337e-19,-4.5102563368034904e-20
1786950156.5157242,-2.389789525951562e-19,-3.722980913223708e-46,0.0,"[ 9.97226149e-03 -1.49611904e-26  0.00000000e+00  0.00000000e+00
  0.00000000e+00  8.63178330e-08 -1.49611904e-26  9.97217762e-03
  0.00000000e+00  0.00000000e+00  0.00000000e+00 -3.16370458e-21
  0.00000000e+00  0.00000000e+00  0.00000000e+00  0.00000000e+00
  0.00000000e+00  0.00000000e+00  0.00000000e+00  0.00000000e+00
  0.00000000e+00  0.00000000e+00  0.00000000e+00  0.00000000e+00
  0.00000000e+00  0.00000000e+00  0.00000000e+00  0.00000000e+00
  0.00000000e+00  0.00000000e+00  8.63178330e-08 -3.16370458e-21
  0.00000000e+00  0.00000000e+00  0.00000000e+00  9.97393078e-03]","[[ 9.97226149e-06 -1.49611904e-29  8.63178330e-11]
 [-1.49611904e-29  9.97217762e-06 -3.16370458e-24]
 [ 8.63178330e-11 -3.16370458e-24  9.97393078e-06]]",[2.38981336e-19 3.68726323e-46 0.00000000e+00],-3.425686174803644e-20,1.311924684595186e-19
1786950156.5659463,-2.4237241236672735e-19,-3.8285111882832104e-46,0.0,"[ 9.97196363e-03 -1.44903837e-26  0.00000000e+00  0.00000000e+00
  0.00000000e+00  8.67930510e-08 -1.44903837e-26  9.97187930e-03
  0.00000000e+00  0.00000000e+00  0.00000000e+00 -3.10934783e-21
  0.00000000e+00  0.00000000e+00  0.00000000e+00  0.00000000e+00
  0.00000000e+00  0.00000000e+00  0.00000000e+00  0.00000000e+00
  0.00000000e+00  0.00000000e+00  0.00000000e+00  0.00000000e+00
  0.00000000e+00  0.00000000e+00  0.00000000e+00  0.00000000e+00
  0.00000000e+00  0.00000000e+00  8.67930510e-08 -3.10934783e-21
  0.00000000e+00  0.00000000e+00  0.00000000e+00  9.97364210e-03]","[[ 9.97196363e-06 -1.44903837e-29  8.67930510e-11]
 [-1.44903837e-29  9.97187930e-06 -3.10934783e-24]
 [ 8.67930510e-11 -3.10934783e-24  9.97364210e-06]]",[2.42374829e-19 3.79342797e-46 0.00000000e+00],-4.462469322435092e-20,4.912992349009221e-19
1786950156.619666,-2.4201748468829103e-19,-3.934549308593331e-46,0.0,"[ 9.97166572e-03 -1.45762847e-26  0.00000000e+00  0.00000000e+00
  0.00000000e+00  8.72011909e-08 -1.45762847e-26  9.97158099e-03
  0.00000000e+00  0.00000000e+00  0.00000000e+00 -3.11926590e-21
  0.00000000e+00  0.00000000e+00  0.00000000e+00  0.00000000e+00
  0.00000000e+00  0.00000000e+00  0.00000000e+00  0.00000000e+00
  0.00000000e+00  0.00000000e+00  0.00000000e+00  0.00000000e+00
  0.00000000e+00  0.00000000e+00  0.00000000e+00  0.00000000e+00
  0.00000000e+00  0.00000000e+00  8.72011909e-08 -3.11926590e-21
  0.00000000e+00  0.00000000e+00  0.00000000e+00  9.97335209e-03]","[[ 9.97166572e-06 -1.45762847e-29  8.72011909e-11]
 [-1.45762847e-29  9.97158099e-06 -3.11926590e-24]
 [ 8.72011909e-11 -3.11926590e-24  9.97335209e-06]]",[2.42019898e-19 3.89931068e-46 0.00000000e+00],1.217311051795838e-19,-2.51773902138353e-18
1786950156.6696467,-2.4412724587788053e-19,-4.006677965509183e-46,0.0,"[ 9.97146725e-03 -1.47267963e-26  0.00000000e+00  0.00000000e+00
  0.00000000e+00  8.76012090e-08 -1.47267963e-26  9.97138213e-03
  0.00000000e+00  0.00000000e+00  0.00000000e+00 -3.13655906e-21
  0.00000000e+00  0.00000000e+00  0.00000000e+00  0.00000000e+00
  0.00000000e+00  0.00000000e+00  0.00000000e+00  0.00000000e+00
  0.00000000e+00  0.00000000e+00  0.00000000e+00  0.00000000e+00
  0.00000000e+00  0.00000000e+00  0.00000000e+00  0.00000000e+00
  0.00000000e+00  0.00000000e+00  8.76012090e-08 -3.13655906e-21
  0.00000000e+00  0.00000000e+00  0.00000000e+00  9.97316135e-03]","[[ 9.97146725e-06 -1.47267963e-29  8.76012090e-11]
 [-1.47267963e-29  9.97138213e-06 -3.13655906e-24]
 [ 8.76012090e-11 -3.13655906e-24  9.97316135e-06]]",[2.44129680e-19 3.97076508e-46 0.00000000e+00],2.011451883098034e-19,8.833333000843142e-19
1786950156.7144554,-2.46930034752684e-19,-4.079978999368516e-46,0.0,"[ 9.97126869e-03 -1.49444344e-26  0.00000000e+00  0.00000000e+00
  0.00000000e+00  8.78969924e-08 -1.49444344e-26  9.97118328e-03
  0.00000000e+00  0.00000000e+00  0.00000000e+00 -3.16132584e-21
  0.00000000e+00  0.00000000e+00  0.00000000e+00  0.00000000e+00
  0.00000000e+00  0.00000000e+00  0.00000000e+00  0.00000000e+00
  0.00000000e+00  0.00000000e+00  0.00000000e+00  0.00000000e+00
  0.00000000e+00  0.00000000e+00  0.00000000e+00  0.00000000e+00
  0.00000000e+00  0.00000000e+00  8.78969924e-08 -3.16132584e-21
  0.00000000e+00  0.00000000e+00  0.00000000e+00  9.97296851e-03]","[[ 9.97126869e-06 -1.49444344e-29  8.78969924e-11]
 [-1.49444344e-29  9.97118328e-06 -3.16132584e-24]
 [ 8.78969924e-11 -3.16132584e-24  9.97296851e-06]]",[2.46932497e-19 4.04311665e-46 0.00000000e+00],-4.8235112108629965e-20,9.874732928692493e-19
1786950156.76662,-2.5153379061063154e-19,-4.19718219285472e-46,0.0,"[ 9.97097097e-03 -1.58705694e-26  0.00000000e+00  0.00000000e+00
  0.00000000e+00  8.84618095e-08 -1.58705694e-26  9.97088502e-03
  0.00000000e+00  0.00000000e+00  0.00000000e+00 -3.26619637e-21
  0.00000000e+00  0.00000000e+00  0.00000000e+00  0.00000000e+00
  0.00000000e+00  0.00000000e+00  0.00000000e+00  0.00000000e+00
  0.00000000e+00  0.00000000e+00  0.00000000e+00  0.00000000e+00
  0.00000000e+00  0.00000000e+00  0.00000000e+00  0.00000000e+00
  0.00000000e+00  0.00000000e+00  8.84618095e-08 -3.26619637e-21
  0.00000000e+00  0.00000000e+00  0.00000000e+00  9.97268171e-03]","[[ 9.97097097e-06 -1.58705694e-29  8.84618095e-11]
 [-1.58705694e-29  9.97088502e-06 -3.26619637e-24]
 [ 8.84618095e-11 -3.26619637e-24  9.97268171e-06]]",[2.51536299e-19 4.15730340e-46 0.00000000e+00],-1.3442979291405636e-19,3.9684130934959306e-19
1786950156.815942,-2.540494373150197e-19,-4.279188218321887e-46,0.0,"[ 9.97077269e-03 -1.64100608e-26  0.00000000e+00  0.00000000e+00
  0.00000000e+00  8.90293603e-08 -1.64100608e-26  9.97068618e-03
  0.00000000e+00  0.00000000e+00  0.00000000e+00 -3.32694871e-21
  0.00000000e+00  0.00000000e+00  0.00000000e+00  0.00000000e+00
  0.00000000e+00  0.00000000e+00  0.00000000e+00  0.00000000e+00
  0.00000000e+00  0.00000000e+00  0.00000000e+00  0.00000000e+00
  0.00000000e+00  0.00000000e+00  0.00000000e+00  0.00000000e+00
  0.00000000e+00  0.00000000e+00  8.90293603e-08 -3.32694871e-21
  0.00000000e+00  0.00000000e+00  0.00000000e+00  9.97249441e-03]","[[ 9.97077269e-06 -1.64100608e-29  8.90293603e-11]
 [-1.64100608e-29  9.97068618e-06 -3.32694871e-24]
 [ 8.90293603e-11 -3.32694871e-24  9.97249441e-06]]",[2.54051970e-19 4.23754039e-46 0.00000000e+00],-1.4928221216790127e-19,-1.3595596488128684e-18
1786950156.895091,-2.5491350270728265e-19,-4.3632224860437714e-46,0.0,"[ 9.97057403e-03 -1.64621315e-26  0.00000000e+00  0.00000000e+00
  0.00000000e+00  8.91970364e-08 -1.64621315e-26  9.97048736e-03
  0.00000000e+00  0.00000000e+00  0.00000000e+00 -3.33279865e-21
  0.00000000e+00  0.00000000e+00  0.00000000e+00  0.00000000e+00
  0.00000000e+00  0.00000000e+00  0.00000000e+00  0.00000000e+00
  0.00000000e+00  0.00000000e+00  0.00000000e+00  0.00000000e+00
  0.00000000e+00  0.00000000e+00  0.00000000e+00  0.00000000e+00
  0.00000000e+00  0.00000000e+00  8.91970364e-08 -3.33279865e-21
  0.00000000e+00  0.00000000e+00  0.00000000e+00  9.97229899e-03]","[[ 9.97057403e-06 -1.64621315e-29  8.91970364e-11]
 [-1.64621315e-29  9.97048736e-06 -3.33279865e-24]
 [ 8.91970364e-11 -3.33279865e-24  9.97229899e-06]]",[2.54916044e-19 4.32130096e-46 0.00000000e+00],7.472859591949487e-20,2.27243376809268e-19
1786950156.9150813,-2.591245151279212e-19,-4.450163619044713e-46,0.0,"[ 9.97037703e-03 -1.67664193e-26  0.00000000e+00  0.00000000e+00
  0.00000000e+00  9.10711595e-08 -1.67664193e-26  9.97028854e-03
  0.00000000e+00  0.00000000e+00  0.00000000e+00 -3.36700332e-21
  0.00000000e+00  0.00000000e+00  0.00000000e+00  0.00000000e+00
  0.00000000e+00  0.00000000e+00  0.00000000e+00  0.00000000e+00
  0.00000000e+00  0.00000000e+00  0.00000000e+00  0.00000000e+00
  0.00000000e+00  0.00000000e+00  0.00000000e+00  0.00000000e+00
  0.00000000e+00  0.00000000e+00  9.10711595e-08 -3.36700332e-21
  0.00000000e+00  0.00000000e+00  0.00000000e+00  9.97213823e-03]","[[ 9.97037703e-06 -1.67664193e-29  9.10711595e-11]
 [-1.67664193e-29  9.97028854e-06 -3.36700332e-24]
 [ 9.10711595e-11 -3.36700332e-24  9.97213823e-06]]",[2.59127099e-19 4.40676122e-46 0.00000000e+00],1.1890096752328784e-19,-4.414420227787417e-19
1786950156.9668806,-2.5799106177000363e-19,-4.539126755443387e-46,0.0,"[ 9.97017852e-03 -1.72913571e-26  0.00000000e+00  0.00000000e+00
  0.00000000e+00  9.13836182e-08 -1.72913571e-26  9.97008973e-03
  0.00000000e+00  0.00000000e+00  0.00000000e+00 -3.42447020e-21
  0.00000000e+00  0.00000000e+00  0.00000000e+00  0.00000000e+00
  0.00000000e+00  0.00000000e+00  0.00000000e+00  0.00000000e+00
  0.00000000e+00  0.00000000e+00  0.00000000e+00  0.00000000e+00
  0.00000000e+00  0.00000000e+00  0.00000000e+00  0.00000000e+00
  0.00000000e+00  0.00000000e+00  9.13836182e-08 -3.42447020e-21
  0.00000000e+00  0.00000000e+00  0.00000000e+00  9.97194577e-03]","[[ 9.97017852e-06 -1.72913571e-29  9.13836182e-11]
 [-1.72913571e-29  9.97008973e-06 -3.42447020e-24]
 [ 9.13836182e-11 -3.42447020e-24  9.97194577e-06]]",[2.57993634e-19 4.49456097e-46 0.00000000e+00],-5.697274934593444e-20,2.3682884246857162e-18
1786950157.0147746,-2.614029604270752e-19,-4.677335459730494e-46,0.0,"[ 9.96988079e-03 -1.75440770e-26  0.00000000e+00  0.00000000e+00
  0.00000000e+00  9.18612249e-08 -1.75440770e-26  9.96979153e-03
  0.00000000e+00  0.00000000e+00  0.00000000e+00 -3.45217606e-21
  0.00000000e+00  0.00000000e+00  0.00000000e+00  0.00000000e+00
  0.00000000e+00  0.00000000e+00  0.00000000e+00  0.00000000e+00
  0.00000000e+00  0.00000000e+00  0.00000000e+00  0.00000000e+00
  0.00000000e+00  0.00000000e+00  0.00000000e+00  0.00000000e+00
  0.00000000e+00  0.00000000e+00  9.18612249e-08 -3.45217606e-21
  0.00000000e+00  0.00000000e+00  0.00000000e+00  9.97165727e-03]","[[ 9.96988079e-06 -1.75440770e-29  9.18612249e-11]
 [-1.75440770e-29  9.96979153e-06 -3.45217606e-24]
 [ 9.18612249e-11 -3.45217606e-24  9.97165727e-06]]",[2.61405567e-19 4.63152044e-46 0.00000000e+00],1.7066969270010972e-19,4.27033258430284e-19
1786950157.0736856,-2.6281246827577653e-19,-4.770332724623046e-46,0.0,"[ 9.96968229e-03 -1.77632135e-26  0.00000000e+00  0.00000000e+00
  0.00000000e+00  9.21573896e-08 -1.77632135e-26  9.96959274e-03
  0.00000000e+00  0.00000000e+00  0.00000000e+00 -3.47595577e-21
  0.00000000e+00  0.00000000e+00  0.00000000e+00  0.00000000e+00
  0.00000000e+00  0.00000000e+00  0.00000000e+00  0.00000000e+00
  0.00000000e+00  0.00000000e+00  0.00000000e+00  0.00000000e+00
  0.00000000e+00  0.00000000e+00  0.00000000e+00  0.00000000e+00
  0.00000000e+00  0.00000000e+00  9.21573896e-08 -3.47595577e-21
  0.00000000e+00  0.00000000e+00  0.00000000e+00  9.97146450e-03]","[[ 9.96968229e-06 -1.77632135e-29  9.21573896e-11]
 [-1.77632135e-29  9.96959274e-06 -3.47595577e-24]
 [ 9.21573896e-11 -3.47595577e-24  9.97146450e-06]]",[2.62815088e-19 4.72369541e-46 0.00000000e+00],-4.8400706593726796e-20,-1.784665103587915e-19
1786950157.1164246,-2.633612198949313e-19,-4.906284716631161e-46,0.0,"[ 9.96938464e-03 -1.71071747e-26  0.00000000e+00  0.00000000e+00
  0.00000000e+00  9.26932591e-08 -1.71071747e-26  9.96929457e-03
  0.00000000e+00  0.00000000e+00  0.00000000e+00 -3.40510586e-21
  0.00000000e+00  0.00000000e+00  0.00000000e+00  0.00000000e+00
  0.00000000e+00  0.00000000e+00  0.00000000e+00  0.00000000e+00
  0.00000000e+00  0.00000000e+00  0.00000000e+00  0.00000000e+00
  0.00000000e+00  0.00000000e+00  0.00000000e+00  0.00000000e+00
  0.00000000e+00  0.00000000e+00  9.26932591e-08 -3.40510586e-21
  0.00000000e+00  0.00000000e+00  0.00000000e+00  9.97117721e-03]","[[ 9.96938464e-06 -1.71071747e-29  9.26932591e-11]
 [-1.71071747e-29  9.96929457e-06 -3.40510586e-24]
 [ 9.26932591e-11 -3.40510586e-24  9.97117721e-06]]",[2.63363845e-19 4.86127907e-46 0.00000000e+00],3.536862513699648e-20,-2.8570006698929807e-18
1786950157.1832836,-2.6374984491049053e-19,-4.998076488610913e-46,0.0,"[ 9.96918617e-03 -1.75517963e-26  0.00000000e+00  0.00000000e+00
  0.00000000e+00  9.29999044e-08 -1.75517963e-26  9.96909580e-03
  0.00000000e+00  0.00000000e+00  0.00000000e+00 -3.45289819e-21
  0.00000000e+00  0.00000000e+00  0.00000000e+00  0.00000000e+00
  0.00000000e+00  0.00000000e+00  0.00000000e+00  0.00000000e+00
  0.00000000e+00  0.00000000e+00  0.00000000e+00  0.00000000e+00
  0.00000000e+00  0.00000000e+00  0.00000000e+00  0.00000000e+00
  0.00000000e+00  0.00000000e+00  9.29999044e-08 -3.45289819e-21
  0.00000000e+00  0.00000000e+00  0.00000000e+00  9.97098467e-03]","[[ 9.96918617e-06 -1.75517963e-29  9.29999044e-11]
 [-1.75517963e-29  9.96909580e-06 -3.45289819e-24]
 [ 9.29999044e-11 -3.45289819e-24  9.97098467e-06]]",[2.63752474e-19 4.95183256e-46 0.00000000e+00],-1.2780410003234022e-19,2.6821640480014925e-18
1786950157.2143364,-2.650418332365041e-19,-5.141905937017271e-46,0.0,"[ 9.96888849e-03 -1.83035862e-26  0.00000000e+00  0.00000000e+00
  0.00000000e+00  9.34756240e-08 -1.83035862e-26  9.96879766e-03
  0.00000000e+00  0.00000000e+00  0.00000000e+00 -3.53339570e-21
  0.00000000e+00  0.00000000e+00  0.00000000e+00  0.00000000e+00
  0.00000000e+00  0.00000000e+00  0.00000000e+00  0.00000000e+00
  0.00000000e+00  0.00000000e+00  0.00000000e+00  0.00000000e+00
  0.00000000e+00  0.00000000e+00  0.00000000e+00  0.00000000e+00
  0.00000000e+00  0.00000000e+00  9.34756240e-08 -3.53339570e-21
  0.00000000e+00  0.00000000e+00  0.00000000e+00  9.97069619e-03]","[[ 9.96898778e-06 -1.81834489e-29  9.33911868e-11]
