time,x,y,yaw,cov_prop,K_gain,innovation,v_ekf,omega_ekf
1787133724.797634,0.11162593051932426,-1.2817316152742668,0.06652281027566387,"[ 3.65659729e-06 -1.91316569e-08  0.00000000e+00  0.00000000e+00
  0.00000000e+00  9.34226331e-08 -1.91316569e-08  3.47117559e-06
  0.00000000e+00  0.00000000e+00  0.00000000e+00  3.04237739e-07
  0.00000000e+00  0.00000000e+00  0.00000000e+00  0.00000000e+00
  0.00000000e+00  0.00000000e+00  0.00000000e+00  0.00000000e+00
  0.00000000e+00  0.00000000e+00  0.00000000e+00  0.00000000e+00
  0.00000000e+00  0.00000000e+00  0.00000000e+00  0.00000000e+00
  0.00000000e+00  0.00000000e+00  9.34226331e-08  3.04237739e-07
  0.00000000e+00  0.00000000e+00  0.00000000e+00  1.66650534e-06]","[[-0.00911733 -0.00051106]
 [ 0.00072509 -0.00365255]]",[],0.0,0.0
1787133724.8111882,0.11162593051932426,-1.2817316152742668,0.06652281027566387,"[ 3.65659729e-06 -1.91316569e-08  0.00000000e+00  0.00000000e+00
  0.00000000e+00  9.34226331e-08 -1.91316569e-08  3.47117559e-06
  0.00000000e+00  0.00000000e+00  0.00000000e+00  3.04237739e-07
  0.00000000e+00  0.00000000e+00  0.00000000e+00  0.00000000e+00
  0.00000000e+00  0.00000000e+00  0.00000000e+00  0.00000000e+00
  0.00000000e+00  0.00000000e+00  0.00000000e+00  0.00000000e+00
  0.00000000e+00  0.00000000e+00  0.00000000e+00  0.00000000e+00
  0.00000000e+00  0.00000000e+00  9.34226331e-08  3.04237739e-07
  0.00000000e+00  0.00000000e+00  0.00000000e+00  1.66650534e-06]","[[-0.00911733 -0.00051106]
 [ 0.00072509 -0.00365255]]",[],0.0,0.0
1787133725.3158963,0.11111291886003492,-1.2637455446749137,0.07775346923614368,"[1.79553934e-06 1.04126796e-08 0.00000000e+00 0.00000000e+00
 0.00000000e+00 6.64501206e-08 1.04126796e-08 1.67908371e-06
 0.00000000e+00 0.00000000e+00 0.00000000e+00 1.42005339e-07
 0.00000000e+00 0.00000000e+00 0.00000000e+00 0.00000000e+00
 0.00000000e+00 0.00000000e+00 0.00000000e+00 0.00000000e+00
 0.00000000e+00 0.00000000e+00 0.00000000e+00 0.00000000e+00
 0.00000000e+00 0.00000000e+00 0.00000000e+00 0.00000000e+00
 0.00000000e+00 0.00000000e+00 6.64501206e-08 1.42005339e-07
 0.00000000e+00 0.00000000e+00 0.00000000e+00 1.35783251e-06]","[[-4.48889632e-03 -2.13352794e-04]
 [-6.50683781e-05 -1.74892712e-03]]",[],0.0,0.0
1787133725.868615,0.11143623086806978,-1.252775392432265,0.08395774117481648,"[1.22347215e-06 9.29376050e-09 0.00000000e+00 0.00000000e+00
 0.00000000e+00 4.90094506e-08 9.29376050e-09 1.11071453e-06
 0.00000000e+00 0.00000000e+00 0.00000000e+00 9.68273762e-08
 0.00000000e+00 0.00000000e+00 0.00000000e+00 0.00000000e+00
 0.00000000e+00 0.00000000e+00 0.00000000e+00 0.00000000e+00
 0.00000000e+00 0.00000000e+00 0.00000000e+00 0.00000000e+00
 0.00000000e+00 0.00000000e+00 0.00000000e+00 0.00000000e+00
 0.00000000e+00 0.00000000e+00 4.90094506e-08 9.68273762e-08
 0.00000000e+00 0.00000000e+00 0.00000000e+00 1.34449561e-06]","[[-0.00305667 -0.00012639]
 [-0.00014708 -0.00116307]]",[],0.0,0.0
1787133726.4011567,0.1116557655411319,-1.2463391728248299,0.0892554799967562,"[9.65762883e-07 9.86044678e-09 0.00000000e+00 0.00000000e+00
 0.00000000e+00 4.75349139e-08 9.86044678e-09 8.32787167e-07
 0.00000000e+00 0.00000000e+00 0.00000000e+00 7.90390163e-08
 0.00000000e+00 0.00000000e+00 0.00000000e+00 0.00000000e+00
 0.00000000e+00 0.00000000e+00 0.00000000e+00 0.00000000e+00
 0.00000000e+00 0.00000000e+00 0.00000000e+00 0.00000000e+00
 0.00000000e+00 0.00000000e+00 0.00000000e+00 0.00000000e+00
 0.00000000e+00 0.00000000e+00 4.75349139e-08 7.90390163e-08
 0.00000000e+00 0.00000000e+00 0.00000000e+00 1.38271768e-06]","[[-0.0024124  -0.00012508]
 [-0.00013341 -0.00089336]]",[],0.0,0.0
1787133726.4135191,0.1116557655411319,-1.2463391728248299,0.0892554799967562,"[9.65762883e-07 9.86044678e-09 0.00000000e+00 0.00000000e+00
 0.00000000e+00 4.75349139e-08 9.86044678e-09 8.32787167e-07
 0.00000000e+00 0.00000000e+00 0.00000000e+00 7.90390163e-08
 0.00000000e+00 0.00000000e+00 0.00000000e+00 0.00000000e+00
 0.00000000e+00 0.00000000e+00 0.00000000e+00 0.00000000e+00
 0.00000000e+00 0.00000000e+00 0.00000000e+00 0.00000000e+00
 0.00000000e+00 0.00000000e+00 0.00000000e+00 0.00000000e+00
 0.00000000e+00 0.00000000e+00 4.75349139e-08 7.90390163e-08
 0.00000000e+00 0.00000000e+00 0.00000000e+00 1.38271768e-06]","[[-0.0024124  -0.00012508]
 [-0.00013341 -0.00089336]]",[],0.0,0.0
1787133726.902243,0.11195498251935765,-1.2425162033494601,0.0906264124210856,"[8.24725960e-07 1.44449443e-08 0.00000000e+00 0.00000000e+00
 0.00000000e+00 4.51050651e-08 1.44449443e-08 6.65140057e-07
 0.00000000e+00 0.00000000e+00 0.00000000e+00 6.03090822e-08
 0.00000000e+00 0.00000000e+00 0.00000000e+00 0.00000000e+00
 0.00000000e+00 0.00000000e+00 0.00000000e+00 0.00000000e+00
 0.00000000e+00 0.00000000e+00 0.00000000e+00 0.00000000e+00
 0.00000000e+00 0.00000000e+00 0.00000000e+00 0.00000000e+00
 0.00000000e+00 0.00000000e+00 4.51050651e-08 6.03090822e-08
 0.00000000e+00 0.00000000e+00 0.00000000e+00 1.37613974e-06]","[[-0.00205997 -0.00011929]
 [-0.00014126 -0.00070327]]",[],0.0,0.0
1787133726.908514,0.11195498251935765,-1.2425162033494601,0.0906264124210856,"[8.24725960e-07 1.44449443e-08 0.00000000e+00 0.00000000e+00
 0.00000000e+00 4.51050651e-08 1.44449443e-08 6.65140057e-07
 0.00000000e+00 0.00000000e+00 0.00000000e+00 6.03090822e-08
 0.00000000e+00 0.00000000e+00 0.00000000e+00 0.00000000e+00
 0.00000000e+00 0.00000000e+00 0.00000000e+00 0.00000000e+00
 0.00000000e+00 0.00000000e+00 0.00000000e+00 0.00000000e+00
 0.00000000e+00 0.00000000e+00 0.00000000e+00 0.00000000e+00
 0.00000000e+00 0.00000000e+00 4.51050651e-08 6.03090822e-08
 0.00000000e+00 0.00000000e+00 0.00000000e+00 1.37613974e-06]","[[-0.00205997 -0.00011929]
 [-0.00014126 -0.00070327]]",[],0.0,0.0
1787133727.4279242,0.11161469852790952,-1.2398668279455525,0.09256072773633806,"[7.27425325e-07 1.67052822e-08 0.00000000e+00 0.00000000e+00
 0.00000000e+00 4.45288046e-08 1.67052822e-08 5.54703358e-07
 0.00000000e+00 0.00000000e+00 0.00000000e+00 5.01125445e-08
 0.00000000e+00 0.00000000e+00 0.00000000e+00 0.00000000e+00
 0.00000000e+00 0.00000000e+00 0.00000000e+00 0.00000000e+00
 0.00000000e+00 0.00000000e+00 0.00000000e+00 0.00000000e+00
 0.00000000e+00 0.00000000e+00 0.00000000e+00 0.00000000e+00
 0.00000000e+00 0.00000000e+00 4.45288046e-08 5.01125445e-08
 0.00000000e+00 0.00000000e+00 0.00000000e+00 1.35527789e-06]","[[-0.00181799 -0.00012727]
 [-0.00012076 -0.00058631]]",[],0.0,0.0
1787133727.9261606,0.11139892205500251,-1.2376606048674732,0.09370392274879125,"[6.74398297e-07 1.90810149e-08 0.00000000e+00 0.00000000e+00
 0.00000000e+00 4.75291299e-08 1.90810149e-08 4.77928716e-07
 0.00000000e+00 0.00000000e+00 0.00000000e+00 4.29922766e-08
 0.00000000e+00 0.00000000e+00 0.00000000e+00 0.00000000e+00
 0.00000000e+00 0.00000000e+00 0.00000000e+00 0.00000000e+00
 0.00000000e+00 0.00000000e+00 0.00000000e+00 0.00000000e+00
 0.00000000e+00 0.00000000e+00 0.00000000e+00 0.00000000e+00
 0.00000000e+00 0.00000000e+00 4.75291299e-08 4.29922766e-08
 0.00000000e+00 0.00000000e+00 0.00000000e+00 1.40783778e-06]","[[-0.00168572 -0.00013879]
 [-0.00012143 -0.00050387]]",[],0.0,0.0
1787133728.451025,0.11087098805625438,-1.235161234458085,0.0954055340605553,"[6.25559995e-07 2.15240082e-08 0.00000000e+00 0.00000000e+00
 0.00000000e+00 3.86947596e-08 2.15240082e-08 4.18235762e-07
 0.00000000e+00 0.00000000e+00 0.00000000e+00 4.15125316e-08
 0.00000000e+00 0.00000000e+00 0.00000000e+00 0.00000000e+00
 0.00000000e+00 0.00000000e+00 0.00000000e+00 0.00000000e+00
 0.00000000e+00 0.00000000e+00 0.00000000e+00 0.00000000e+00
 0.00000000e+00 0.00000000e+00 0.00000000e+00 0.00000000e+00
 0.00000000e+00 0.00000000e+00 3.86947596e-08 4.15125316e-08
 0.00000000e+00 0.00000000e+00 0.00000000e+00 1.33875146e-06]","[[-0.00156446 -0.00011676]
 [-0.00011215 -0.00045394]]",[],0.0,0.0
1787133728.4617972,0.11087098805625438,-1.235161234458085,0.0954055340605553,"[6.25559995e-07 2.15240082e-08 0.00000000e+00 0.00000000e+00
 0.00000000e+00 3.86947596e-08 2.15240082e-08 4.18235762e-07
 0.00000000e+00 0.00000000e+00 0.00000000e+00 4.15125316e-08
 0.00000000e+00 0.00000000e+00 0.00000000e+00 0.00000000e+00
 0.00000000e+00 0.00000000e+00 0.00000000e+00 0.00000000e+00
 0.00000000e+00 0.00000000e+00 0.00000000e+00 0.00000000e+00
 0.00000000e+00 0.00000000e+00 0.00000000e+00 0.00000000e+00
 0.00000000e+00 0.00000000e+00 3.86947596e-08 4.15125316e-08
 0.00000000e+00 0.00000000e+00 0.00000000e+00 1.33875146e-06]","[[-0.00156446 -0.00011676]
 [-0.00011215 -0.00045394]]",[],0.0,0.0
1787133728.9439926,0.11049606277216772,-1.2331752117694674,0.09997704061114779,"[5.98475403e-07 2.33458150e-08 0.00000000e+00 0.00000000e+00
 0.00000000e+00 3.95972595e-08 2.33458150e-08 3.72699687e-07
 0.00000000e+00 0.00000000e+00 0.00000000e+00 3.35436202e-08
 0.00000000e+00 0.00000000e+00 0.00000000e+00 0.00000000e+00
 0.00000000e+00 0.00000000e+00 0.00000000e+00 0.00000000e+00
 0.00000000e+00 0.00000000e+00 0.00000000e+00 0.00000000e+00
 0.00000000e+00 0.00000000e+00 0.00000000e+00 0.00000000e+00
 0.00000000e+00 0.00000000e+00 3.95972595e-08 3.35436202e-08
 0.00000000e+00 0.00000000e+00 0.00000000e+00 1.36100153e-06]","[[-0.00149683 -0.00011818]
 [-0.00011852 -0.00039389]]",[],0.0,0.0
1787133728.9704068,0.11049606277216772,-1.2331752117694674,0.09997704061114779,"[5.98475403e-07 2.33458150e-08 0.00000000e+00 0.00000000e+00
 0.00000000e+00 3.95972595e-08 2.33458150e-08 3.72699687e-07
 0.00000000e+00 0.00000000e+00 0.00000000e+00 3.35436202e-08
 0.00000000e+00 0.00000000e+00 0.00000000e+00 0.00000000e+00
 0.00000000e+00 0.00000000e+00 0.00000000e+00 0.00000000e+00
 0.00000000e+00 0.00000000e+00 0.00000000e+00 0.00000000e+00
 0.00000000e+00 0.00000000e+00 0.00000000e+00 0.00000000e+00
 0.00000000e+00 0.00000000e+00 3.95972595e-08 3.35436202e-08
 0.00000000e+00 0.00000000e+00 0.00000000e+00 1.36100153e-06]","[[-0.00149683 -0.00011818]
 [-0.00011852 -0.00039389]]",[],0.0,0.0
1787133729.0092435,0.11017451537940845,-1.2318281536674665,0.09709812753126501,"[5.69445455e-07 2.39642412e-08 0.00000000e+00 0.00000000e+00
 0.00000000e+00 3.67146356e-08 2.39642412e-08 3.35347366e-07
 0.00000000e+00 0.00000000e+00 0.00000000e+00 3.09735602e-08
 0.00000000e+00 0.00000000e+00 0.00000000e+00 0.00000000e+00
 0.00000000e+00 0.00000000e+00 0.00000000e+00 0.00000000e+00
 0.00000000e+00 0.00000000e+00 0.00000000e+00 0.00000000e+00
 0.00000000e+00 0.00000000e+00 0.00000000e+00 0.00000000e+00
 0.00000000e+00 0.00000000e+00 3.67146356e-08 3.09735602e-08
 0.00000000e+00 0.00000000e+00 0.00000000e+00 1.31415548e-06]","[[-0.00142395 -0.00010477]
 [-0.00012514 -0.0003568 ]]",[],0.0,0.0
1787133729.0586605,0.11017451537940845,-1.2318281536674665,0.09709812753126501,"[5.69445455e-07 2.39642412e-08 0.00000000e+00 0.00000000e+00
 0.00000000e+00 3.67146356e-08 2.39642412e-08 3.35347366e-07
 0.00000000e+00 0.00000000e+00 0.00000000e+00 3.09735602e-08
 0.00000000e+00 0.00000000e+00 0.00000000e+00 0.00000000e+00
 0.00000000e+00 0.00000000e+00 0.00000000e+00 0.00000000e+00
 0.00000000e+00 0.00000000e+00 0.00000000e+00 0.00000000e+00
 0.00000000e+00 0.00000000e+00 0.00000000e+00 0.00000000e+00
 0.00000000e+00 0.00000000e+00 3.67146356e-08 3.09735602e-08
 0.00000000e+00 0.00000000e+00 0.00000000e+00 1.31415548e-06]","[[-0.00142395 -0.00010477]
 [-0.00012514 -0.0003568 ]]",[],0.0,0.0
1787133729.1089702,0.11017451537940845,-1.2318281536674665,0.09709812753126501,"[5.69445455e-07 2.39642412e-08 0.00000000e+00 0.00000000e+00
 0.00000000e+00 3.67146356e-08 2.39642412e-08 3.35347366e-07
 0.00000000e+00 0.00000000e+00 0.00000000e+00 3.09735602e-08
 0.00000000e+00 0.00000000e+00 0.00000000e+00 0.00000000e+00
 0.00000000e+00 0.00000000e+00 0.00000000e+00 0.00000000e+00
 0.00000000e+00 0.00000000e+00 0.00000000e+00 0.00000000e+00
 0.00000000e+00 0.00000000e+00 0.00000000e+00 0.00000000e+00
 0.00000000e+00 0.00000000e+00 3.67146356e-08 3.09735602e-08
 0.00000000e+00 0.00000000e+00 0.00000000e+00 1.31415548e-06]","[[-0.00142395 -0.00010477]
 [-0.00012514 -0.0003568 ]]",[],0.0,0.0
1787133729.1649425,0.11017451537940845,-1.2318281536674665,0.09709812753126501,"[5.69445455e-07 2.39642412e-08 0.00000000e+00 0.00000000e+00
 0.00000000e+00 3.67146356e-08 2.39642412e-08 3.35347366e-07
 0.00000000e+00 0.00000000e+00 0.00000000e+00 3.09735602e-08
 0.00000000e+00 0.00000000e+00 0.00000000e+00 0.00000000e+00
 0.00000000e+00 0.00000000e+00 0.00000000e+00 0.00000000e+00
 0.00000000e+00 0.00000000e+00 0.00000000e+00 0.00000000e+00
 0.00000000e+00 0.00000000e+00 0.00000000e+00 0.00000000e+00
 0.00000000e+00 0.00000000e+00 3.67146356e-08 3.09735602e-08
 0.00000000e+00 0.00000000e+00 0.00000000e+00 1.31415548e-06]","[[-0.00142395 -0.00010477]
 [-0.00012514 -0.0003568 ]]",[],0.0,0.0
1787133729.2444263,0.11017451537940845,-1.2318281536674665,0.09709812753126501,"[5.69445455e-07 2.39642412e-08 0.00000000e+00 0.00000000e+00
 0.00000000e+00 3.67146356e-08 2.39642412e-08 3.35347366e-07
 0.00000000e+00 0.00000000e+00 0.00000000e+00 3.09735602e-08
 0.00000000e+00 0.00000000e+00 0.00000000e+00 0.00000000e+00
 0.00000000e+00 0.00000000e+00 0.00000000e+00 0.00000000e+00
 0.00000000e+00 0.00000000e+00 0.00000000e+00 0.00000000e+00
 0.00000000e+00 0.00000000e+00 0.00000000e+00 0.00000000e+00
 0.00000000e+00 0.00000000e+00 3.67146356e-08 3.09735602e-08
 0.00000000e+00 0.00000000e+00 0.00000000e+00 1.31415548e-06]","[[-0.00142395 -0.00010477]
 [-0.00012514 -0.0003568 ]]",[],0.0,0.0
1787133729.2626657,0.11017451537940845,-1.2318281536674665,0.09709812753126501,"[5.69445455e-07 2.39642412e-08 0.00000000e+00 0.00000000e+00
 0.00000000e+00 3.67146356e-08 2.39642412e-08 3.35347366e-07
 0.00000000e+00 0.00000000e+00 0.00000000e+00 3.09735602e-08
 0.00000000e+00 0.00000000e+00 0.00000000e+00 0.00000000e+00
 0.00000000e+00 0.00000000e+00 0.00000000e+00 0.00000000e+00
 0.00000000e+00 0.00000000e+00 0.00000000e+00 0.00000000e+00
 0.00000000e+00 0.00000000e+00 0.00000000e+00 0.00000000e+00
 0.00000000e+00 0.00000000e+00 3.67146356e-08 3.09735602e-08
 0.00000000e+00 0.00000000e+00 0.00000000e+00 1.31415548e-06]","[[-0.00142395 -0.00010477]
 [-0.00012514 -0.0003568 ]]",[],0.0,0.0
1787133729.3097534,0.11017451537940845,-1.2318281536674665,0.09709812753126501,"[5.69445455e-07 2.39642412e-08 0.00000000e+00 0.00000000e+00
 0.00000000e+00 3.67146356e-08 2.39642412e-08 3.35347366e-07
 0.00000000e+00 0.00000000e+00 0.00000000e+00 3.09735602e-08
 0.00000000e+00 0.00000000e+00 0.00000000e+00 0.00000000e+00
 0.00000000e+00 0.00000000e+00 0.00000000e+00 0.00000000e+00
 0.00000000e+00 0.00000000e+00 0.00000000e+00 0.00000000e+00
 0.00000000e+00 0.00000000e+00 0.00000000e+00 0.00000000e+00
 0.00000000e+00 0.00000000e+00 3.67146356e-08 3.09735602e-08
 0.00000000e+00 0.00000000e+00 0.00000000e+00 1.31415548e-06]","[[-0.00142395 -0.00010477]
 [-0.00012514 -0.0003568 ]]",[],0.0,0.0
1787133729.359214,0.11017451537940845,-1.2318281536674665,0.09709812753126501,"[5.69445455e-07 2.39642412e-08 0.00000000e+00 0.00000000e+00
 0.00000000e+00 3.67146356e-08 2.39642412e-08 3.35347366e-07
 0.00000000e+00 0.00000000e+00 0.00000000e+00 3.09735602e-08
 0.00000000e+00 0.00000000e+00 0.00000000e+00 0.00000000e+00
 0.00000000e+00 0.00000000e+00 0.00000000e+00 0.00000000e+00
 0.00000000e+00 0.00000000e+00 0.00000000e+00 0.00000000e+00
 0.00000000e+00 0.00000000e+00 0.00000000e+00 0.00000000e+00
 0.00000000e+00 0.00000000e+00 3.67146356e-08 3.09735602e-08
 0.00000000e+00 0.00000000e+00 0.00000000e+00 1.31415548e-06]","[[-0.00142395 -0.00010477]
 [-0.00012514 -0.0003568 ]]",[],0.0,0.0
1787133729.4108377,0.11017451537940845,-1.2318281536674665,0.09709812753126501,"[5.69445455e-07 2.39642412e-08 0.00000000e+00 0.00000000e+00
 0.00000000e+00 3.67146356e-08 2.39642412e-08 3.35347366e-07
 0.00000000e+00 0.00000000e+00 0.00000000e+00 3.09735602e-08
 0.00000000e+00 0.00000000e+00 0.00000000e+00 0.00000000e+00
 0.00000000e+00 0.00000000e+00 0.00000000e+00 0.00000000e+00
 0.00000000e+00 0.00000000e+00 0.00000000e+00 0.00000000e+00
 0.00000000e+00 0.00000000e+00 0.00000000e+00 0.00000000e+00
 0.00000000e+00 0.00000000e+00 3.67146356e-08 3.09735602e-08
 0.00000000e+00 0.00000000e+00 0.00000000e+00 1.31415548e-06]","[[-0.00142395 -0.00010477]
 [-0.00012514 -0.0003568 ]]",[],0.0,0.0
1787133729.4587183,0.11017451537940845,-1.2318281536674665,0.09709812753126501,"[5.69445455e-07 2.39642412e-08 0.00000000e+00 0.00000000e+00
 0.00000000e+00 3.67146356e-08 2.39642412e-08 3.35347366e-07
 0.00000000e+00 0.00000000e+00 0.00000000e+00 3.09735602e-08
 0.00000000e+00 0.00000000e+00 0.00000000e+00 0.00000000e+00
 0.00000000e+00 0.00000000e+00 0.00000000e+00 0.00000000e+00
 0.00000000e+00 0.00000000e+00 0.00000000e+00 0.00000000e+00
 0.00000000e+00 0.00000000e+00 0.00000000e+00 0.00000000e+00
 0.00000000e+00 0.00000000e+00 3.67146356e-08 3.09735602e-08
 0.00000000e+00 0.00000000e+00 0.00000000e+00 1.31415548e-06]","[[-0.00142395 -0.00010477]
 [-0.00012514 -0.0003568 ]]",[],0.0,0.0
1787133729.5090399,0.11017451537940845,-1.2318281536674665,0.09709812753126501,"[5.69445455e-07 2.39642412e-08 0.00000000e+00 0.00000000e+00
 0.00000000e+00 3.67146356e-08 2.39642412e-08 3.35347366e-07
 0.00000000e+00 0.00000000e+00 0.00000000e+00 3.09735602e-08
 0.00000000e+00 0.00000000e+00 0.00000000e+00 0.00000000e+00
 0.00000000e+00 0.00000000e+00 0.00000000e+00 0.00000000e+00
 0.00000000e+00 0.00000000e+00 0.00000000e+00 0.00000000e+00
 0.00000000e+00 0.00000000e+00 0.00000000e+00 0.00000000e+00
 0.00000000e+00 0.00000000e+00 3.67146356e-08 3.09735602e-08
 0.00000000e+00 0.00000000e+00 0.00000000e+00 1.31415548e-06]","[[-0.00142395 -0.00010477]
 [-0.00012514 -0.0003568 ]]",[],0.0,0.0
1787133729.5637739,0.11017451537940845,-1.2318281536674665,0.09709812753126501,"[5.69445455e-07 2.39642412e-08 0.00000000e+00 0.00000000e+00
 0.00000000e+00 3.67146356e-08 2.39642412e-08 3.35347366e-07
 0.00000000e+00 0.00000000e+00 0.00000000e+00 3.09735602e-08
 0.00000000e+00 0.00000000e+00 0.00000000e+00 0.00000000e+00
 0.00000000e+00 0.00000000e+00 0.00000000e+00 0.00000000e+00
 0.00000000e+00 0.00000000e+00 0.00000000e+00 0.00000000e+00
 0.00000000e+00 0.00000000e+00 0.00000000e+00 0.00000000e+00
 0.00000000e+00 0.00000000e+00 3.67146356e-08 3.09735602e-08
 0.00000000e+00 0.00000000e+00 0.00000000e+00 1.31415548e-06]","[[-0.00142395 -0.00010477]
 [-0.00012514 -0.0003568 ]]",[],0.0,0.0
1787133729.609421,0.11017451537940845,-1.2318281536674665,0.09709812753126501,"[5.69445455e-07 2.39642412e-08 0.00000000e+00 0.00000000e+00
 0.00000000e+00 3.67146356e-08 2.39642412e-08 3.35347366e-07
 0.00000000e+00 0.00000000e+00 0.00000000e+00 3.09735602e-08
 0.00000000e+00 0.00000000e+00 0.00000000e+00 0.00000000e+00
 0.00000000e+00 0.00000000e+00 0.00000000e+00 0.00000000e+00
 0.00000000e+00 0.00000000e+00 0.00000000e+00 0.00000000e+00
 0.00000000e+00 0.00000000e+00 0.00000000e+00 0.00000000e+00
 0.00000000e+00 0.00000000e+00 3.67146356e-08 3.09735602e-08
 0.00000000e+00 0.00000000e+00 0.00000000e+00 1.31415548e-06]","[[-0.00142395 -0.00010477]
 [-0.00012514 -0.0003568 ]]",[],0.0,0.0
1787133729.6591902,0.11005254596883177,-1.2304551687277159,0.09561333861527731,"[6.08300780e-07 3.11562005e-08 0.00000000e+00 0.00000000e+00
 0.00000000e+00 4.23538863e-08 3.11562005e-08 3.05690009e-07
 0.00000000e+00 0.00000000e+00 0.00000000e+00 3.49388727e-08
 0.00000000e+00 0.00000000e+00 0.00000000e+00 0.00000000e+00
 0.00000000e+00 0.00000000e+00 0.00000000e+00 0.00000000e+00
 0.00000000e+00 0.00000000e+00 0.00000000e+00 0.00000000e+00
 0.00000000e+00 0.00000000e+00 0.00000000e+00 0.00000000e+00
 0.00000000e+00 0.00000000e+00 4.23538863e-08 3.49388727e-08
 0.00000000e+00 0.00000000e+00 0.00000000e+00 1.43686718e-06]","[[-0.00152234 -0.00012828]
 [-0.00013444 -0.0003455 ]]",[],0.0,0.0
1787133729.7198412,0.11005254596883177,-1.2304551687277159,0.09561333861527731,"[6.08300780e-07 3.11562005e-08 0.00000000e+00 0.00000000e+00
 0.00000000e+00 4.23538863e-08 3.11562005e-08 3.05690009e-07
 0.00000000e+00 0.00000000e+00 0.00000000e+00 3.49388727e-08
 0.00000000e+00 0.00000000e+00 0.00000000e+00 0.00000000e+00
 0.00000000e+00 0.00000000e+00 0.00000000e+00 0.00000000e+00
 0.00000000e+00 0.00000000e+00 0.00000000e+00 0.00000000e+00
 0.00000000e+00 0.00000000e+00 0.00000000e+00 0.00000000e+00
 0.00000000e+00 0.00000000e+00 4.23538863e-08 3.49388727e-08
 0.00000000e+00 0.00000000e+00 0.00000000e+00 1.43686718e-06]","[[-0.00152234 -0.00012828]
 [-0.00013444 -0.0003455 ]]",[],0.0,0.0
1787133729.7595475,0.11005254596883177,-1.2304551687277159,0.09561333861527731,"[6.08300780e-07 3.11562005e-08 0.00000000e+00 0.00000000e+00
 0.00000000e+00 4.23538863e-08 3.11562005e-08 3.05690009e-07
 0.00000000e+00 0.00000000e+00 0.00000000e+00 3.49388727e-08
 0.00000000e+00 0.00000000e+00 0.00000000e+00 0.00000000e+00
 0.00000000e+00 0.00000000e+00 0.00000000e+00 0.00000000e+00
 0.00000000e+00 0.00000000e+00 0.00000000e+00 0.00000000e+00
 0.00000000e+00 0.00000000e+00 0.00000000e+00 0.00000000e+00
 0.00000000e+00 0.00000000e+00 4.23538863e-08 3.49388727e-08
 0.00000000e+00 0.00000000e+00 0.00000000e+00 1.43686718e-06]","[[-0.00152234 -0.00012828]
 [-0.00013444 -0.0003455 ]]",[],0.0,0.0
1787133729.8088217,0.11005254596883177,-1.2304551687277159,0.09561333861527731,"[6.08300780e-07 3.11562005e-08 0.00000000e+00 0.00000000e+00
 0.00000000e+00 4.23538863e-08 3.11562005e-08 3.05690009e-07
 0.00000000e+00 0.00000000e+00 0.00000000e+00 3.49388727e-08
 0.00000000e+00 0.00000000e+00 0.00000000e+00 0.00000000e+00
 0.00000000e+00 0.00000000e+00 0.00000000e+00 0.00000000e+00
 0.00000000e+00 0.00000000e+00 0.00000000e+00 0.00000000e+00
 0.00000000e+00 0.00000000e+00 0.00000000e+00 0.00000000e+00
 0.00000000e+00 0.00000000e+00 4.23538863e-08 3.49388727e-08
 0.00000000e+00 0.00000000e+00 0.00000000e+00 1.43686718e-06]","[[-0.00152234 -0.00012828]
 [-0.00013444 -0.0003455 ]]",[],0.0,0.0
1787133729.8923433,0.11005254596883177,-1.2304551687277159,0.09561333861527731,"[6.08300780e-07 3.11562005e-08 0.00000000e+00 0.00000000e+00
 0.00000000e+00 4.23538863e-08 3.11562005e-08 3.05690009e-07
 0.00000000e+00 0.00000000e+00 0.00000000e+00 3.49388727e-08
 0.00000000e+00 0.00000000e+00 0.00000000e+00 0.00000000e+00
 0.00000000e+00 0.00000000e+00 0.00000000e+00 0.00000000e+00
 0.00000000e+00 0.00000000e+00 0.00000000e+00 0.00000000e+00
 0.00000000e+00 0.00000000e+00 0.00000000e+00 0.00000000e+00
 0.00000000e+00 0.00000000e+00 4.23538863e-08 3.49388727e-08
 0.00000000e+00 0.00000000e+00 0.00000000e+00 1.43686718e-06]","[[-0.00152234 -0.00012828]
 [-0.00013444 -0.0003455 ]]",[],0.0,0.0
1787133729.913803,0.11005254596883177,-1.2304551687277159,0.09561333861527731,"[6.08300780e-07 3.11562005e-08 0.00000000e+00 0.00000000e+00
 0.00000000e+00 4.23538863e-08 3.11562005e-08 3.05690009e-07
 0.00000000e+00 0.00000000e+00 0.00000000e+00 3.49388727e-08
 0.00000000e+00 0.00000000e+00 0.00000000e+00 0.00000000e+00
 0.00000000e+00 0.00000000e+00 0.00000000e+00 0.00000000e+00
 0.00000000e+00 0.00000000e+00 0.00000000e+00 0.00000000e+00
 0.00000000e+00 0.00000000e+00 0.00000000e+00 0.00000000e+00
 0.00000000e+00 0.00000000e+00 4.23538863e-08 3.49388727e-08
 0.00000000e+00 0.00000000e+00 0.00000000e+00 1.43686718e-06]","[[-0.00152234 -0.00012828]
 [-0.00013444 -0.0003455 ]]",[],0.0,0.0
1787133729.9608371,0.11005254596883177,-1.2304551687277159,0.09561333861527731,"[6.08300780e-07 3.11562005e-08 0.00000000e+00 0.00000000e+00
 0.00000000e+00 4.23538863e-08 3.11562005e-08 3.05690009e-07
 0.00000000e+00 0.00000000e+00 0.00000000e+00 3.49388727e-08
 0.00000000e+00 0.00000000e+00 0.00000000e+00 0.00000000e+00
 0.00000000e+00 0.00000000e+00 0.00000000e+00 0.00000000e+00
 0.00000000e+00 0.00000000e+00 0.00000000e+00 0.00000000e+00
 0.00000000e+00 0.00000000e+00 0.00000000e+00 0.00000000e+00
 0.00000000e+00 0.00000000e+00 4.23538863e-08 3.49388727e-08
 0.00000000e+00 0.00000000e+00 0.00000000e+00 1.43686718e-06]","[[-0.00152234 -0.00012828]
 [-0.00013444 -0.0003455 ]]",[],0.0,0.0
1787133730.019691,0.11005254596883177,-1.2304551687277159,0.09561333861527731,"[6.08300780e-07 3.11562005e-08 0.00000000e+00 0.00000000e+00
 0.00000000e+00 4.23538863e-08 3.11562005e-08 3.05690009e-07
 0.00000000e+00 0.00000000e+00 0.00000000e+00 3.49388727e-08
 0.00000000e+00 0.00000000e+00 0.00000000e+00 0.00000000e+00
 0.00000000e+00 0.00000000e+00 0.00000000e+00 0.00000000e+00
 0.00000000e+00 0.00000000e+00 0.00000000e+00 0.00000000e+00
 0.00000000e+00 0.00000000e+00 0.00000000e+00 0.00000000e+00
 0.00000000e+00 0.00000000e+00 4.23538863e-08 3.49388727e-08
 0.00000000e+00 0.00000000e+00 0.00000000e+00 1.43686718e-06]","[[-0.00152234 -0.00012828]
 [-0.00013444 -0.0003455 ]]",[],0.0,0.0
1787133730.0596945,0.11005254596883177,-1.2304551687277159,0.09561333861527731,"[6.08300780e-07 3.11562005e-08 0.00000000e+00 0.00000000e+00
 0.00000000e+00 4.23538863e-08 3.11562005e-08 3.05690009e-07
 0.00000000e+00 0.00000000e+00 0.00000000e+00 3.49388727e-08
 0.00000000e+00 0.00000000e+00 0.00000000e+00 0.00000000e+00
 0.00000000e+00 0.00000000e+00 0.00000000e+00 0.00000000e+00
 0.00000000e+00 0.00000000e+00 0.00000000e+00 0.00000000e+00
 0.00000000e+00 0.00000000e+00 0.00000000e+00 0.00000000e+00
 0.00000000e+00 0.00000000e+00 4.23538863e-08 3.49388727e-08
 0.00000000e+00 0.00000000e+00 0.00000000e+00 1.43686718e-06]","[[-0.00152234 -0.00012828]
 [-0.00013444 -0.0003455 ]]",[],0.0,0.0
1787133730.1099443,0.11005254596883177,-1.2304551687277159,0.09561333861527731,"[6.08300780e-07 3.11562005e-08 0.00000000e+00 0.00000000e+00
 0.00000000e+00 4.23538863e-08 3.11562005e-08 3.05690009e-07
 0.00000000e+00 0.00000000e+00 0.00000000e+00 3.49388727e-08
 0.00000000e+00 0.00000000e+00 0.00000000e+00 0.00000000e+00
 0.00000000e+00 0.00000000e+00 0.00000000e+00 0.00000000e+00
 0.00000000e+00 0.00000000e+00 0.00000000e+00 0.00000000e+00
 0.00000000e+00 0.00000000e+00 0.00000000e+00 0.00000000e+00
 0.00000000e+00 0.00000000e+00 4.23538863e-08 3.49388727e-08
 0.00000000e+00 0.00000000e+00 0.00000000e+00 1.43686718e-06]","[[-0.00152234 -0.00012828]
 [-0.00013444 -0.0003455 ]]",[],0.0,0.0
1787133730.176981,0.11005254596883177,-1.2304551687277159,0.09561333861527731,"[6.08300780e-07 3.11562005e-08 0.00000000e+00 0.00000000e+00
 0.00000000e+00 4.23538863e-08 3.11562005e-08 3.05690009e-07
 0.00000000e+00 0.00000000e+00 0.00000000e+00 3.49388727e-08
 0.00000000e+00 0.00000000e+00 0.00000000e+00 0.00000000e+00
 0.00000000e+00 0.00000000e+00 0.00000000e+00 0.00000000e+00
 0.00000000e+00 0.00000000e+00 0.00000000e+00 0.00000000e+00
 0.00000000e+00 0.00000000e+00 0.00000000e+00 0.00000000e+00
 0.00000000e+00 0.00000000e+00 4.23538863e-08 3.49388727e-08
 0.00000000e+00 0.00000000e+00 0.00000000e+00 1.43686718e-06]","[[-0.00152234 -0.00012828]
 [-0.00013444 -0.0003455 ]]",[],0.0,0.0
1787133730.2154284,0.11005254596883177,-1.2304551687277159,0.09561333861527731,"[6.08300780e-07 3.11562005e-08 0.00000000e+00 0.00000000e+00
 0.00000000e+00 4.23538863e-08 3.11562005e-08 3.05690009e-07
 0.00000000e+00 0.00000000e+00 0.00000000e+00 3.49388727e-08
 0.00000000e+00 0.00000000e+00 0.00000000e+00 0.00000000e+00
 0.00000000e+00 0.00000000e+00 0.00000000e+00 0.00000000e+00
 0.00000000e+00 0.00000000e+00 0.00000000e+00 0.00000000e+00
 0.00000000e+00 0.00000000e+00 0.00000000e+00 0.00000000e+00
 0.00000000e+00 0.00000000e+00 4.23538863e-08 3.49388727e-08
 0.00000000e+00 0.00000000e+00 0.00000000e+00 1.43686718e-06]","[[-0.00152234 -0.00012828]
 [-0.00013444 -0.0003455 ]]",[],0.0,0.0
1787133730.2683442,0.11014076182995636,-1.2290188562131956,0.09498134916178372,"[6.00145972e-07 3.20900246e-08 0.00000000e+00 0.00000000e+00
 0.00000000e+00 4.49932961e-08 3.20900246e-08 2.80124176e-07
 0.00000000e+00 0.00000000e+00 0.00000000e+00 2.81058589e-08
 0.00000000e+00 0.00000000e+00 0.00000000e+00 0.00000000e+00
 0.00000000e+00 0.00000000e+00 0.00000000e+00 0.00000000e+00
 0.00000000e+00 0.00000000e+00 0.00000000e+00 0.00000000e+00
 0.00000000e+00 0.00000000e+00 0.00000000e+00 0.00000000e+00
 0.00000000e+00 0.00000000e+00 4.49932961e-08 2.81058589e-08
 0.00000000e+00 0.00000000e+00 0.00000000e+00 1.36767822e-06]","[[-0.00150244 -0.00014325]
 [-0.00012428 -0.00030358]]",[],0.0,0.0
1787133730.3092582,0.11014076182995636,-1.2290188562131956,0.09498134916178372,"[6.00145972e-07 3.20900246e-08 0.00000000e+00 0.00000000e+00
 0.00000000e+00 4.49932961e-08 3.20900246e-08 2.80124176e-07
 0.00000000e+00 0.00000000e+00 0.00000000e+00 2.81058589e-08
 0.00000000e+00 0.00000000e+00 0.00000000e+00 0.00000000e+00
 0.00000000e+00 0.00000000e+00 0.00000000e+00 0.00000000e+00
 0.00000000e+00 0.00000000e+00 0.00000000e+00 0.00000000e+00
 0.00000000e+00 0.00000000e+00 0.00000000e+00 0.00000000e+00
 0.00000000e+00 0.00000000e+00 4.49932961e-08 2.81058589e-08
 0.00000000e+00 0.00000000e+00 0.00000000e+00 1.36767822e-06]","[[-0.00150244 -0.00014325]
 [-0.00012428 -0.00030358]]",[],0.0,0.0
1787133730.392512,0.11014076182995636,-1.2290188562131956,0.09498134916178372,"[6.00145972e-07 3.20900246e-08 0.00000000e+00 0.00000000e+00
 0.00000000e+00 4.49932961e-08 3.20900246e-08 2.80124176e-07
 0.00000000e+00 0.00000000e+00 0.00000000e+00 2.81058589e-08
 0.00000000e+00 0.00000000e+00 0.00000000e+00 0.00000000e+00
 0.00000000e+00 0.00000000e+00 0.00000000e+00 0.00000000e+00
 0.00000000e+00 0.00000000e+00 0.00000000e+00 0.00000000e+00
 0.00000000e+00 0.00000000e+00 0.00000000e+00 0.00000000e+00
 0.00000000e+00 0.00000000e+00 4.49932961e-08 2.81058589e-08
 0.00000000e+00 0.00000000e+00 0.00000000e+00 1.36767822e-06]","[[-0.00150244 -0.00014325]
 [-0.00012428 -0.00030358]]",[],0.0,0.0
1787133730.415149,0.11014076182995636,-1.2290188562131956,0.09498134916178372,"[6.00145972e-07 3.20900246e-08 0.00000000e+00 0.00000000e+00
 0.00000000e+00 4.49932961e-08 3.20900246e-08 2.80124176e-07
 0.00000000e+00 0.00000000e+00 0.00000000e+00 2.81058589e-08
 0.00000000e+00 0.00000000e+00 0.00000000e+00 0.00000000e+00
 0.00000000e+00 0.00000000e+00 0.00000000e+00 0.00000000e+00
 0.00000000e+00 0.00000000e+00 0.00000000e+00 0.00000000e+00
 0.00000000e+00 0.00000000e+00 0.00000000e+00 0.00000000e+00
 0.00000000e+00 0.00000000e+00 4.49932961e-08 2.81058589e-08
 0.00000000e+00 0.00000000e+00 0.00000000e+00 1.36767822e-06]","[[-0.00150244 -0.00014325]
 [-0.00012428 -0.00030358]]",[],0.0,0.0
1787133730.5065625,0.11014076182995636,-1.2290188562131956,0.09498134916178372,"[6.00145972e-07 3.20900246e-08 0.00000000e+00 0.00000000e+00
 0.00000000e+00 4.49932961e-08 3.20900246e-08 2.80124176e-07
 0.00000000e+00 0.00000000e+00 0.00000000e+00 2.81058589e-08
 0.00000000e+00 0.00000000e+00 0.00000000e+00 0.00000000e+00
 0.00000000e+00 0.00000000e+00 0.00000000e+00 0.00000000e+00
 0.00000000e+00 0.00000000e+00 0.00000000e+00 0.00000000e+00
 0.00000000e+00 0.00000000e+00 0.00000000e+00 0.00000000e+00
 0.00000000e+00 0.00000000e+00 4.49932961e-08 2.81058589e-08
 0.00000000e+00 0.00000000e+00 0.00000000e+00 1.36767822e-06]","[[-0.00150244 -0.00014325]
 [-0.00012428 -0.00030358]]",[],0.0,0.0
1787133730.54532,0.11014076182995636,-1.2290188562131956,0.09498134916178372,"[6.00145972e-07 3.20900246e-08 0.00000000e+00 0.00000000e+00
 0.00000000e+00 4.49932961e-08 3.20900246e-08 2.80124176e-07
 0.00000000e+00 0.00000000e+00 0.00000000e+00 2.81058589e-08
 0.00000000e+00 0.00000000e+00 0.00000000e+00 0.00000000e+00
 0.00000000e+00 0.00000000e+00 0.00000000e+00 0.00000000e+00
 0.00000000e+00 0.00000000e+00 0.00000000e+00 0.00000000e+00
 0.00000000e+00 0.00000000e+00 0.00000000e+00 0.00000000e+00
 0.00000000e+00 0.00000000e+00 4.49932961e-08 2.81058589e-08
 0.00000000e+00 0.00000000e+00 0.00000000e+00 1.36767822e-06]","[[-0.00150244 -0.00014325]
 [-0.00012428 -0.00030358]]",[],0.0,0.0
1787133730.574598,0.11014076182995636,-1.2290188562131956,0.09498134916178372,"[6.00145972e-07 3.20900246e-08 0.00000000e+00 0.00000000e+00
 0.00000000e+00 4.49932961e-08 3.20900246e-08 2.80124176e-07
 0.00000000e+00 0.00000000e+00 0.00000000e+00 2.81058589e-08
 0.00000000e+00 0.00000000e+00 0.00000000e+00 0.00000000e+00
 0.00000000e+00 0.00000000e+00 0.00000000e+00 0.00000000e+00
 0.00000000e+00 0.00000000e+00 0.00000000e+00 0.00000000e+00
 0.00000000e+00 0.00000000e+00 0.00000000e+00 0.00000000e+00
 0.00000000e+00 0.00000000e+00 4.49932961e-08 2.81058589e-08
 0.00000000e+00 0.00000000e+00 0.00000000e+00 1.36767822e-06]","[[-0.00150244 -0.00014325]
 [-0.00012428 -0.00030358]]",[],0.0,0.0
1787133730.6097512,0.11014076182995636,-1.2290188562131956,0.09498134916178372,"[6.00145972e-07 3.20900246e-08 0.00000000e+00 0.00000000e+00
 0.00000000e+00 4.49932961e-08 3.20900246e-08 2.80124176e-07
 0.00000000e+00 0.00000000e+00 0.00000000e+00 2.81058589e-08
 0.00000000e+00 0.00000000e+00 0.00000000e+00 0.00000000e+00
 0.00000000e+00 0.00000000e+00 0.00000000e+00 0.00000000e+00
 0.00000000e+00 0.00000000e+00 0.00000000e+00 0.00000000e+00
 0.00000000e+00 0.00000000e+00 0.00000000e+00 0.00000000e+00
 0.00000000e+00 0.00000000e+00 4.49932961e-08 2.81058589e-08
 0.00000000e+00 0.00000000e+00 0.00000000e+00 1.36767822e-06]","[[-0.00150244 -0.00014325]
 [-0.00012428 -0.00030358]]",[],0.0,0.0
1787133730.660472,0.11014076182995636,-1.2290188562131956,0.09498134916178372,"[6.00145972e-07 3.20900246e-08 0.00000000e+00 0.00000000e+00
 0.00000000e+00 4.49932961e-08 3.20900246e-08 2.80124176e-07
 0.00000000e+00 0.00000000e+00 0.00000000e+00 2.81058589e-08
 0.00000000e+00 0.00000000e+00 0.00000000e+00 0.00000000e+00
 0.00000000e+00 0.00000000e+00 0.00000000e+00 0.00000000e+00
 0.00000000e+00 0.00000000e+00 0.00000000e+00 0.00000000e+00
 0.00000000e+00 0.00000000e+00 0.00000000e+00 0.00000000e+00
 0.00000000e+00 0.00000000e+00 4.49932961e-08 2.81058589e-08
 0.00000000e+00 0.00000000e+00 0.00000000e+00 1.36767822e-06]","[[-0.00150244 -0.00014325]
 [-0.00012428 -0.00030358]]",[],0.0,0.0
1787133730.709132,0.11014076182995636,-1.2290188562131956,0.09498134916178372,"[6.00145972e-07 3.20900246e-08 0.00000000e+00 0.00000000e+00
 0.00000000e+00 4.49932961e-08 3.20900246e-08 2.80124176e-07
 0.00000000e+00 0.00000000e+00 0.00000000e+00 2.81058589e-08
 0.00000000e+00 0.00000000e+00 0.00000000e+00 0.00000000e+00
 0.00000000e+00 0.00000000e+00 0.00000000e+00 0.00000000e+00
 0.00000000e+00 0.00000000e+00 0.00000000e+00 0.00000000e+00
 0.00000000e+00 0.00000000e+00 0.00000000e+00 0.00000000e+00
 0.00000000e+00 0.00000000e+00 4.49932961e-08 2.81058589e-08
 0.00000000e+00 0.00000000e+00 0.00000000e+00 1.36767822e-06]","[[-0.00150244 -0.00014325]
 [-0.00012428 -0.00030358]]",[],0.0,0.0
1787133730.758753,0.11014076182995636,-1.2290188562131956,0.09498134916178372,"[6.00145972e-07 3.20900246e-08 0.00000000e+00 0.00000000e+00
 0.00000000e+00 4.49932961e-08 3.20900246e-08 2.80124176e-07
 0.00000000e+00 0.00000000e+00 0.00000000e+00 2.81058589e-08
 0.00000000e+00 0.00000000e+00 0.00000000e+00 0.00000000e+00
 0.00000000e+00 0.00000000e+00 0.00000000e+00 0.00000000e+00
 0.00000000e+00 0.00000000e+00 0.00000000e+00 0.00000000e+00
 0.00000000e+00 0.00000000e+00 0.00000000e+00 0.00000000e+00
 0.00000000e+00 0.00000000e+00 4.49932961e-08 2.81058589e-08
 0.00000000e+00 0.00000000e+00 0.00000000e+00 1.36767822e-06]","[[-0.00150244 -0.00014325]
 [-0.00012428 -0.00030358]]",[],0.0,0.0
1787133730.8089669,0.11014076182995636,-1.2290188562131956,0.09498134916178372,"[6.00145972e-07 3.20900246e-08 0.00000000e+00 0.00000000e+00
 0.00000000e+00 4.49932961e-08 3.20900246e-08 2.80124176e-07
 0.00000000e+00 0.00000000e+00 0.00000000e+00 2.81058589e-08
 0.00000000e+00 0.00000000e+00 0.00000000e+00 0.00000000e+00
 0.00000000e+00 0.00000000e+00 0.00000000e+00 0.00000000e+00
 0.00000000e+00 0.00000000e+00 0.00000000e+00 0.00000000e+00
 0.00000000e+00 0.00000000e+00 0.00000000e+00 0.00000000e+00
 0.00000000e+00 0.00000000e+00 4.49932961e-08 2.81058589e-08
 0.00000000e+00 0.00000000e+00 0.00000000e+00 1.36767822e-06]","[[-0.00150244 -0.00014325]
 [-0.00012428 -0.00030358]]",[],0.0,0.0
1787133730.8594038,0.11067817457654776,-1.227974892574652,0.10060563196814522,"[5.99854402e-07 3.46696581e-08 0.00000000e+00 0.00000000e+00
 0.00000000e+00 4.72033722e-08 3.46696581e-08 2.59244347e-07
 0.00000000e+00 0.00000000e+00 0.00000000e+00 2.83106718e-08
 0.00000000e+00 0.00000000e+00 0.00000000e+00 0.00000000e+00
 0.00000000e+00 0.00000000e+00 0.00000000e+00 0.00000000e+00
 0.00000000e+00 0.00000000e+00 0.00000000e+00 0.00000000e+00
 0.00000000e+00 0.00000000e+00 0.00000000e+00 0.00000000e+00
 0.00000000e+00 0.00000000e+00 4.72033722e-08 2.83106718e-08
 0.00000000e+00 0.00000000e+00 0.00000000e+00 1.40422736e-06]","[[-0.00150206 -0.00015044]
 [-0.00013028 -0.00028811]]",[],0.0,0.0
1787133730.9131663,0.11067817457654776,-1.227974892574652,0.10060563196814522,"[5.99854402e-07 3.46696581e-08 0.00000000e+00 0.00000000e+00
 0.00000000e+00 4.72033722e-08 3.46696581e-08 2.59244347e-07
 0.00000000e+00 0.00000000e+00 0.00000000e+00 2.83106718e-08
 0.00000000e+00 0.00000000e+00 0.00000000e+00 0.00000000e+00
 0.00000000e+00 0.00000000e+00 0.00000000e+00 0.00000000e+00
 0.00000000e+00 0.00000000e+00 0.00000000e+00 0.00000000e+00
 0.00000000e+00 0.00000000e+00 0.00000000e+00 0.00000000e+00
 0.00000000e+00 0.00000000e+00 4.72033722e-08 2.83106718e-08
 0.00000000e+00 0.00000000e+00 0.00000000e+00 1.40422736e-06]","[[-0.00150206 -0.00015044]
 [-0.00013028 -0.00028811]]",[],0.0,0.0
1787133731.3281827,0.11067817457654776,-1.227974892574652,0.10060563196814522,"[5.99854402e-07 3.46696581e-08 0.00000000e+00 0.00000000e+00
 0.00000000e+00 4.72033722e-08 3.46696581e-08 2.59244347e-07
 0.00000000e+00 0.00000000e+00 0.00000000e+00 2.83106718e-08
 0.00000000e+00 0.00000000e+00 0.00000000e+00 0.00000000e+00
 0.00000000e+00 0.00000000e+00 0.00000000e+00 0.00000000e+00
 0.00000000e+00 0.00000000e+00 0.00000000e+00 0.00000000e+00
 0.00000000e+00 0.00000000e+00 0.00000000e+00 0.00000000e+00
 0.00000000e+00 0.00000000e+00 4.72033722e-08 2.83106718e-08
 0.00000000e+00 0.00000000e+00 0.00000000e+00 1.40422736e-06]","[[-0.00150206 -0.00015044]
 [-0.00013028 -0.00028811]]",[],0.0,0.0
1787133731.8102376,0.11061153300854748,-1.226473929733316,0.10153297928133131,"[5.80418555e-07 3.55895935e-08 0.00000000e+00 0.00000000e+00
 0.00000000e+00 3.91547763e-08 3.55895935e-08 2.41168693e-07
 0.00000000e+00 0.00000000e+00 0.00000000e+00 2.58465043e-08
 0.00000000e+00 0.00000000e+00 0.00000000e+00 0.00000000e+00
 0.00000000e+00 0.00000000e+00 0.00000000e+00 0.00000000e+00
 0.00000000e+00 0.00000000e+00 0.00000000e+00 0.00000000e+00
 0.00000000e+00 0.00000000e+00 0.00000000e+00 0.00000000e+00
 0.00000000e+00 0.00000000e+00 3.91547763e-08 2.58465043e-08
 0.00000000e+00 0.00000000e+00 0.00000000e+00 1.36429713e-06]","[[-0.00145331 -0.00011726]
 [-0.00014075 -0.00026685]]",[],0.0,0.0
1787133732.340974,0.10996303777638915,-1.225537040519472,0.10070312593794829,"[5.63690648e-07 3.53952965e-08 0.00000000e+00 0.00000000e+00
 0.00000000e+00 4.53677808e-08 3.53952965e-08 2.25897134e-07
 0.00000000e+00 0.00000000e+00 0.00000000e+00 2.28529189e-08
 0.00000000e+00 0.00000000e+00 0.00000000e+00 0.00000000e+00
 0.00000000e+00 0.00000000e+00 0.00000000e+00 0.00000000e+00
 0.00000000e+00 0.00000000e+00 0.00000000e+00 0.00000000e+00
 0.00000000e+00 0.00000000e+00 0.00000000e+00 0.00000000e+00
 0.00000000e+00 0.00000000e+00 4.53677808e-08 2.28529189e-08
 0.00000000e+00 0.00000000e+00 0.00000000e+00 1.39314424e-06]","[[-0.00141183 -0.00014221]
 [-0.0001324  -0.00024496]]",[],0.0,0.0
1787133732.8327808,0.10982632733846973,-1.2247023869863454,0.09892243082733335,"[5.58665458e-07 3.64771466e-08 0.00000000e+00 0.00000000e+00
 0.00000000e+00 4.22921248e-08 3.64771466e-08 2.12330567e-07
 0.00000000e+00 0.00000000e+00 0.00000000e+00 2.14618284e-08
 0.00000000e+00 0.00000000e+00 0.00000000e+00 0.00000000e+00
 0.00000000e+00 0.00000000e+00 0.00000000e+00 0.00000000e+00
 0.00000000e+00 0.00000000e+00 0.00000000e+00 0.00000000e+00
 0.00000000e+00 0.00000000e+00 0.00000000e+00 0.00000000e+00
 0.00000000e+00 0.00000000e+00 4.22921248e-08 2.14618284e-08
 0.00000000e+00 0.00000000e+00 0.00000000e+00 1.39588502e-06]","[[-0.00139961 -0.00014171]
 [-0.00012206 -0.00023039]]",[],0.0,0.0
1787133733.3422184,0.1100306812479698,-1.2240422555154429,0.09706669091307464,"[5.48471578e-07 3.66621049e-08 0.00000000e+00 0.00000000e+00
 0.00000000e+00 3.88385223e-08 3.66621049e-08 2.00393312e-07
 0.00000000e+00 0.00000000e+00 0.00000000e+00 2.34822289e-08
 0.00000000e+00 0.00000000e+00 0.00000000e+00 0.00000000e+00
 0.00000000e+00 0.00000000e+00 0.00000000e+00 0.00000000e+00
 0.00000000e+00 0.00000000e+00 0.00000000e+00 0.00000000e+00
 0.00000000e+00 0.00000000e+00 0.00000000e+00 0.00000000e+00
 0.00000000e+00 0.00000000e+00 3.88385223e-08 2.34822289e-08
 0.00000000e+00 0.00000000e+00 0.00000000e+00 1.38321985e-06]","[[-0.00137411 -0.00013332]
 [-0.00011801 -0.00022825]]",[],0.0,0.0
1787133733.361122,0.10982321509807877,-1.2233946159706153,0.09602253403668248,"[5.42810725e-07 3.61002134e-08 0.00000000e+00 0.00000000e+00
 0.00000000e+00 4.32919375e-08 3.61002134e-08 1.89658658e-07
 0.00000000e+00 0.00000000e+00 0.00000000e+00 1.86547663e-08
 0.00000000e+00 0.00000000e+00 0.00000000e+00 0.00000000e+00
 0.00000000e+00 0.00000000e+00 0.00000000e+00 0.00000000e+00
 0.00000000e+00 0.00000000e+00 0.00000000e+00 0.00000000e+00
 0.00000000e+00 0.00000000e+00 0.00000000e+00 0.00000000e+00
 0.00000000e+00 0.00000000e+00 4.32919375e-08 1.86547663e-08
 0.00000000e+00 0.00000000e+00 0.00000000e+00 1.38069570e-06]","[[-0.00135998 -0.00014556]
 [-0.00011764 -0.00020396]]",[],0.0,0.0
1787133733.8179014,0.10982321509807877,-1.2233946159706153,0.09602253403668248,"[5.42810725e-07 3.61002134e-08 0.00000000e+00 0.00000000e+00
 0.00000000e+00 4.32919375e-08 3.61002134e-08 1.89658658e-07
 0.00000000e+00 0.00000000e+00 0.00000000e+00 1.86547663e-08
 0.00000000e+00 0.00000000e+00 0.00000000e+00 0.00000000e+00
 0.00000000e+00 0.00000000e+00 0.00000000e+00 0.00000000e+00
 0.00000000e+00 0.00000000e+00 0.00000000e+00 0.00000000e+00
 0.00000000e+00 0.00000000e+00 0.00000000e+00 0.00000000e+00
 0.00000000e+00 0.00000000e+00 4.32919375e-08 1.86547663e-08
 0.00000000e+00 0.00000000e+00 0.00000000e+00 1.38069570e-06]","[[-0.00135998 -0.00014556]
 [-0.00011764 -0.00020396]]",[],0.0,0.0
1787133733.870672,0.10968258084681705,-1.2224672280230278,0.0955518858516147,"[5.30086321e-07 3.56825014e-08 0.00000000e+00 0.00000000e+00
 0.00000000e+00 4.25964959e-08 3.56825014e-08 1.79884658e-07
 0.00000000e+00 0.00000000e+00 0.00000000e+00 1.78651803e-08
 0.00000000e+00 0.00000000e+00 0.00000000e+00 0.00000000e+00
 0.00000000e+00 0.00000000e+00 0.00000000e+00 0.00000000e+00
 0.00000000e+00 0.00000000e+00 0.00000000e+00 0.00000000e+00
 0.00000000e+00 0.00000000e+00 0.00000000e+00 0.00000000e+00
 0.00000000e+00 0.00000000e+00 4.25964959e-08 1.78651803e-08
 0.00000000e+00 0.00000000e+00 0.00000000e+00 1.34018704e-06]","[[-0.00132807 -0.00014577]
 [-0.00011272 -0.00019424]]",[],0.0,0.0
1787133733.9110093,0.10968258084681705,-1.2224672280230278,0.0955518858516147,"[5.30086321e-07 3.56825014e-08 0.00000000e+00 0.00000000e+00
 0.00000000e+00 4.25964959e-08 3.56825014e-08 1.79884658e-07
 0.00000000e+00 0.00000000e+00 0.00000000e+00 1.78651803e-08
 0.00000000e+00 0.00000000e+00 0.00000000e+00 0.00000000e+00
 0.00000000e+00 0.00000000e+00 0.00000000e+00 0.00000000e+00
 0.00000000e+00 0.00000000e+00 0.00000000e+00 0.00000000e+00
 0.00000000e+00 0.00000000e+00 0.00000000e+00 0.00000000e+00
 0.00000000e+00 0.00000000e+00 4.25964959e-08 1.78651803e-08
 0.00000000e+00 0.00000000e+00 0.00000000e+00 1.34018704e-06]","[[-0.00132807 -0.00014577]
 [-0.00011272 -0.00019424]]",[],0.0,0.0
1787133733.9614024,0.10968258084681705,-1.2224672280230278,0.0955518858516147,"[5.30086321e-07 3.56825014e-08 0.00000000e+00 0.00000000e+00
 0.00000000e+00 4.25964959e-08 3.56825014e-08 1.79884658e-07
 0.00000000e+00 0.00000000e+00 0.00000000e+00 1.78651803e-08
 0.00000000e+00 0.00000000e+00 0.00000000e+00 0.00000000e+00
 0.00000000e+00 0.00000000e+00 0.00000000e+00 0.00000000e+00
 0.00000000e+00 0.00000000e+00 0.00000000e+00 0.00000000e+00
 0.00000000e+00 0.00000000e+00 0.00000000e+00 0.00000000e+00
 0.00000000e+00 0.00000000e+00 4.25964959e-08 1.78651803e-08
 0.00000000e+00 0.00000000e+00 0.00000000e+00 1.34018704e-06]","[[-0.00132807 -0.00014577]
 [-0.00011272 -0.00019424]]",[],0.0,0.0
1787133734.0096726,0.10968258084681705,-1.2224672280230278,0.0955518858516147,"[5.30086321e-07 3.56825014e-08 0.00000000e+00 0.00000000e+00
 0.00000000e+00 4.25964959e-08 3.56825014e-08 1.79884658e-07
 0.00000000e+00 0.00000000e+00 0.00000000e+00 1.78651803e-08
 0.00000000e+00 0.00000000e+00 0.00000000e+00 0.00000000e+00
 0.00000000e+00 0.00000000e+00 0.00000000e+00 0.00000000e+00
 0.00000000e+00 0.00000000e+00 0.00000000e+00 0.00000000e+00
 0.00000000e+00 0.00000000e+00 0.00000000e+00 0.00000000e+00
 0.00000000e+00 0.00000000e+00 4.25964959e-08 1.78651803e-08
 0.00000000e+00 0.00000000e+00 0.00000000e+00 1.34018704e-06]","[[-0.00132807 -0.00014577]
 [-0.00011272 -0.00019424]]",[],0.0,0.0
1787133734.0626152,0.10968258084681705,-1.2224672280230278,0.0955518858516147,"[5.30086321e-07 3.56825014e-08 0.00000000e+00 0.00000000e+00
 0.00000000e+00 4.25964959e-08 3.56825014e-08 1.79884658e-07
 0.00000000e+00 0.00000000e+00 0.00000000e+00 1.78651803e-08
 0.00000000e+00 0.00000000e+00 0.00000000e+00 0.00000000e+00
 0.00000000e+00 0.00000000e+00 0.00000000e+00 0.00000000e+00
 0.00000000e+00 0.00000000e+00 0.00000000e+00 0.00000000e+00
 0.00000000e+00 0.00000000e+00 0.00000000e+00 0.00000000e+00
 0.00000000e+00 0.00000000e+00 4.25964959e-08 1.78651803e-08
 0.00000000e+00 0.00000000e+00 0.00000000e+00 1.34018704e-06]","[[-0.00132807 -0.00014577]
 [-0.00011272 -0.00019424]]",[],0.0,0.0
1787133734.1286085,0.10968258084681705,-1.2224672280230278,0.0955518858516147,"[5.30086321e-07 3.56825014e-08 0.00000000e+00 0.00000000e+00
 0.00000000e+00 4.25964959e-08 3.56825014e-08 1.79884658e-07
 0.00000000e+00 0.00000000e+00 0.00000000e+00 1.78651803e-08
 0.00000000e+00 0.00000000e+00 0.00000000e+00 0.00000000e+00
 0.00000000e+00 0.00000000e+00 0.00000000e+00 0.00000000e+00
 0.00000000e+00 0.00000000e+00 0.00000000e+00 0.00000000e+00
 0.00000000e+00 0.00000000e+00 0.00000000e+00 0.00000000e+00
 0.00000000e+00 0.00000000e+00 4.25964959e-08 1.78651803e-08
 0.00000000e+00 0.00000000e+00 0.00000000e+00 1.34018704e-06]","[[-0.00132807 -0.00014577]
 [-0.00011272 -0.00019424]]",[],0.0,0.0
1787133734.1638782,0.10968258084681705,-1.2224672280230278,0.0955518858516147,"[5.30086321e-07 3.56825014e-08 0.00000000e+00 0.00000000e+00
 0.00000000e+00 4.25964959e-08 3.56825014e-08 1.79884658e-07
 0.00000000e+00 0.00000000e+00 0.00000000e+00 1.78651803e-08
 0.00000000e+00 0.00000000e+00 0.00000000e+00 0.00000000e+00
 0.00000000e+00 0.00000000e+00 0.00000000e+00 0.00000000e+00
 0.00000000e+00 0.00000000e+00 0.00000000e+00 0.00000000e+00
 0.00000000e+00 0.00000000e+00 0.00000000e+00 0.00000000e+00
 0.00000000e+00 0.00000000e+00 4.25964959e-08 1.78651803e-08
 0.00000000e+00 0.00000000e+00 0.00000000e+00 1.34018704e-06]","[[-0.00132807 -0.00014577]
 [-0.00011272 -0.00019424]]",[],0.0,0.0
1787133734.210451,0.10968258084681705,-1.2224672280230278,0.0955518858516147,"[5.30086321e-07 3.56825014e-08 0.00000000e+00 0.00000000e+00
 0.00000000e+00 4.25964959e-08 3.56825014e-08 1.79884658e-07
 0.00000000e+00 0.00000000e+00 0.00000000e+00 1.78651803e-08
 0.00000000e+00 0.00000000e+00 0.00000000e+00 0.00000000e+00
 0.00000000e+00 0.00000000e+00 0.00000000e+00 0.00000000e+00
 0.00000000e+00 0.00000000e+00 0.00000000e+00 0.00000000e+00
 0.00000000e+00 0.00000000e+00 0.00000000e+00 0.00000000e+00
 0.00000000e+00 0.00000000e+00 4.25964959e-08 1.78651803e-08
 0.00000000e+00 0.00000000e+00 0.00000000e+00 1.34018704e-06]","[[-0.00132807 -0.00014577]
 [-0.00011272 -0.00019424]]",[],0.0,0.0
1787133734.2597353,0.10968258084681705,-1.2224672280230278,0.0955518858516147,"[5.30086321e-07 3.56825014e-08 0.00000000e+00 0.00000000e+00
 0.00000000e+00 4.25964959e-08 3.56825014e-08 1.79884658e-07
 0.00000000e+00 0.00000000e+00 0.00000000e+00 1.78651803e-08
 0.00000000e+00 0.00000000e+00 0.00000000e+00 0.00000000e+00
 0.00000000e+00 0.00000000e+00 0.00000000e+00 0.00000000e+00
 0.00000000e+00 0.00000000e+00 0.00000000e+00 0.00000000e+00
 0.00000000e+00 0.00000000e+00 0.00000000e+00 0.00000000e+00
 0.00000000e+00 0.00000000e+00 4.25964959e-08 1.78651803e-08
 0.00000000e+00 0.00000000e+00 0.00000000e+00 1.34018704e-06]","[[-0.00132807 -0.00014577]
 [-0.00011272 -0.00019424]]",[],0.0,0.0
1787133734.321194,0.10968258084681705,-1.2224672280230278,0.0955518858516147,"[5.30086321e-07 3.56825014e-08 0.00000000e+00 0.00000000e+00
 0.00000000e+00 4.25964959e-08 3.56825014e-08 1.79884658e-07
 0.00000000e+00 0.00000000e+00 0.00000000e+00 1.78651803e-08
 0.00000000e+00 0.00000000e+00 0.00000000e+00 0.00000000e+00
 0.00000000e+00 0.00000000e+00 0.00000000e+00 0.00000000e+00
 0.00000000e+00 0.00000000e+00 0.00000000e+00 0.00000000e+00
 0.00000000e+00 0.00000000e+00 0.00000000e+00 0.00000000e+00
 0.00000000e+00 0.00000000e+00 4.25964959e-08 1.78651803e-08
 0.00000000e+00 0.00000000e+00 0.00000000e+00 1.34018704e-06]","[[-0.00132807 -0.00014577]
 [-0.00011272 -0.00019424]]",[],0.0,0.0
1787133734.3616369,0.10968258084681705,-1.2224672280230278,0.0955518858516147,"[5.30086321e-07 3.56825014e-08 0.00000000e+00 0.00000000e+00
 0.00000000e+00 4.25964959e-08 3.56825014e-08 1.79884658e-07
 0.00000000e+00 0.00000000e+00 0.00000000e+00 1.78651803e-08
 0.00000000e+00 0.00000000e+00 0.00000000e+00 0.00000000e+00
 0.00000000e+00 0.00000000e+00 0.00000000e+00 0.00000000e+00
 0.00000000e+00 0.00000000e+00 0.00000000e+00 0.00000000e+00
 0.00000000e+00 0.00000000e+00 0.00000000e+00 0.00000000e+00
 0.00000000e+00 0.00000000e+00 4.25964959e-08 1.78651803e-08
 0.00000000e+00 0.00000000e+00 0.00000000e+00 1.34018704e-06]","[[-0.00132807 -0.00014577]
 [-0.00011272 -0.00019424]]",[],0.0,0.0
1787133734.4088569,0.10894466869716149,-1.2217682990276337,0.09945642314380398,"[5.47437727e-07 3.79948008e-08 0.00000000e+00 0.00000000e+00
 0.00000000e+00 4.44874521e-08 3.79948008e-08 1.71416711e-07
 0.00000000e+00 0.00000000e+00 0.00000000e+00 1.72725422e-08
 0.00000000e+00 0.00000000e+00 0.00000000e+00 0.00000000e+00
 0.00000000e+00 0.00000000e+00 0.00000000e+00 0.00000000e+00
 0.00000000e+00 0.00000000e+00 0.00000000e+00 0.00000000e+00
 0.00000000e+00 0.00000000e+00 0.00000000e+00 0.00000000e+00
 0.00000000e+00 0.00000000e+00 4.44874521e-08 1.72725422e-08
 0.00000000e+00 0.00000000e+00 0.00000000e+00 1.40721526e-06]","[[-0.00137178 -0.0001408 ]
 [-0.00012969 -0.00018495]]",[],0.0,0.0
1787133734.4587467,0.10894466869716149,-1.2217682990276337,0.09945642314380398,"[5.47437727e-07 3.79948008e-08 0.00000000e+00 0.00000000e+00
 0.00000000e+00 4.44874521e-08 3.79948008e-08 1.71416711e-07
 0.00000000e+00 0.00000000e+00 0.00000000e+00 1.72725422e-08
 0.00000000e+00 0.00000000e+00 0.00000000e+00 0.00000000e+00
 0.00000000e+00 0.00000000e+00 0.00000000e+00 0.00000000e+00
 0.00000000e+00 0.00000000e+00 0.00000000e+00 0.00000000e+00
 0.00000000e+00 0.00000000e+00 0.00000000e+00 0.00000000e+00
 0.00000000e+00 0.00000000e+00 4.44874521e-08 1.72725422e-08
 0.00000000e+00 0.00000000e+00 0.00000000e+00 1.40721526e-06]","[[-0.00137178 -0.0001408 ]
 [-0.00012969 -0.00018495]]",[],0.0,0.0
1787133734.5093925,0.10894466869716149,-1.2217682990276337,0.09945642314380398,"[5.47437727e-07 3.79948008e-08 0.00000000e+00 0.00000000e+00
 0.00000000e+00 4.44874521e-08 3.79948008e-08 1.71416711e-07
 0.00000000e+00 0.00000000e+00 0.00000000e+00 1.72725422e-08
 0.00000000e+00 0.00000000e+00 0.00000000e+00 0.00000000e+00
 0.00000000e+00 0.00000000e+00 0.00000000e+00 0.00000000e+00
 0.00000000e+00 0.00000000e+00 0.00000000e+00 0.00000000e+00
 0.00000000e+00 0.00000000e+00 0.00000000e+00 0.00000000e+00
 0.00000000e+00 0.00000000e+00 4.44874521e-08 1.72725422e-08
 0.00000000e+00 0.00000000e+00 0.00000000e+00 1.40721526e-06]","[[-0.00137178 -0.0001408 ]
 [-0.00012969 -0.00018495]]",[],0.0,0.0
1787133734.5588384,0.10894466869716149,-1.2217682990276337,0.09945642314380398,"[5.47437727e-07 3.79948008e-08 0.00000000e+00 0.00000000e+00
 0.00000000e+00 4.44874521e-08 3.79948008e-08 1.71416711e-07
 0.00000000e+00 0.00000000e+00 0.00000000e+00 1.72725422e-08
 0.00000000e+00 0.00000000e+00 0.00000000e+00 0.00000000e+00
 0.00000000e+00 0.00000000e+00 0.00000000e+00 0.00000000e+00
 0.00000000e+00 0.00000000e+00 0.00000000e+00 0.00000000e+00
 0.00000000e+00 0.00000000e+00 0.00000000e+00 0.00000000e+00
 0.00000000e+00 0.00000000e+00 4.44874521e-08 1.72725422e-08
 0.00000000e+00 0.00000000e+00 0.00000000e+00 1.40721526e-06]","[[-0.00137178 -0.0001408 ]
 [-0.00012969 -0.00018495]]",[],0.0,0.0
1787133734.6147358,0.10894466869716149,-1.2217682990276337,0.09945642314380398,"[5.47437727e-07 3.79948008e-08 0.00000000e+00 0.00000000e+00
 0.00000000e+00 4.44874521e-08 3.79948008e-08 1.71416711e-07
 0.00000000e+00 0.00000000e+00 0.00000000e+00 1.72725422e-08
 0.00000000e+00 0.00000000e+00 0.00000000e+00 0.00000000e+00
 0.00000000e+00 0.00000000e+00 0.00000000e+00 0.00000000e+00
 0.00000000e+00 0.00000000e+00 0.00000000e+00 0.00000000e+00
 0.00000000e+00 0.00000000e+00 0.00000000e+00 0.00000000e+00
 0.00000000e+00 0.00000000e+00 4.44874521e-08 1.72725422e-08
 0.00000000e+00 0.00000000e+00 0.00000000e+00 1.40721526e-06]","[[-0.00137178 -0.0001408 ]
 [-0.00012969 -0.00018495]]",[],0.0,0.0
1787133734.6667113,0.10894466869716149,-1.2217682990276337,0.09945642314380398,"[5.47437727e-07 3.79948008e-08 0.00000000e+00 0.00000000e+00
 0.00000000e+00 4.44874521e-08 3.79948008e-08 1.71416711e-07
 0.00000000e+00 0.00000000e+00 0.00000000e+00 1.72725422e-08
 0.00000000e+00 0.00000000e+00 0.00000000e+00 0.00000000e+00
 0.00000000e+00 0.00000000e+00 0.00000000e+00 0.00000000e+00
 0.00000000e+00 0.00000000e+00 0.00000000e+00 0.00000000e+00
 0.00000000e+00 0.00000000e+00 0.00000000e+00 0.00000000e+00
 0.00000000e+00 0.00000000e+00 4.44874521e-08 1.72725422e-08
 0.00000000e+00 0.00000000e+00 0.00000000e+00 1.40721526e-06]","[[-0.00137178 -0.0001408 ]
 [-0.00012969 -0.00018495]]",[],0.0,0.0
1787133734.710097,0.10894466869716149,-1.2217682990276337,0.09945642314380398,"[5.47437727e-07 3.79948008e-08 0.00000000e+00 0.00000000e+00
 0.00000000e+00 4.44874521e-08 3.79948008e-08 1.71416711e-07
 0.00000000e+00 0.00000000e+00 0.00000000e+00 1.72725422e-08
 0.00000000e+00 0.00000000e+00 0.00000000e+00 0.00000000e+00
 0.00000000e+00 0.00000000e+00 0.00000000e+00 0.00000000e+00
 0.00000000e+00 0.00000000e+00 0.00000000e+00 0.00000000e+00
 0.00000000e+00 0.00000000e+00 0.00000000e+00 0.00000000e+00
 0.00000000e+00 0.00000000e+00 4.44874521e-08 1.72725422e-08
 0.00000000e+00 0.00000000e+00 0.00000000e+00 1.40721526e-06]","[[-0.00137178 -0.0001408 ]
 [-0.00012969 -0.00018495]]",[],0.0,0.0
1787133734.7589605,0.10894466869716149,-1.2217682990276337,0.09945642314380398,"[5.47437727e-07 3.79948008e-08 0.00000000e+00 0.00000000e+00
 0.00000000e+00 4.44874521e-08 3.79948008e-08 1.71416711e-07
 0.00000000e+00 0.00000000e+00 0.00000000e+00 1.72725422e-08
 0.00000000e+00 0.00000000e+00 0.00000000e+00 0.00000000e+00
 0.00000000e+00 0.00000000e+00 0.00000000e+00 0.00000000e+00
 0.00000000e+00 0.00000000e+00 0.00000000e+00 0.00000000e+00
 0.00000000e+00 0.00000000e+00 0.00000000e+00 0.00000000e+00
 0.00000000e+00 0.00000000e+00 4.44874521e-08 1.72725422e-08
 0.00000000e+00 0.00000000e+00 0.00000000e+00 1.40721526e-06]","[[-0.00137178 -0.0001408 ]
 [-0.00012969 -0.00018495]]",[],0.0,0.0
1787133734.8316662,0.10894466869716149,-1.2217682990276337,0.09945642314380398,"[5.47437727e-07 3.79948008e-08 0.00000000e+00 0.00000000e+00
 0.00000000e+00 4.44874521e-08 3.79948008e-08 1.71416711e-07
 0.00000000e+00 0.00000000e+00 0.00000000e+00 1.72725422e-08
 0.00000000e+00 0.00000000e+00 0.00000000e+00 0.00000000e+00
 0.00000000e+00 0.00000000e+00 0.00000000e+00 0.00000000e+00
 0.00000000e+00 0.00000000e+00 0.00000000e+00 0.00000000e+00
 0.00000000e+00 0.00000000e+00 0.00000000e+00 0.00000000e+00
 0.00000000e+00 0.00000000e+00 4.44874521e-08 1.72725422e-08
 0.00000000e+00 0.00000000e+00 0.00000000e+00 1.40721526e-06]","[[-0.00137178 -0.0001408 ]
 [-0.00012969 -0.00018495]]",[],0.0,0.0
1787133734.859956,0.10894466869716149,-1.2217682990276337,0.09945642314380398,"[5.47437727e-07 3.79948008e-08 0.00000000e+00 0.00000000e+00
 0.00000000e+00 4.44874521e-08 3.79948008e-08 1.71416711e-07
 0.00000000e+00 0.00000000e+00 0.00000000e+00 1.72725422e-08
 0.00000000e+00 0.00000000e+00 0.00000000e+00 0.00000000e+00
 0.00000000e+00 0.00000000e+00 0.00000000e+00 0.00000000e+00
 0.00000000e+00 0.00000000e+00 0.00000000e+00 0.00000000e+00
 0.00000000e+00 0.00000000e+00 0.00000000e+00 0.00000000e+00
 0.00000000e+00 0.00000000e+00 4.44874521e-08 1.72725422e-08
 0.00000000e+00 0.00000000e+00 0.00000000e+00 1.40721526e-06]","[[-0.00137178 -0.0001408 ]
 [-0.00012969 -0.00018495]]",[],0.0,0.0
1787133734.9088514,0.10894466869716149,-1.2217682990276337,0.09945642314380398,"[5.47437727e-07 3.79948008e-08 0.00000000e+00 0.00000000e+00
 0.00000000e+00 4.44874521e-08 3.79948008e-08 1.71416711e-07
 0.00000000e+00 0.00000000e+00 0.00000000e+00 1.72725422e-08
 0.00000000e+00 0.00000000e+00 0.00000000e+00 0.00000000e+00
 0.00000000e+00 0.00000000e+00 0.00000000e+00 0.00000000e+00
 0.00000000e+00 0.00000000e+00 0.00000000e+00 0.00000000e+00
 0.00000000e+00 0.00000000e+00 0.00000000e+00 0.00000000e+00
 0.00000000e+00 0.00000000e+00 4.44874521e-08 1.72725422e-08
 0.00000000e+00 0.00000000e+00 0.00000000e+00 1.40721526e-06]","[[-0.00137178 -0.0001408 ]
 [-0.00012969 -0.00018495]]",[],0.0,0.0
1787133734.9588678,0.10894466869716149,-1.2217682990276337,0.09945642314380398,"[5.47437727e-07 3.79948008e-08 0.00000000e+00 0.00000000e+00
 0.00000000e+00 4.44874521e-08 3.79948008e-08 1.71416711e-07
 0.00000000e+00 0.00000000e+00 0.00000000e+00 1.72725422e-08
 0.00000000e+00 0.00000000e+00 0.00000000e+00 0.00000000e+00
 0.00000000e+00 0.00000000e+00 0.00000000e+00 0.00000000e+00
 0.00000000e+00 0.00000000e+00 0.00000000e+00 0.00000000e+00
 0.00000000e+00 0.00000000e+00 0.00000000e+00 0.00000000e+00
 0.00000000e+00 0.00000000e+00 4.44874521e-08 1.72725422e-08
 0.00000000e+00 0.00000000e+00 0.00000000e+00 1.40721526e-06]","[[-0.00137178 -0.0001408 ]
 [-0.00012969 -0.00018495]]",[],0.0,0.0
1787133735.0097492,0.10894466869716149,-1.2217682990276337,0.09945642314380398,"[5.47437727e-07 3.79948008e-08 0.00000000e+00 0.00000000e+00
 0.00000000e+00 4.44874521e-08 3.79948008e-08 1.71416711e-07
 0.00000000e+00 0.00000000e+00 0.00000000e+00 1.72725422e-08
 0.00000000e+00 0.00000000e+00 0.00000000e+00 0.00000000e+00
 0.00000000e+00 0.00000000e+00 0.00000000e+00 0.00000000e+00
 0.00000000e+00 0.00000000e+00 0.00000000e+00 0.00000000e+00
 0.00000000e+00 0.00000000e+00 0.00000000e+00 0.00000000e+00
 0.00000000e+00 0.00000000e+00 4.44874521e-08 1.72725422e-08
 0.00000000e+00 0.00000000e+00 0.00000000e+00 1.40721526e-06]","[[-0.00137178 -0.0001408 ]
 [-0.00012969 -0.00018495]]",[],0.0,0.0
1787133735.0614672,0.10873748090076384,-1.221026130631104,0.09492451362916698,"[5.73307849e-07 4.15923566e-08 0.00000000e+00 0.00000000e+00
 0.00000000e+00 4.45747499e-08 4.15923566e-08 1.63857446e-07
 0.00000000e+00 0.00000000e+00 0.00000000e+00 1.77577101e-08
 0.00000000e+00 0.00000000e+00 0.00000000e+00 0.00000000e+00
 0.00000000e+00 0.00000000e+00 0.00000000e+00 0.00000000e+00
 0.00000000e+00 0.00000000e+00 0.00000000e+00 0.00000000e+00
 0.00000000e+00 0.00000000e+00 0.00000000e+00 0.00000000e+00
 0.00000000e+00 0.00000000e+00 4.45747499e-08 1.77577101e-08
 0.00000000e+00 0.00000000e+00 0.00000000e+00 1.42851954e-06]","[[-0.00143695 -0.00015127]
 [-0.00012882 -0.00018087]]",[],0.0,0.0
1787133735.109496,0.10873748090076384,-1.221026130631104,0.09492451362916698,"[5.73307849e-07 4.15923566e-08 0.00000000e+00 0.00000000e+00
 0.00000000e+00 4.45747499e-08 4.15923566e-08 1.63857446e-07
 0.00000000e+00 0.00000000e+00 0.00000000e+00 1.77577101e-08
 0.00000000e+00 0.00000000e+00 0.00000000e+00 0.00000000e+00
 0.00000000e+00 0.00000000e+00 0.00000000e+00 0.00000000e+00
 0.00000000e+00 0.00000000e+00 0.00000000e+00 0.00000000e+00
 0.00000000e+00 0.00000000e+00 0.00000000e+00 0.00000000e+00
 0.00000000e+00 0.00000000e+00 4.45747499e-08 1.77577101e-08
 0.00000000e+00 0.00000000e+00 0.00000000e+00 1.42851954e-06]","[[-0.00143695 -0.00015127]
 [-0.00012882 -0.00018087]]",[],0.0,0.0
1787133735.1630516,0.10873748090076384,-1.221026130631104,0.09492451362916698,"[5.73307849e-07 4.15923566e-08 0.00000000e+00 0.00000000e+00
 0.00000000e+00 4.45747499e-08 4.15923566e-08 1.63857446e-07
 0.00000000e+00 0.00000000e+00 0.00000000e+00 1.77577101e-08
 0.00000000e+00 0.00000000e+00 0.00000000e+00 0.00000000e+00
 0.00000000e+00 0.00000000e+00 0.00000000e+00 0.00000000e+00
 0.00000000e+00 0.00000000e+00 0.00000000e+00 0.00000000e+00
 0.00000000e+00 0.00000000e+00 0.00000000e+00 0.00000000e+00
 0.00000000e+00 0.00000000e+00 4.45747499e-08 1.77577101e-08
 0.00000000e+00 0.00000000e+00 0.00000000e+00 1.42851954e-06]","[[-0.00143695 -0.00015127]
 [-0.00012882 -0.00018087]]",[],0.0,0.0
1787133735.20872,0.10873748090076384,-1.221026130631104,0.09492451362916698,"[5.73307849e-07 4.15923566e-08 0.00000000e+00 0.00000000e+00
 0.00000000e+00 4.45747499e-08 4.15923566e-08 1.63857446e-07
 0.00000000e+00 0.00000000e+00 0.00000000e+00 1.77577101e-08
 0.00000000e+00 0.00000000e+00 0.00000000e+00 0.00000000e+00
 0.00000000e+00 0.00000000e+00 0.00000000e+00 0.00000000e+00
 0.00000000e+00 0.00000000e+00 0.00000000e+00 0.00000000e+00
 0.00000000e+00 0.00000000e+00 0.00000000e+00 0.00000000e+00
 0.00000000e+00 0.00000000e+00 4.45747499e-08 1.77577101e-08
 0.00000000e+00 0.00000000e+00 0.00000000e+00 1.42851954e-06]","[[-0.00143695 -0.00015127]
 [-0.00012882 -0.00018087]]",[],0.0,0.0
1787133735.2759085,0.10873748090076384,-1.221026130631104,0.09492451362916698,"[5.73307849e-07 4.15923566e-08 0.00000000e+00 0.00000000e+00
 0.00000000e+00 4.45747499e-08 4.15923566e-08 1.63857446e-07
 0.00000000e+00 0.00000000e+00 0.00000000e+00 1.77577101e-08
 0.00000000e+00 0.00000000e+00 0.00000000e+00 0.00000000e+00
 0.00000000e+00 0.00000000e+00 0.00000000e+00 0.00000000e+00
 0.00000000e+00 0.00000000e+00 0.00000000e+00 0.00000000e+00
 0.00000000e+00 0.00000000e+00 0.00000000e+00 0.00000000e+00
 0.00000000e+00 0.00000000e+00 4.45747499e-08 1.77577101e-08
 0.00000000e+00 0.00000000e+00 0.00000000e+00 1.42851954e-06]","[[-0.00143695 -0.00015127]
 [-0.00012882 -0.00018087]]",[],0.0,0.0
1787133735.3170755,0.10873748090076384,-1.221026130631104,0.09492451362916698,"[5.73307849e-07 4.15923566e-08 0.00000000e+00 0.00000000e+00
 0.00000000e+00 4.45747499e-08 4.15923566e-08 1.63857446e-07
 0.00000000e+00 0.00000000e+00 0.00000000e+00 1.77577101e-08
 0.00000000e+00 0.00000000e+00 0.00000000e+00 0.00000000e+00
 0.00000000e+00 0.00000000e+00 0.00000000e+00 0.00000000e+00
 0.00000000e+00 0.00000000e+00 0.00000000e+00 0.00000000e+00
 0.00000000e+00 0.00000000e+00 0.00000000e+00 0.00000000e+00
 0.00000000e+00 0.00000000e+00 4.45747499e-08 1.77577101e-08
 0.00000000e+00 0.00000000e+00 0.00000000e+00 1.42851954e-06]","[[-0.00143695 -0.00015127]
 [-0.00012882 -0.00018087]]",[],0.0,0.0
1787133735.5617661,0.10873748090076384,-1.221026130631104,0.09492451362916698,"[5.73307849e-07 4.15923566e-08 0.00000000e+00 0.00000000e+00
 0.00000000e+00 4.45747499e-08 4.15923566e-08 1.63857446e-07
 0.00000000e+00 0.00000000e+00 0.00000000e+00 1.77577101e-08
 0.00000000e+00 0.00000000e+00 0.00000000e+00 0.00000000e+00
 0.00000000e+00 0.00000000e+00 0.00000000e+00 0.00000000e+00
 0.00000000e+00 0.00000000e+00 0.00000000e+00 0.00000000e+00
 0.00000000e+00 0.00000000e+00 0.00000000e+00 0.00000000e+00
 0.00000000e+00 0.00000000e+00 4.45747499e-08 1.77577101e-08
 0.00000000e+00 0.00000000e+00 0.00000000e+00 1.42851954e-06]","[[-0.00143695 -0.00015127]
 [-0.00012882 -0.00018087]]",[],0.0,0.0
1787133736.09769,0.10923855020737192,-1.2203911348605518,0.09582203390577296,"[5.69734479e-07 4.14599339e-08 0.00000000e+00 0.00000000e+00
 0.00000000e+00 4.82558852e-08 4.14599339e-08 1.56664891e-07
 0.00000000e+00 0.00000000e+00 0.00000000e+00 1.78269321e-08
 0.00000000e+00 0.00000000e+00 0.00000000e+00 0.00000000e+00
 0.00000000e+00 0.00000000e+00 0.00000000e+00 0.00000000e+00
 0.00000000e+00 0.00000000e+00 0.00000000e+00 0.00000000e+00
 0.00000000e+00 0.00000000e+00 0.00000000e+00 0.00000000e+00
 0.00000000e+00 0.00000000e+00 4.82558852e-08 1.78269321e-08
 0.00000000e+00 0.00000000e+00 0.00000000e+00 1.39907181e-06]","[[-0.00142801 -0.00016333]
 [-0.0001275  -0.00017633]]",[],0.0,0.0
1787133736.1089497,0.10923855020737192,-1.2203911348605518,0.09582203390577296,"[5.69734479e-07 4.14599339e-08 0.00000000e+00 0.00000000e+00
 0.00000000e+00 4.82558852e-08 4.14599339e-08 1.56664891e-07
 0.00000000e+00 0.00000000e+00 0.00000000e+00 1.78269321e-08
 0.00000000e+00 0.00000000e+00 0.00000000e+00 0.00000000e+00
 0.00000000e+00 0.00000000e+00 0.00000000e+00 0.00000000e+00
 0.00000000e+00 0.00000000e+00 0.00000000e+00 0.00000000e+00
 0.00000000e+00 0.00000000e+00 0.00000000e+00 0.00000000e+00
 0.00000000e+00 0.00000000e+00 4.82558852e-08 1.78269321e-08
 0.00000000e+00 0.00000000e+00 0.00000000e+00 1.39907181e-06]","[[-0.00142801 -0.00016333]
 [-0.0001275  -0.00017633]]",[],0.0,0.0
1787133736.6744163,0.1089822226746384,-1.2196916808792566,0.09193457987679478,"[5.66644147e-07 4.17834624e-08 0.00000000e+00 0.00000000e+00
 0.00000000e+00 4.26032924e-08 4.17834624e-08 1.50195670e-07
 0.00000000e+00 0.00000000e+00 0.00000000e+00 1.62804369e-08
 0.00000000e+00 0.00000000e+00 0.00000000e+00 0.00000000e+00
 0.00000000e+00 0.00000000e+00 0.00000000e+00 0.00000000e+00
 0.00000000e+00 0.00000000e+00 0.00000000e+00 0.00000000e+00
 0.00000000e+00 0.00000000e+00 0.00000000e+00 0.00000000e+00
 0.00000000e+00 0.00000000e+00 4.26032924e-08 1.62804369e-08
 0.00000000e+00 0.00000000e+00 0.00000000e+00 1.40558996e-06]","[[-0.00142034 -0.00014539]
 [-0.00012709 -0.00016565]]",[],0.0,0.0
1787133737.1962237,0.10941004488090013,-1.219101702668282,0.09597831691281251,"[5.72956976e-07 4.23996375e-08 0.00000000e+00 0.00000000e+00
 0.00000000e+00 4.17899363e-08 4.23996375e-08 1.44287967e-07
 0.00000000e+00 0.00000000e+00 0.00000000e+00 1.46586696e-08
 0.00000000e+00 0.00000000e+00 0.00000000e+00 0.00000000e+00
 0.00000000e+00 0.00000000e+00 0.00000000e+00 0.00000000e+00
 0.00000000e+00 0.00000000e+00 0.00000000e+00 0.00000000e+00
 0.00000000e+00 0.00000000e+00 0.00000000e+00 0.00000000e+00
 0.00000000e+00 0.00000000e+00 4.17899363e-08 1.46586696e-08
 0.00000000e+00 0.00000000e+00 0.00000000e+00 1.42058062e-06]","[[-0.00143611 -0.00014453]
 [-0.00012641 -0.00015605]]",[],0.0,0.0
1787133737.2213392,0.1094828852658479,-1.2186055804012152,0.09591528452154699,"[5.64289839e-07 4.17908012e-08 0.00000000e+00 0.00000000e+00
 0.00000000e+00 4.40361453e-08 4.17908012e-08 1.38752261e-07
 0.00000000e+00 0.00000000e+00 0.00000000e+00 1.50088225e-08
 0.00000000e+00 0.00000000e+00 0.00000000e+00 0.00000000e+00
 0.00000000e+00 0.00000000e+00 0.00000000e+00 0.00000000e+00
 0.00000000e+00 0.00000000e+00 0.00000000e+00 0.00000000e+00
 0.00000000e+00 0.00000000e+00 0.00000000e+00 0.00000000e+00
 0.00000000e+00 0.00000000e+00 4.40361453e-08 1.50088225e-08
 0.00000000e+00 0.00000000e+00 0.00000000e+00 1.40580430e-06]","[[-0.00141455 -0.00014753]
 [-0.00012749 -0.00015286]]",[],0.0,0.0
1787133737.2594833,0.1094828852658479,-1.2186055804012152,0.09591528452154699,"[5.64289839e-07 4.17908012e-08 0.00000000e+00 0.00000000e+00
 0.00000000e+00 4.40361453e-08 4.17908012e-08 1.38752261e-07
 0.00000000e+00 0.00000000e+00 0.00000000e+00 1.50088225e-08
 0.00000000e+00 0.00000000e+00 0.00000000e+00 0.00000000e+00
 0.00000000e+00 0.00000000e+00 0.00000000e+00 0.00000000e+00
 0.00000000e+00 0.00000000e+00 0.00000000e+00 0.00000000e+00
 0.00000000e+00 0.00000000e+00 0.00000000e+00 0.00000000e+00
 0.00000000e+00 0.00000000e+00 4.40361453e-08 1.50088225e-08
 0.00000000e+00 0.00000000e+00 0.00000000e+00 1.40580430e-06]","[[-0.00141455 -0.00014753]
 [-0.00012749 -0.00015286]]",[],0.0,0.0
1787133737.3120725,0.1094828852658479,-1.2186055804012152,0.09591528452154699,"[5.64289839e-07 4.17908012e-08 0.00000000e+00 0.00000000e+00
 0.00000000e+00 4.40361453e-08 4.17908012e-08 1.38752261e-07
 0.00000000e+00 0.00000000e+00 0.00000000e+00 1.50088225e-08
 0.00000000e+00 0.00000000e+00 0.00000000e+00 0.00000000e+00
 0.00000000e+00 0.00000000e+00 0.00000000e+00 0.00000000e+00
 0.00000000e+00 0.00000000e+00 0.00000000e+00 0.00000000e+00
 0.00000000e+00 0.00000000e+00 0.00000000e+00 0.00000000e+00
 0.00000000e+00 0.00000000e+00 4.40361453e-08 1.50088225e-08
 0.00000000e+00 0.00000000e+00 0.00000000e+00 1.40580430e-06]","[[-0.00141455 -0.00014753]
 [-0.00012749 -0.00015286]]",[],0.0,0.0
1787133737.4253817,0.1094828852658479,-1.2186055804012152,0.09591528452154699,"[5.64289839e-07 4.17908012e-08 0.00000000e+00 0.00000000e+00
 0.00000000e+00 4.40361453e-08 4.17908012e-08 1.38752261e-07
 0.00000000e+00 0.00000000e+00 0.00000000e+00 1.50088225e-08
 0.00000000e+00 0.00000000e+00 0.00000000e+00 0.00000000e+00
 0.00000000e+00 0.00000000e+00 0.00000000e+00 0.00000000e+00
 0.00000000e+00 0.00000000e+00 0.00000000e+00 0.00000000e+00
 0.00000000e+00 0.00000000e+00 0.00000000e+00 0.00000000e+00
 0.00000000e+00 0.00000000e+00 4.40361453e-08 1.50088225e-08
 0.00000000e+00 0.00000000e+00 0.00000000e+00 1.40580430e-06]","[[-0.00141455 -0.00014753]
 [-0.00012749 -0.00015286]]",[],0.0,0.0
1787133737.4602952,0.1094828852658479,-1.2186055804012152,0.09591528452154699,"[5.64289839e-07 4.17908012e-08 0.00000000e+00 0.00000000e+00
 0.00000000e+00 4.40361453e-08 4.17908012e-08 1.38752261e-07
 0.00000000e+00 0.00000000e+00 0.00000000e+00 1.50088225e-08
 0.00000000e+00 0.00000000e+00 0.00000000e+00 0.00000000e+00
 0.00000000e+00 0.00000000e+00 0.00000000e+00 0.00000000e+00
 0.00000000e+00 0.00000000e+00 0.00000000e+00 0.00000000e+00
 0.00000000e+00 0.00000000e+00 0.00000000e+00 0.00000000e+00
 0.00000000e+00 0.00000000e+00 4.40361453e-08 1.50088225e-08
 0.00000000e+00 0.00000000e+00 0.00000000e+00 1.40580430e-06]","[[-0.00141455 -0.00014753]
 [-0.00012749 -0.00015286]]",[],0.0,0.0
1787133737.6790035,0.1094828852658479,-1.2186055804012152,0.09591528452154699,"[5.64289839e-07 4.17908012e-08 0.00000000e+00 0.00000000e+00
 0.00000000e+00 4.40361453e-08 4.17908012e-08 1.38752261e-07
 0.00000000e+00 0.00000000e+00 0.00000000e+00 1.50088225e-08
 0.00000000e+00 0.00000000e+00 0.00000000e+00 0.00000000e+00
 0.00000000e+00 0.00000000e+00 0.00000000e+00 0.00000000e+00
 0.00000000e+00 0.00000000e+00 0.00000000e+00 0.00000000e+00
 0.00000000e+00 0.00000000e+00 0.00000000e+00 0.00000000e+00
 0.00000000e+00 0.00000000e+00 4.40361453e-08 1.50088225e-08
 0.00000000e+00 0.00000000e+00 0.00000000e+00 1.40580430e-06]","[[-0.00141455 -0.00014753]
 [-0.00012749 -0.00015286]]",[],0.0,0.0
1787133737.7598336,0.1094828852658479,-1.2186055804012152,0.09591528452154699,"[5.64289839e-07 4.17908012e-08 0.00000000e+00 0.00000000e+00
 0.00000000e+00 4.40361453e-08 4.17908012e-08 1.38752261e-07
 0.00000000e+00 0.00000000e+00 0.00000000e+00 1.50088225e-08
 0.00000000e+00 0.00000000e+00 0.00000000e+00 0.00000000e+00
 0.00000000e+00 0.00000000e+00 0.00000000e+00 0.00000000e+00
 0.00000000e+00 0.00000000e+00 0.00000000e+00 0.00000000e+00
 0.00000000e+00 0.00000000e+00 0.00000000e+00 0.00000000e+00
 0.00000000e+00 0.00000000e+00 4.40361453e-08 1.50088225e-08
 0.00000000e+00 0.00000000e+00 0.00000000e+00 1.40580430e-06]","[[-0.00141455 -0.00014753]
 [-0.00012749 -0.00015286]]",[],0.0,0.0
1787133737.8199756,0.11016464055631642,-1.2180584893479456,0.10280012895989676,"[5.66925880e-07 4.27002264e-08 0.00000000e+00 0.00000000e+00
 0.00000000e+00 4.08546946e-08 4.27002264e-08 1.33722313e-07
 0.00000000e+00 0.00000000e+00 0.00000000e+00 1.44676636e-08
 0.00000000e+00 0.00000000e+00 0.00000000e+00 0.00000000e+00
 0.00000000e+00 0.00000000e+00 0.00000000e+00 0.00000000e+00
 0.00000000e+00 0.00000000e+00 0.00000000e+00 0.00000000e+00
 0.00000000e+00 0.00000000e+00 0.00000000e+00 0.00000000e+00
 0.00000000e+00 0.00000000e+00 4.08546946e-08 1.44676636e-08
 0.00000000e+00 0.00000000e+00 0.00000000e+00 1.39490879e-06]","[[-0.00142128 -0.00013769]
 [-0.00012888 -0.00014721]]",[],0.0,0.0
1787133737.863079,0.11016464055631642,-1.2180584893479456,0.10280012895989676,"[5.66925880e-07 4.27002264e-08 0.00000000e+00 0.00000000e+00
 0.00000000e+00 4.08546946e-08 4.27002264e-08 1.33722313e-07
 0.00000000e+00 0.00000000e+00 0.00000000e+00 1.44676636e-08
 0.00000000e+00 0.00000000e+00 0.00000000e+00 0.00000000e+00
 0.00000000e+00 0.00000000e+00 0.00000000e+00 0.00000000e+00
 0.00000000e+00 0.00000000e+00 0.00000000e+00 0.00000000e+00
 0.00000000e+00 0.00000000e+00 0.00000000e+00 0.00000000e+00
 0.00000000e+00 0.00000000e+00 4.08546946e-08 1.44676636e-08
 0.00000000e+00 0.00000000e+00 0.00000000e+00 1.39490879e-06]","[[-0.00142128 -0.00013769]
 [-0.00012888 -0.00014721]]",[],0.0,0.0
1787133737.9116738,0.11016464055631642,-1.2180584893479456,0.10280012895989676,"[5.66925880e-07 4.27002264e-08 0.00000000e+00 0.00000000e+00
 0.00000000e+00 4.08546946e-08 4.27002264e-08 1.33722313e-07
 0.00000000e+00 0.00000000e+00 0.00000000e+00 1.44676636e-08
 0.00000000e+00 0.00000000e+00 0.00000000e+00 0.00000000e+00
 0.00000000e+00 0.00000000e+00 0.00000000e+00 0.00000000e+00
 0.00000000e+00 0.00000000e+00 0.00000000e+00 0.00000000e+00
 0.00000000e+00 0.00000000e+00 0.00000000e+00 0.00000000e+00
 0.00000000e+00 0.00000000e+00 4.08546946e-08 1.44676636e-08
 0.00000000e+00 0.00000000e+00 0.00000000e+00 1.39490879e-06]","[[-0.00142128 -0.00013769]
 [-0.00012888 -0.00014721]]",[],0.0,0.0
1787133737.965492,0.11016464055631642,-1.2180584893479456,0.10280012895989676,"[5.66925880e-07 4.27002264e-08 0.00000000e+00 0.00000000e+00
 0.00000000e+00 4.08546946e-08 4.27002264e-08 1.33722313e-07
 0.00000000e+00 0.00000000e+00 0.00000000e+00 1.44676636e-08
 0.00000000e+00 0.00000000e+00 0.00000000e+00 0.00000000e+00
 0.00000000e+00 0.00000000e+00 0.00000000e+00 0.00000000e+00
 0.00000000e+00 0.00000000e+00 0.00000000e+00 0.00000000e+00
 0.00000000e+00 0.00000000e+00 0.00000000e+00 0.00000000e+00
 0.00000000e+00 0.00000000e+00 4.08546946e-08 1.44676636e-08
 0.00000000e+00 0.00000000e+00 0.00000000e+00 1.39490879e-06]","[[-0.00142128 -0.00013769]
 [-0.00012888 -0.00014721]]",[],0.0,0.0
1787133738.0119333,0.11016464055631642,-1.2180584893479456,0.10280012895989676,"[5.66925880e-07 4.27002264e-08 0.00000000e+00 0.00000000e+00
 0.00000000e+00 4.08546946e-08 4.27002264e-08 1.33722313e-07
 0.00000000e+00 0.00000000e+00 0.00000000e+00 1.44676636e-08
 0.00000000e+00 0.00000000e+00 0.00000000e+00 0.00000000e+00
 0.00000000e+00 0.00000000e+00 0.00000000e+00 0.00000000e+00
 0.00000000e+00 0.00000000e+00 0.00000000e+00 0.00000000e+00
 0.00000000e+00 0.00000000e+00 0.00000000e+00 0.00000000e+00
 0.00000000e+00 0.00000000e+00 4.08546946e-08 1.44676636e-08
 0.00000000e+00 0.00000000e+00 0.00000000e+00 1.39490879e-06]","[[-0.00142128 -0.00013769]
 [-0.00012888 -0.00014721]]",[],0.0,0.0
1787133738.069393,0.11016464055631642,-1.2180584893479456,0.10280012895989676,"[5.66925880e-07 4.27002264e-08 0.00000000e+00 0.00000000e+00
 0.00000000e+00 4.08546946e-08 4.27002264e-08 1.33722313e-07
 0.00000000e+00 0.00000000e+00 0.00000000e+00 1.44676636e-08
 0.00000000e+00 0.00000000e+00 0.00000000e+00 0.00000000e+00
 0.00000000e+00 0.00000000e+00 0.00000000e+00 0.00000000e+00
 0.00000000e+00 0.00000000e+00 0.00000000e+00 0.00000000e+00
 0.00000000e+00 0.00000000e+00 0.00000000e+00 0.00000000e+00
 0.00000000e+00 0.00000000e+00 4.08546946e-08 1.44676636e-08
 0.00000000e+00 0.00000000e+00 0.00000000e+00 1.39490879e-06]","[[-0.00142128 -0.00013769]
 [-0.00012888 -0.00014721]]",[],0.0,0.0
1787133738.1107829,0.11016464055631642,-1.2180584893479456,0.10280012895989676,"[5.66925880e-07 4.27002264e-08 0.00000000e+00 0.00000000e+00
 0.00000000e+00 4.08546946e-08 4.27002264e-08 1.33722313e-07
 0.00000000e+00 0.00000000e+00 0.00000000e+00 1.44676636e-08
 0.00000000e+00 0.00000000e+00 0.00000000e+00 0.00000000e+00
 0.00000000e+00 0.00000000e+00 0.00000000e+00 0.00000000e+00
 0.00000000e+00 0.00000000e+00 0.00000000e+00 0.00000000e+00
 0.00000000e+00 0.00000000e+00 0.00000000e+00 0.00000000e+00
 0.00000000e+00 0.00000000e+00 4.08546946e-08 1.44676636e-08
 0.00000000e+00 0.00000000e+00 0.00000000e+00 1.39490879e-06]","[[-0.00142128 -0.00013769]
 [-0.00012888 -0.00014721]]",[],0.0,0.0
1787133738.1619153,0.11016464055631642,-1.2180584893479456,0.10280012895989676,"[5.66925880e-07 4.27002264e-08 0.00000000e+00 0.00000000e+00
 0.00000000e+00 4.08546946e-08 4.27002264e-08 1.33722313e-07
 0.00000000e+00 0.00000000e+00 0.00000000e+00 1.44676636e-08
 0.00000000e+00 0.00000000e+00 0.00000000e+00 0.00000000e+00
 0.00000000e+00 0.00000000e+00 0.00000000e+00 0.00000000e+00
 0.00000000e+00 0.00000000e+00 0.00000000e+00 0.00000000e+00
 0.00000000e+00 0.00000000e+00 0.00000000e+00 0.00000000e+00
 0.00000000e+00 0.00000000e+00 4.08546946e-08 1.44676636e-08
 0.00000000e+00 0.00000000e+00 0.00000000e+00 1.39490879e-06]","[[-0.00142128 -0.00013769]
 [-0.00012888 -0.00014721]]",[],0.0,0.0
1787133738.2947125,0.11016464055631642,-1.2180584893479456,0.10280012895989676,"[5.66925880e-07 4.27002264e-08 0.00000000e+00 0.00000000e+00
 0.00000000e+00 4.08546946e-08 4.27002264e-08 1.33722313e-07
 0.00000000e+00 0.00000000e+00 0.00000000e+00 1.44676636e-08
 0.00000000e+00 0.00000000e+00 0.00000000e+00 0.00000000e+00
 0.00000000e+00 0.00000000e+00 0.00000000e+00 0.00000000e+00
 0.00000000e+00 0.00000000e+00 0.00000000e+00 0.00000000e+00
 0.00000000e+00 0.00000000e+00 0.00000000e+00 0.00000000e+00
 0.00000000e+00 0.00000000e+00 4.08546946e-08 1.44676636e-08
 0.00000000e+00 0.00000000e+00 0.00000000e+00 1.39490879e-06]","[[-0.00142128 -0.00013769]
 [-0.00012888 -0.00014721]]",[],0.0,0.0
1787133738.3491697,0.11016464055631642,-1.2180584893479456,0.10280012895989676,"[5.66925880e-07 4.27002264e-08 0.00000000e+00 0.00000000e+00
 0.00000000e+00 4.08546946e-08 4.27002264e-08 1.33722313e-07
 0.00000000e+00 0.00000000e+00 0.00000000e+00 1.44676636e-08
 0.00000000e+00 0.00000000e+00 0.00000000e+00 0.00000000e+00
 0.00000000e+00 0.00000000e+00 0.00000000e+00 0.00000000e+00
 0.00000000e+00 0.00000000e+00 0.00000000e+00 0.00000000e+00
 0.00000000e+00 0.00000000e+00 0.00000000e+00 0.00000000e+00
 0.00000000e+00 0.00000000e+00 4.08546946e-08 1.44676636e-08
 0.00000000e+00 0.00000000e+00 0.00000000e+00 1.39490879e-06]","[[-0.00142128 -0.00013769]
 [-0.00012888 -0.00014721]]",[],0.0,0.0
1787133738.3656938,0.11016464055631642,-1.2180584893479456,0.10280012895989676,"[5.66925880e-07 4.27002264e-08 0.00000000e+00 0.00000000e+00
 0.00000000e+00 4.08546946e-08 4.27002264e-08 1.33722313e-07
 0.00000000e+00 0.00000000e+00 0.00000000e+00 1.44676636e-08
 0.00000000e+00 0.00000000e+00 0.00000000e+00 0.00000000e+00
 0.00000000e+00 0.00000000e+00 0.00000000e+00 0.00000000e+00
 0.00000000e+00 0.00000000e+00 0.00000000e+00 0.00000000e+00
 0.00000000e+00 0.00000000e+00 0.00000000e+00 0.00000000e+00
 0.00000000e+00 0.00000000e+00 4.08546946e-08 1.44676636e-08
 0.00000000e+00 0.00000000e+00 0.00000000e+00 1.39490879e-06]","[[-0.00142128 -0.00013769]
 [-0.00012888 -0.00014721]]",[],0.0,0.0
1787133738.4087343,0.10985220354056927,-1.217795605394048,0.10184045373399854,"[5.82689686e-07 4.52851918e-08 0.00000000e+00 0.00000000e+00
 0.00000000e+00 5.02852117e-08 4.52851918e-08 1.29218373e-07
 0.00000000e+00 0.00000000e+00 0.00000000e+00 1.53592156e-08
 0.00000000e+00 0.00000000e+00 0.00000000e+00 0.00000000e+00
 0.00000000e+00 0.00000000e+00 0.00000000e+00 0.00000000e+00
 0.00000000e+00 0.00000000e+00 0.00000000e+00 0.00000000e+00
 0.00000000e+00 0.00000000e+00 0.00000000e+00 0.00000000e+00
 0.00000000e+00 0.00000000e+00 5.02852117e-08 1.53592156e-08
 0.00000000e+00 0.00000000e+00 0.00000000e+00 1.42215875e-06]","[[-0.00146111 -0.00016364]
 [-0.00013891 -0.00014612]]",[],0.0,0.0
1787133738.4618988,0.10985220354056927,-1.217795605394048,0.10184045373399854,"[5.82689686e-07 4.52851918e-08 0.00000000e+00 0.00000000e+00
 0.00000000e+00 5.02852117e-08 4.52851918e-08 1.29218373e-07
 0.00000000e+00 0.00000000e+00 0.00000000e+00 1.53592156e-08
 0.00000000e+00 0.00000000e+00 0.00000000e+00 0.00000000e+00
 0.00000000e+00 0.00000000e+00 0.00000000e+00 0.00000000e+00
 0.00000000e+00 0.00000000e+00 0.00000000e+00 0.00000000e+00
 0.00000000e+00 0.00000000e+00 0.00000000e+00 0.00000000e+00
 0.00000000e+00 0.00000000e+00 5.02852117e-08 1.53592156e-08
 0.00000000e+00 0.00000000e+00 0.00000000e+00 1.42215875e-06]","[[-0.00146111 -0.00016364]
 [-0.00013891 -0.00014612]]",[],0.0,0.0
1787133738.5134206,0.10985220354056927,-1.217795605394048,0.10184045373399854,"[5.82689686e-07 4.52851918e-08 0.00000000e+00 0.00000000e+00
 0.00000000e+00 5.02852117e-08 4.52851918e-08 1.29218373e-07
 0.00000000e+00 0.00000000e+00 0.00000000e+00 1.53592156e-08
 0.00000000e+00 0.00000000e+00 0.00000000e+00 0.00000000e+00
 0.00000000e+00 0.00000000e+00 0.00000000e+00 0.00000000e+00
 0.00000000e+00 0.00000000e+00 0.00000000e+00 0.00000000e+00
 0.00000000e+00 0.00000000e+00 0.00000000e+00 0.00000000e+00
 0.00000000e+00 0.00000000e+00 5.02852117e-08 1.53592156e-08
 0.00000000e+00 0.00000000e+00 0.00000000e+00 1.42215875e-06]","[[-0.00146111 -0.00016364]
 [-0.00013891 -0.00014612]]",[],0.0,0.0
1787133738.5920026,0.10985220354056927,-1.217795605394048,0.10184045373399854,"[5.82689686e-07 4.52851918e-08 0.00000000e+00 0.00000000e+00
 0.00000000e+00 5.02852117e-08 4.52851918e-08 1.29218373e-07
 0.00000000e+00 0.00000000e+00 0.00000000e+00 1.53592156e-08
 0.00000000e+00 0.00000000e+00 0.00000000e+00 0.00000000e+00
 0.00000000e+00 0.00000000e+00 0.00000000e+00 0.00000000e+00
 0.00000000e+00 0.00000000e+00 0.00000000e+00 0.00000000e+00
 0.00000000e+00 0.00000000e+00 0.00000000e+00 0.00000000e+00
 0.00000000e+00 0.00000000e+00 5.02852117e-08 1.53592156e-08
 0.00000000e+00 0.00000000e+00 0.00000000e+00 1.42215875e-06]","[[-0.00146111 -0.00016364]
 [-0.00013891 -0.00014612]]",[],0.0,0.0
1787133738.6568806,0.10985220354056927,-1.217795605394048,0.10184045373399854,"[5.82689686e-07 4.52851918e-08 0.00000000e+00 0.00000000e+00
 0.00000000e+00 5.02852117e-08 4.52851918e-08 1.29218373e-07
 0.00000000e+00 0.00000000e+00 0.00000000e+00 1.53592156e-08
 0.00000000e+00 0.00000000e+00 0.00000000e+00 0.00000000e+00
 0.00000000e+00 0.00000000e+00 0.00000000e+00 0.00000000e+00
 0.00000000e+00 0.00000000e+00 0.00000000e+00 0.00000000e+00
 0.00000000e+00 0.00000000e+00 0.00000000e+00 0.00000000e+00
 0.00000000e+00 0.00000000e+00 5.02852117e-08 1.53592156e-08
 0.00000000e+00 0.00000000e+00 0.00000000e+00 1.42215875e-06]","[[-0.00146111 -0.00016364]
 [-0.00013891 -0.00014612]]",[],0.0,0.0
1787133738.675071,0.10985220354056927,-1.217795605394048,0.10184045373399854,"[5.82689686e-07 4.52851918e-08 0.00000000e+00 0.00000000e+00
 0.00000000e+00 5.02852117e-08 4.52851918e-08 1.29218373e-07
 0.00000000e+00 0.00000000e+00 0.00000000e+00 1.53592156e-08
 0.00000000e+00 0.00000000e+00 0.00000000e+00 0.00000000e+00
 0.00000000e+00 0.00000000e+00 0.00000000e+00 0.00000000e+00
 0.00000000e+00 0.00000000e+00 0.00000000e+00 0.00000000e+00
 0.00000000e+00 0.00000000e+00 0.00000000e+00 0.00000000e+00
 0.00000000e+00 0.00000000e+00 5.02852117e-08 1.53592156e-08
 0.00000000e+00 0.00000000e+00 0.00000000e+00 1.42215875e-06]","[[-0.00146111 -0.00016364]
 [-0.00013891 -0.00014612]]",[],0.0,0.0
1787133738.7114604,0.10985220354056927,-1.217795605394048,0.10184045373399854,"[5.82689686e-07 4.52851918e-08 0.00000000e+00 0.00000000e+00
 0.00000000e+00 5.02852117e-08 4.52851918e-08 1.29218373e-07
 0.00000000e+00 0.00000000e+00 0.00000000e+00 1.53592156e-08
 0.00000000e+00 0.00000000e+00 0.00000000e+00 0.00000000e+00
 0.00000000e+00 0.00000000e+00 0.00000000e+00 0.00000000e+00
 0.00000000e+00 0.00000000e+00 0.00000000e+00 0.00000000e+00
 0.00000000e+00 0.00000000e+00 0.00000000e+00 0.00000000e+00
 0.00000000e+00 0.00000000e+00 5.02852117e-08 1.53592156e-08
 0.00000000e+00 0.00000000e+00 0.00000000e+00 1.42215875e-06]","[[-0.00146111 -0.00016364]
 [-0.00013891 -0.00014612]]",[],0.0,0.0
1787133738.8297925,0.10985220354056927,-1.217795605394048,0.10184045373399854,"[5.82689686e-07 4.52851918e-08 0.00000000e+00 0.00000000e+00
 0.00000000e+00 5.02852117e-08 4.52851918e-08 1.29218373e-07
 0.00000000e+00 0.00000000e+00 0.00000000e+00 1.53592156e-08
 0.00000000e+00 0.00000000e+00 0.00000000e+00 0.00000000e+00
 0.00000000e+00 0.00000000e+00 0.00000000e+00 0.00000000e+00
 0.00000000e+00 0.00000000e+00 0.00000000e+00 0.00000000e+00
 0.00000000e+00 0.00000000e+00 0.00000000e+00 0.00000000e+00
 0.00000000e+00 0.00000000e+00 5.02852117e-08 1.53592156e-08
 0.00000000e+00 0.00000000e+00 0.00000000e+00 1.42215875e-06]","[[-0.00146111 -0.00016364]
 [-0.00013891 -0.00014612]]",[],0.0,0.0
1787133738.9094727,0.10985220354056927,-1.217795605394048,0.10184045373399854,"[5.82689686e-07 4.52851918e-08 0.00000000e+00 0.00000000e+00
 0.00000000e+00 5.02852117e-08 4.52851918e-08 1.29218373e-07
 0.00000000e+00 0.00000000e+00 0.00000000e+00 1.53592156e-08
 0.00000000e+00 0.00000000e+00 0.00000000e+00 0.00000000e+00
 0.00000000e+00 0.00000000e+00 0.00000000e+00 0.00000000e+00
 0.00000000e+00 0.00000000e+00 0.00000000e+00 0.00000000e+00
 0.00000000e+00 0.00000000e+00 0.00000000e+00 0.00000000e+00
 0.00000000e+00 0.00000000e+00 5.02852117e-08 1.53592156e-08
 0.00000000e+00 0.00000000e+00 0.00000000e+00 1.42215875e-06]","[[-0.00146111 -0.00016364]
 [-0.00013891 -0.00014612]]",[],0.0,0.0
1787133738.974421,0.10980454539103862,-1.2173958084732868,0.10188436630835532,"[5.83401085e-07 4.59168825e-08 0.00000000e+00 0.00000000e+00
 0.00000000e+00 4.19028034e-08 4.59168825e-08 1.24995898e-07
 0.00000000e+00 0.00000000e+00 0.00000000e+00 1.42389701e-08
 0.00000000e+00 0.00000000e+00 0.00000000e+00 0.00000000e+00
 0.00000000e+00 0.00000000e+00 0.00000000e+00 0.00000000e+00
 0.00000000e+00 0.00000000e+00 0.00000000e+00 0.00000000e+00
 0.00000000e+00 0.00000000e+00 0.00000000e+00 0.00000000e+00
 0.00000000e+00 0.00000000e+00 4.19028034e-08 1.42389701e-08
 0.00000000e+00 0.00000000e+00 0.00000000e+00 1.42125778e-06]","[[-0.00146111 -0.00016364]
 [-0.00013891 -0.00014612]]",[],0.0,0.0
1787133739.0123308,0.10980454539103862,-1.2173958084732868,0.10188436630835532,"[5.83401085e-07 4.59168825e-08 0.00000000e+00 0.00000000e+00
 0.00000000e+00 4.19028034e-08 4.59168825e-08 1.24995898e-07
 0.00000000e+00 0.00000000e+00 0.00000000e+00 1.42389701e-08
 0.00000000e+00 0.00000000e+00 0.00000000e+00 0.00000000e+00
 0.00000000e+00 0.00000000e+00 0.00000000e+00 0.00000000e+00
 0.00000000e+00 0.00000000e+00 0.00000000e+00 0.00000000e+00
 0.00000000e+00 0.00000000e+00 0.00000000e+00 0.00000000e+00
 0.00000000e+00 0.00000000e+00 4.19028034e-08 1.42389701e-08
 0.00000000e+00 0.00000000e+00 0.00000000e+00 1.42125778e-06]","[[-0.00146247 -0.00014973]
 [-0.00013066 -0.00014017]]",[],0.0,0.0
1787133739.0961714,0.10980454539103862,-1.2173958084732868,0.10188436630835532,"[5.83401085e-07 4.59168825e-08 0.00000000e+00 0.00000000e+00
 0.00000000e+00 4.19028034e-08 4.59168825e-08 1.24995898e-07
 0.00000000e+00 0.00000000e+00 0.00000000e+00 1.42389701e-08
 0.00000000e+00 0.00000000e+00 0.00000000e+00 0.00000000e+00
 0.00000000e+00 0.00000000e+00 0.00000000e+00 0.00000000e+00
 0.00000000e+00 0.00000000e+00 0.00000000e+00 0.00000000e+00
 0.00000000e+00 0.00000000e+00 0.00000000e+00 0.00000000e+00
 0.00000000e+00 0.00000000e+00 4.19028034e-08 1.42389701e-08
 0.00000000e+00 0.00000000e+00 0.00000000e+00 1.42125778e-06]","[[-0.00146247 -0.00014973]
 [-0.00013066 -0.00014017]]",[],0.0,0.0
1787133739.152716,0.10980454539103862,-1.2173958084732868,0.10188436630835532,"[5.83401085e-07 4.59168825e-08 0.00000000e+00 0.00000000e+00
 0.00000000e+00 4.19028034e-08 4.59168825e-08 1.24995898e-07
 0.00000000e+00 0.00000000e+00 0.00000000e+00 1.42389701e-08
 0.00000000e+00 0.00000000e+00 0.00000000e+00 0.00000000e+00
 0.00000000e+00 0.00000000e+00 0.00000000e+00 0.00000000e+00
 0.00000000e+00 0.00000000e+00 0.00000000e+00 0.00000000e+00
 0.00000000e+00 0.00000000e+00 0.00000000e+00 0.00000000e+00
 0.00000000e+00 0.00000000e+00 4.19028034e-08 1.42389701e-08
 0.00000000e+00 0.00000000e+00 0.00000000e+00 1.42125778e-06]","[[-0.00146247 -0.00014973]
 [-0.00013066 -0.00014017]]",[],0.0,0.0
1787133739.1632557,0.10980454539103862,-1.2173958084732868,0.10188436630835532,"[5.83401085e-07 4.59168825e-08 0.00000000e+00 0.00000000e+00
 0.00000000e+00 4.19028034e-08 4.59168825e-08 1.24995898e-07
 0.00000000e+00 0.00000000e+00 0.00000000e+00 1.42389701e-08
 0.00000000e+00 0.00000000e+00 0.00000000e+00 0.00000000e+00
 0.00000000e+00 0.00000000e+00 0.00000000e+00 0.00000000e+00
 0.00000000e+00 0.00000000e+00 0.00000000e+00 0.00000000e+00
 0.00000000e+00 0.00000000e+00 0.00000000e+00 0.00000000e+00
 0.00000000e+00 0.00000000e+00 4.19028034e-08 1.42389701e-08
 0.00000000e+00 0.00000000e+00 0.00000000e+00 1.42125778e-06]","[[-0.00146247 -0.00014973]
 [-0.00013066 -0.00014017]]",[],0.0,0.0
1787133739.2090864,0.10980454539103862,-1.2173958084732868,0.10188436630835532,"[5.83401085e-07 4.59168825e-08 0.00000000e+00 0.00000000e+00
 0.00000000e+00 4.19028034e-08 4.59168825e-08 1.24995898e-07
 0.00000000e+00 0.00000000e+00 0.00000000e+00 1.42389701e-08
 0.00000000e+00 0.00000000e+00 0.00000000e+00 0.00000000e+00
 0.00000000e+00 0.00000000e+00 0.00000000e+00 0.00000000e+00
 0.00000000e+00 0.00000000e+00 0.00000000e+00 0.00000000e+00
 0.00000000e+00 0.00000000e+00 0.00000000e+00 0.00000000e+00
 0.00000000e+00 0.00000000e+00 4.19028034e-08 1.42389701e-08
 0.00000000e+00 0.00000000e+00 0.00000000e+00 1.42125778e-06]","[[-0.00146247 -0.00014973]
 [-0.00013066 -0.00014017]]",[],0.0,0.0
1787133739.3430634,0.10980454539103862,-1.2173958084732868,0.10188436630835532,"[5.83401085e-07 4.59168825e-08 0.00000000e+00 0.00000000e+00
 0.00000000e+00 4.19028034e-08 4.59168825e-08 1.24995898e-07
 0.00000000e+00 0.00000000e+00 0.00000000e+00 1.42389701e-08
 0.00000000e+00 0.00000000e+00 0.00000000e+00 0.00000000e+00
 0.00000000e+00 0.00000000e+00 0.00000000e+00 0.00000000e+00
 0.00000000e+00 0.00000000e+00 0.00000000e+00 0.00000000e+00
 0.00000000e+00 0.00000000e+00 0.00000000e+00 0.00000000e+00
 0.00000000e+00 0.00000000e+00 4.19028034e-08 1.42389701e-08
 0.00000000e+00 0.00000000e+00 0.00000000e+00 1.42125778e-06]","[[-0.00146247 -0.00014973]
 [-0.00013066 -0.00014017]]",[],0.0,0.0
1787133739.358911,0.10980454539103862,-1.2173958084732868,0.10188436630835532,"[5.83401085e-07 4.59168825e-08 0.00000000e+00 0.00000000e+00
 0.00000000e+00 4.19028034e-08 4.59168825e-08 1.24995898e-07
 0.00000000e+00 0.00000000e+00 0.00000000e+00 1.42389701e-08
 0.00000000e+00 0.00000000e+00 0.00000000e+00 0.00000000e+00
 0.00000000e+00 0.00000000e+00 0.00000000e+00 0.00000000e+00
 0.00000000e+00 0.00000000e+00 0.00000000e+00 0.00000000e+00
 0.00000000e+00 0.00000000e+00 0.00000000e+00 0.00000000e+00
 0.00000000e+00 0.00000000e+00 4.19028034e-08 1.42389701e-08
 0.00000000e+00 0.00000000e+00 0.00000000e+00 1.42125778e-06]","[[-0.00146247 -0.00014973]
 [-0.00013066 -0.00014017]]",[],0.0,0.0
1787133739.442617,0.10980454539103862,-1.2173958084732868,0.10188436630835532,"[5.83401085e-07 4.59168825e-08 0.00000000e+00 0.00000000e+00
 0.00000000e+00 4.19028034e-08 4.59168825e-08 1.24995898e-07
 0.00000000e+00 0.00000000e+00 0.00000000e+00 1.42389701e-08
 0.00000000e+00 0.00000000e+00 0.00000000e+00 0.00000000e+00
 0.00000000e+00 0.00000000e+00 0.00000000e+00 0.00000000e+00
 0.00000000e+00 0.00000000e+00 0.00000000e+00 0.00000000e+00
 0.00000000e+00 0.00000000e+00 0.00000000e+00 0.00000000e+00
 0.00000000e+00 0.00000000e+00 4.19028034e-08 1.42389701e-08
 0.00000000e+00 0.00000000e+00 0.00000000e+00 1.42125778e-06]","[[-0.00146247 -0.00014973]
 [-0.00013066 -0.00014017]]",[],0.0,0.0
1787133739.4617672,0.10980454539103862,-1.2173958084732868,0.10188436630835532,"[5.83401085e-07 4.59168825e-08 0.00000000e+00 0.00000000e+00
 0.00000000e+00 4.19028034e-08 4.59168825e-08 1.24995898e-07
 0.00000000e+00 0.00000000e+00 0.00000000e+00 1.42389701e-08
 0.00000000e+00 0.00000000e+00 0.00000000e+00 0.00000000e+00
 0.00000000e+00 0.00000000e+00 0.00000000e+00 0.00000000e+00
 0.00000000e+00 0.00000000e+00 0.00000000e+00 0.00000000e+00
 0.00000000e+00 0.00000000e+00 0.00000000e+00 0.00000000e+00
 0.00000000e+00 0.00000000e+00 4.19028034e-08 1.42389701e-08
 0.00000000e+00 0.00000000e+00 0.00000000e+00 1.42125778e-06]","[[-0.00146247 -0.00014973]
 [-0.00013066 -0.00014017]]",[],0.0,0.0
1787133739.5102458,0.10980454539103862,-1.2173958084732868,0.10188436630835532,"[5.83401085e-07 4.59168825e-08 0.00000000e+00 0.00000000e+00
 0.00000000e+00 4.19028034e-08 4.59168825e-08 1.24995898e-07
 0.00000000e+00 0.00000000e+00 0.00000000e+00 1.42389701e-08
 0.00000000e+00 0.00000000e+00 0.00000000e+00 0.00000000e+00
 0.00000000e+00 0.00000000e+00 0.00000000e+00 0.00000000e+00
 0.00000000e+00 0.00000000e+00 0.00000000e+00 0.00000000e+00
 0.00000000e+00 0.00000000e+00 0.00000000e+00 0.00000000e+00
 0.00000000e+00 0.00000000e+00 4.19028034e-08 1.42389701e-08
 0.00000000e+00 0.00000000e+00 0.00000000e+00 1.42125778e-06]","[[-0.00146247 -0.00014973]
 [-0.00013066 -0.00014017]]",[],0.0,0.0
1787133739.5587065,0.10980454539103862,-1.2173958084732868,0.10188436630835532,"[5.83401085e-07 4.59168825e-08 0.00000000e+00 0.00000000e+00
 0.00000000e+00 4.19028034e-08 4.59168825e-08 1.24995898e-07
 0.00000000e+00 0.00000000e+00 0.00000000e+00 1.42389701e-08
 0.00000000e+00 0.00000000e+00 0.00000000e+00 0.00000000e+00
 0.00000000e+00 0.00000000e+00 0.00000000e+00 0.00000000e+00
 0.00000000e+00 0.00000000e+00 0.00000000e+00 0.00000000e+00
 0.00000000e+00 0.00000000e+00 0.00000000e+00 0.00000000e+00
 0.00000000e+00 0.00000000e+00 4.19028034e-08 1.42389701e-08
 0.00000000e+00 0.00000000e+00 0.00000000e+00 1.42125778e-06]","[[-0.00146247 -0.00014973]
 [-0.00013066 -0.00014017]]",[],0.0,0.0
1787133739.6107395,0.10980454539103862,-1.2173958084732868,0.10188436630835532,"[5.83401085e-07 4.59168825e-08 0.00000000e+00 0.00000000e+00
 0.00000000e+00 4.19028034e-08 4.59168825e-08 1.24995898e-07
 0.00000000e+00 0.00000000e+00 0.00000000e+00 1.42389701e-08
 0.00000000e+00 0.00000000e+00 0.00000000e+00 0.00000000e+00
 0.00000000e+00 0.00000000e+00 0.00000000e+00 0.00000000e+00
 0.00000000e+00 0.00000000e+00 0.00000000e+00 0.00000000e+00
 0.00000000e+00 0.00000000e+00 0.00000000e+00 0.00000000e+00
 0.00000000e+00 0.00000000e+00 4.19028034e-08 1.42389701e-08
 0.00000000e+00 0.00000000e+00 0.00000000e+00 1.42125778e-06]","[[-0.00146247 -0.00014973]
 [-0.00013066 -0.00014017]]",[],0.0,0.0
1787133739.6722465,0.10980454539103862,-1.2173958084732868,0.10188436630835532,"[5.83401085e-07 4.59168825e-08 0.00000000e+00 0.00000000e+00
 0.00000000e+00 4.19028034e-08 4.59168825e-08 1.24995898e-07
 0.00000000e+00 0.00000000e+00 0.00000000e+00 1.42389701e-08
 0.00000000e+00 0.00000000e+00 0.00000000e+00 0.00000000e+00
 0.00000000e+00 0.00000000e+00 0.00000000e+00 0.00000000e+00
 0.00000000e+00 0.00000000e+00 0.00000000e+00 0.00000000e+00
 0.00000000e+00 0.00000000e+00 0.00000000e+00 0.00000000e+00
 0.00000000e+00 0.00000000e+00 4.19028034e-08 1.42389701e-08
 0.00000000e+00 0.00000000e+00 0.00000000e+00 1.42125778e-06]","[[-0.00146247 -0.00014973]
 [-0.00013066 -0.00014017]]",[],0.0,0.0
1787133739.7140446,0.10980454539103862,-1.2173958084732868,0.10188436630835532,"[5.83401085e-07 4.59168825e-08 0.00000000e+00 0.00000000e+00
 0.00000000e+00 4.19028034e-08 4.59168825e-08 1.24995898e-07
 0.00000000e+00 0.00000000e+00 0.00000000e+00 1.42389701e-08
 0.00000000e+00 0.00000000e+00 0.00000000e+00 0.00000000e+00
 0.00000000e+00 0.00000000e+00 0.00000000e+00 0.00000000e+00
 0.00000000e+00 0.00000000e+00 0.00000000e+00 0.00000000e+00
 0.00000000e+00 0.00000000e+00 0.00000000e+00 0.00000000e+00
 0.00000000e+00 0.00000000e+00 4.19028034e-08 1.42389701e-08
 0.00000000e+00 0.00000000e+00 0.00000000e+00 1.42125778e-06]","[[-0.00146247 -0.00014973]
 [-0.00013066 -0.00014017]]",[],0.0,0.0
1787133739.7589638,0.10980454539103862,-1.2173958084732868,0.10188436630835532,"[5.83401085e-07 4.59168825e-08 0.00000000e+00 0.00000000e+00
 0.00000000e+00 4.19028034e-08 4.59168825e-08 1.24995898e-07
 0.00000000e+00 0.00000000e+00 0.00000000e+00 1.42389701e-08
 0.00000000e+00 0.00000000e+00 0.00000000e+00 0.00000000e+00
 0.00000000e+00 0.00000000e+00 0.00000000e+00 0.00000000e+00
 0.00000000e+00 0.00000000e+00 0.00000000e+00 0.00000000e+00
 0.00000000e+00 0.00000000e+00 0.00000000e+00 0.00000000e+00
 0.00000000e+00 0.00000000e+00 4.19028034e-08 1.42389701e-08
 0.00000000e+00 0.00000000e+00 0.00000000e+00 1.42125778e-06]","[[-0.00146247 -0.00014973]
 [-0.00013066 -0.00014017]]",[],0.0,0.0
1787133739.8130383,0.10980454539103862,-1.2173958084732868,0.10188436630835532,"[5.83401085e-07 4.59168825e-08 0.00000000e+00 0.00000000e+00
 0.00000000e+00 4.19028034e-08 4.59168825e-08 1.24995898e-07
 0.00000000e+00 0.00000000e+00 0.00000000e+00 1.42389701e-08
 0.00000000e+00 0.00000000e+00 0.00000000e+00 0.00000000e+00
 0.00000000e+00 0.00000000e+00 0.00000000e+00 0.00000000e+00
 0.00000000e+00 0.00000000e+00 0.00000000e+00 0.00000000e+00
 0.00000000e+00 0.00000000e+00 0.00000000e+00 0.00000000e+00
 0.00000000e+00 0.00000000e+00 4.19028034e-08 1.42389701e-08
 0.00000000e+00 0.00000000e+00 0.00000000e+00 1.42125778e-06]","[[-0.00146247 -0.00014973]
 [-0.00013066 -0.00014017]]",[],0.0,0.0
1787133739.8618236,0.10980454539103862,-1.2173958084732868,0.10188436630835532,"[5.83401085e-07 4.59168825e-08 0.00000000e+00 0.00000000e+00
 0.00000000e+00 4.19028034e-08 4.59168825e-08 1.24995898e-07
 0.00000000e+00 0.00000000e+00 0.00000000e+00 1.42389701e-08
 0.00000000e+00 0.00000000e+00 0.00000000e+00 0.00000000e+00
 0.00000000e+00 0.00000000e+00 0.00000000e+00 0.00000000e+00
 0.00000000e+00 0.00000000e+00 0.00000000e+00 0.00000000e+00
 0.00000000e+00 0.00000000e+00 0.00000000e+00 0.00000000e+00
 0.00000000e+00 0.00000000e+00 4.19028034e-08 1.42389701e-08
 0.00000000e+00 0.00000000e+00 0.00000000e+00 1.42125778e-06]","[[-0.00146247 -0.00014973]
 [-0.00013066 -0.00014017]]",[],0.0,0.0
1787133739.9308999,0.10980454539103862,-1.2173958084732868,0.10188436630835532,"[5.83401085e-07 4.59168825e-08 0.00000000e+00 0.00000000e+00
 0.00000000e+00 4.19028034e-08 4.59168825e-08 1.24995898e-07
 0.00000000e+00 0.00000000e+00 0.00000000e+00 1.42389701e-08
 0.00000000e+00 0.00000000e+00 0.00000000e+00 0.00000000e+00
 0.00000000e+00 0.00000000e+00 0.00000000e+00 0.00000000e+00
 0.00000000e+00 0.00000000e+00 0.00000000e+00 0.00000000e+00
 0.00000000e+00 0.00000000e+00 0.00000000e+00 0.00000000e+00
 0.00000000e+00 0.00000000e+00 4.19028034e-08 1.42389701e-08
 0.00000000e+00 0.00000000e+00 0.00000000e+00 1.42125778e-06]","[[-0.00146247 -0.00014973]
 [-0.00013066 -0.00014017]]",[],0.0,0.0
1787133739.9617403,0.10980454539103862,-1.2173958084732868,0.10188436630835532,"[5.83401085e-07 4.59168825e-08 0.00000000e+00 0.00000000e+00
 0.00000000e+00 4.19028034e-08 4.59168825e-08 1.24995898e-07
 0.00000000e+00 0.00000000e+00 0.00000000e+00 1.42389701e-08
 0.00000000e+00 0.00000000e+00 0.00000000e+00 0.00000000e+00
 0.00000000e+00 0.00000000e+00 0.00000000e+00 0.00000000e+00
 0.00000000e+00 0.00000000e+00 0.00000000e+00 0.00000000e+00
 0.00000000e+00 0.00000000e+00 0.00000000e+00 0.00000000e+00
 0.00000000e+00 0.00000000e+00 4.19028034e-08 1.42389701e-08
 0.00000000e+00 0.00000000e+00 0.00000000e+00 1.42125778e-06]","[[-0.00146247 -0.00014973]
 [-0.00013066 -0.00014017]]",[],0.0,0.0
1787133740.0401409,0.10980454539103862,-1.2173958084732868,0.10188436630835532,"[5.83401085e-07 4.59168825e-08 0.00000000e+00 0.00000000e+00
 0.00000000e+00 4.19028034e-08 4.59168825e-08 1.24995898e-07
 0.00000000e+00 0.00000000e+00 0.00000000e+00 1.42389701e-08
 0.00000000e+00 0.00000000e+00 0.00000000e+00 0.00000000e+00
 0.00000000e+00 0.00000000e+00 0.00000000e+00 0.00000000e+00
 0.00000000e+00 0.00000000e+00 0.00000000e+00 0.00000000e+00
 0.00000000e+00 0.00000000e+00 0.00000000e+00 0.00000000e+00
 0.00000000e+00 0.00000000e+00 4.19028034e-08 1.42389701e-08
 0.00000000e+00 0.00000000e+00 0.00000000e+00 1.42125778e-06]","[[-0.00146247 -0.00014973]
 [-0.00013066 -0.00014017]]",[],0.0,0.0
1787133740.0588973,0.10980454539103862,-1.2173958084732868,0.10188436630835532,"[5.83401085e-07 4.59168825e-08 0.00000000e+00 0.00000000e+00
 0.00000000e+00 4.19028034e-08 4.59168825e-08 1.24995898e-07
 0.00000000e+00 0.00000000e+00 0.00000000e+00 1.42389701e-08
 0.00000000e+00 0.00000000e+00 0.00000000e+00 0.00000000e+00
 0.00000000e+00 0.00000000e+00 0.00000000e+00 0.00000000e+00
 0.00000000e+00 0.00000000e+00 0.00000000e+00 0.00000000e+00
 0.00000000e+00 0.00000000e+00 0.00000000e+00 0.00000000e+00
 0.00000000e+00 0.00000000e+00 4.19028034e-08 1.42389701e-08
 0.00000000e+00 0.00000000e+00 0.00000000e+00 1.42125778e-06]","[[-0.00146247 -0.00014973]
 [-0.00013066 -0.00014017]]",[],0.0,0.0
1787133740.11267,0.10980454539103862,-1.2173958084732868,0.10188436630835532,"[5.83401085e-07 4.59168825e-08 0.00000000e+00 0.00000000e+00
 0.00000000e+00 4.19028034e-08 4.59168825e-08 1.24995898e-07
 0.00000000e+00 0.00000000e+00 0.00000000e+00 1.42389701e-08
 0.00000000e+00 0.00000000e+00 0.00000000e+00 0.00000000e+00
 0.00000000e+00 0.00000000e+00 0.00000000e+00 0.00000000e+00
 0.00000000e+00 0.00000000e+00 0.00000000e+00 0.00000000e+00
 0.00000000e+00 0.00000000e+00 0.00000000e+00 0.00000000e+00
 0.00000000e+00 0.00000000e+00 4.19028034e-08 1.42389701e-08
 0.00000000e+00 0.00000000e+00 0.00000000e+00 1.42125778e-06]","[[-0.00146247 -0.00014973]
 [-0.00013066 -0.00014017]]",[],0.0,0.0
1787133740.1591008,0.022416586113987853,0.011633609173001826,-0.027190893250305766,"[5.79879077e-07 3.52680640e-08 0.00000000e+00 0.00000000e+00
 0.00000000e+00 4.86352358e-08 3.52680640e-08 1.19923345e-07
 0.00000000e+00 0.00000000e+00 0.00000000e+00 9.81411689e-09
 0.00000000e+00 0.00000000e+00 0.00000000e+00 0.00000000e+00
 0.00000000e+00 0.00000000e+00 0.00000000e+00 0.00000000e+00
 0.00000000e+00 0.00000000e+00 0.00000000e+00 0.00000000e+00
 0.00000000e+00 0.00000000e+00 0.00000000e+00 0.00000000e+00
 0.00000000e+00 0.00000000e+00 4.86352358e-08 9.81411689e-09
 0.00000000e+00 0.00000000e+00 0.00000000e+00 1.33996096e-06]","[[-1.44378692e-03 -2.07759429e-04]
 [-7.36631073e-05 -1.24818004e-04]]",[],0.0,0.0
1787133740.2293663,0.022416586113987853,0.011633609173001826,-0.027190893250305766,"[5.79879077e-07 3.52680640e-08 0.00000000e+00 0.00000000e+00
 0.00000000e+00 4.86352358e-08 3.52680640e-08 1.19923345e-07
 0.00000000e+00 0.00000000e+00 0.00000000e+00 9.81411689e-09
 0.00000000e+00 0.00000000e+00 0.00000000e+00 0.00000000e+00
 0.00000000e+00 0.00000000e+00 0.00000000e+00 0.00000000e+00
 0.00000000e+00 0.00000000e+00 0.00000000e+00 0.00000000e+00
 0.00000000e+00 0.00000000e+00 0.00000000e+00 0.00000000e+00
 0.00000000e+00 0.00000000e+00 4.86352358e-08 9.81411689e-09
 0.00000000e+00 0.00000000e+00 0.00000000e+00 1.33996096e-06]","[[-1.44378692e-03 -2.07759429e-04]
 [-7.36631073e-05 -1.24818004e-04]]",[],0.0,0.0
1787133740.2629864,0.022416586113987853,0.011633609173001826,-0.027190893250305766,"[5.79879077e-07 3.52680640e-08 0.00000000e+00 0.00000000e+00
 0.00000000e+00 4.86352358e-08 3.52680640e-08 1.19923345e-07
 0.00000000e+00 0.00000000e+00 0.00000000e+00 9.81411689e-09
 0.00000000e+00 0.00000000e+00 0.00000000e+00 0.00000000e+00
 0.00000000e+00 0.00000000e+00 0.00000000e+00 0.00000000e+00
 0.00000000e+00 0.00000000e+00 0.00000000e+00 0.00000000e+00
 0.00000000e+00 0.00000000e+00 0.00000000e+00 0.00000000e+00
 0.00000000e+00 0.00000000e+00 4.86352358e-08 9.81411689e-09
 0.00000000e+00 0.00000000e+00 0.00000000e+00 1.33996096e-06]","[[-1.44378692e-03 -2.07759429e-04]
 [-7.36631073e-05 -1.24818004e-04]]",[],0.0,0.0
1787133740.3284426,0.022416586113987853,0.011633609173001826,-0.027190893250305766,"[5.79879077e-07 3.52680640e-08 0.00000000e+00 0.00000000e+00
 0.00000000e+00 4.86352358e-08 3.52680640e-08 1.19923345e-07
 0.00000000e+00 0.00000000e+00 0.00000000e+00 9.81411689e-09
 0.00000000e+00 0.00000000e+00 0.00000000e+00 0.00000000e+00
 0.00000000e+00 0.00000000e+00 0.00000000e+00 0.00000000e+00
 0.00000000e+00 0.00000000e+00 0.00000000e+00 0.00000000e+00
 0.00000000e+00 0.00000000e+00 0.00000000e+00 0.00000000e+00
 0.00000000e+00 0.00000000e+00 4.86352358e-08 9.81411689e-09
 0.00000000e+00 0.00000000e+00 0.00000000e+00 1.33996096e-06]","[[-1.44378692e-03 -2.07759429e-04]
 [-7.36631073e-05 -1.24818004e-04]]",[],0.0,0.0
1787133740.3591614,0.022416586113987853,0.011633609173001826,-0.027190893250305766,"[5.79879077e-07 3.52680640e-08 0.00000000e+00 0.00000000e+00
 0.00000000e+00 4.86352358e-08 3.52680640e-08 1.19923345e-07
 0.00000000e+00 0.00000000e+00 0.00000000e+00 9.81411689e-09
 0.00000000e+00 0.00000000e+00 0.00000000e+00 0.00000000e+00
 0.00000000e+00 0.00000000e+00 0.00000000e+00 0.00000000e+00
 0.00000000e+00 0.00000000e+00 0.00000000e+00 0.00000000e+00
 0.00000000e+00 0.00000000e+00 0.00000000e+00 0.00000000e+00
 0.00000000e+00 0.00000000e+00 4.86352358e-08 9.81411689e-09
 0.00000000e+00 0.00000000e+00 0.00000000e+00 1.33996096e-06]","[[-1.44378692e-03 -2.07759429e-04]
 [-7.36631073e-05 -1.24818004e-04]]",[],0.0,0.0
1787133740.430326,0.022416586113987853,0.011633609173001826,-0.027190893250305766,"[5.79879077e-07 3.52680640e-08 0.00000000e+00 0.00000000e+00
 0.00000000e+00 4.86352358e-08 3.52680640e-08 1.19923345e-07
 0.00000000e+00 0.00000000e+00 0.00000000e+00 9.81411689e-09
 0.00000000e+00 0.00000000e+00 0.00000000e+00 0.00000000e+00
 0.00000000e+00 0.00000000e+00 0.00000000e+00 0.00000000e+00
 0.00000000e+00 0.00000000e+00 0.00000000e+00 0.00000000e+00
 0.00000000e+00 0.00000000e+00 0.00000000e+00 0.00000000e+00
 0.00000000e+00 0.00000000e+00 4.86352358e-08 9.81411689e-09
 0.00000000e+00 0.00000000e+00 0.00000000e+00 1.33996096e-06]","[[-1.44378692e-03 -2.07759429e-04]
 [-7.36631073e-05 -1.24818004e-04]]",[],0.0,0.0
1787133740.459061,0.022416586113987853,0.011633609173001826,-0.027190893250305766,"[5.79879077e-07 3.52680640e-08 0.00000000e+00 0.00000000e+00
 0.00000000e+00 4.86352358e-08 3.52680640e-08 1.19923345e-07
 0.00000000e+00 0.00000000e+00 0.00000000e+00 9.81411689e-09
 0.00000000e+00 0.00000000e+00 0.00000000e+00 0.00000000e+00
 0.00000000e+00 0.00000000e+00 0.00000000e+00 0.00000000e+00
 0.00000000e+00 0.00000000e+00 0.00000000e+00 0.00000000e+00
 0.00000000e+00 0.00000000e+00 0.00000000e+00 0.00000000e+00
 0.00000000e+00 0.00000000e+00 4.86352358e-08 9.81411689e-09
 0.00000000e+00 0.00000000e+00 0.00000000e+00 1.33996096e-06]","[[-1.44378692e-03 -2.07759429e-04]
 [-7.36631073e-05 -1.24818004e-04]]",[],0.0,0.0
1787133740.5255232,0.022416586113987853,0.011633609173001826,-0.027190893250305766,"[5.79879077e-07 3.52680640e-08 0.00000000e+00 0.00000000e+00
 0.00000000e+00 4.86352358e-08 3.52680640e-08 1.19923345e-07
 0.00000000e+00 0.00000000e+00 0.00000000e+00 9.81411689e-09
 0.00000000e+00 0.00000000e+00 0.00000000e+00 0.00000000e+00
 0.00000000e+00 0.00000000e+00 0.00000000e+00 0.00000000e+00
 0.00000000e+00 0.00000000e+00 0.00000000e+00 0.00000000e+00
 0.00000000e+00 0.00000000e+00 0.00000000e+00 0.00000000e+00
 0.00000000e+00 0.00000000e+00 4.86352358e-08 9.81411689e-09
 0.00000000e+00 0.00000000e+00 0.00000000e+00 1.33996096e-06]","[[-1.44378692e-03 -2.07759429e-04]
 [-7.36631073e-05 -1.24818004e-04]]",[],0.0,0.0
1787133740.566305,0.022416586113987853,0.011633609173001826,-0.027190893250305766,"[5.79879077e-07 3.52680640e-08 0.00000000e+00 0.00000000e+00
 0.00000000e+00 4.86352358e-08 3.52680640e-08 1.19923345e-07
 0.00000000e+00 0.00000000e+00 0.00000000e+00 9.81411689e-09
 0.00000000e+00 0.00000000e+00 0.00000000e+00 0.00000000e+00
 0.00000000e+00 0.00000000e+00 0.00000000e+00 0.00000000e+00
 0.00000000e+00 0.00000000e+00 0.00000000e+00 0.00000000e+00
 0.00000000e+00 0.00000000e+00 0.00000000e+00 0.00000000e+00
 0.00000000e+00 0.00000000e+00 4.86352358e-08 9.81411689e-09
 0.00000000e+00 0.00000000e+00 0.00000000e+00 1.33996096e-06]","[[-1.44378692e-03 -2.07759429e-04]
 [-7.36631073e-05 -1.24818004e-04]]",[],0.0,0.0
1787133740.6329231,0.022416586113987853,0.011633609173001826,-0.027190893250305766,"[5.79879077e-07 3.52680640e-08 0.00000000e+00 0.00000000e+00
 0.00000000e+00 4.86352358e-08 3.52680640e-08 1.19923345e-07
 0.00000000e+00 0.00000000e+00 0.00000000e+00 9.81411689e-09
 0.00000000e+00 0.00000000e+00 0.00000000e+00 0.00000000e+00
 0.00000000e+00 0.00000000e+00 0.00000000e+00 0.00000000e+00
 0.00000000e+00 0.00000000e+00 0.00000000e+00 0.00000000e+00
 0.00000000e+00 0.00000000e+00 0.00000000e+00 0.00000000e+00
 0.00000000e+00 0.00000000e+00 4.86352358e-08 9.81411689e-09
 0.00000000e+00 0.00000000e+00 0.00000000e+00 1.33996096e-06]","[[-1.44378692e-03 -2.07759429e-04]
 [-7.36631073e-05 -1.24818004e-04]]",[],0.0,0.0
1787133740.675372,0.022416586113987853,0.011633609173001826,-0.027190893250305766,"[5.79879077e-07 3.52680640e-08 0.00000000e+00 0.00000000e+00
 0.00000000e+00 4.86352358e-08 3.52680640e-08 1.19923345e-07
 0.00000000e+00 0.00000000e+00 0.00000000e+00 9.81411689e-09
 0.00000000e+00 0.00000000e+00 0.00000000e+00 0.00000000e+00
 0.00000000e+00 0.00000000e+00 0.00000000e+00 0.00000000e+00
 0.00000000e+00 0.00000000e+00 0.00000000e+00 0.00000000e+00
 0.00000000e+00 0.00000000e+00 0.00000000e+00 0.00000000e+00
 0.00000000e+00 0.00000000e+00 4.86352358e-08 9.81411689e-09
 0.00000000e+00 0.00000000e+00 0.00000000e+00 1.33996096e-06]","[[-1.44378692e-03 -2.07759429e-04]
 [-7.36631073e-05 -1.24818004e-04]]",[],0.0,0.0
1787133740.71174,0.02413872354717006,0.010540057211720274,-0.033342121781353214,"[5.75441792e-07 2.60798438e-08 0.00000000e+00 0.00000000e+00
 0.00000000e+00 5.25907862e-08 2.60798438e-08 1.15562198e-07
 0.00000000e+00 0.00000000e+00 0.00000000e+00 9.72467157e-09
 0.00000000e+00 0.00000000e+00 0.00000000e+00 0.00000000e+00
 0.00000000e+00 0.00000000e+00 0.00000000e+00 0.00000000e+00
 0.00000000e+00 0.00000000e+00 0.00000000e+00 0.00000000e+00
 0.00000000e+00 0.00000000e+00 0.00000000e+00 0.00000000e+00
 0.00000000e+00 0.00000000e+00 5.25907862e-08 9.72467157e-09
 0.00000000e+00 0.00000000e+00 0.00000000e+00 1.36440424e-06]","[[-1.43417048e-03 -2.12571185e-04]
 [-5.20371393e-05 -1.21215006e-04]]",[],0.0,0.0
1787133740.7616932,0.02413872354717006,0.010540057211720274,-0.033342121781353214,"[5.75441792e-07 2.60798438e-08 0.00000000e+00 0.00000000e+00
 0.00000000e+00 5.25907862e-08 2.60798438e-08 1.15562198e-07
 0.00000000e+00 0.00000000e+00 0.00000000e+00 9.72467157e-09
 0.00000000e+00 0.00000000e+00 0.00000000e+00 0.00000000e+00
 0.00000000e+00 0.00000000e+00 0.00000000e+00 0.00000000e+00
 0.00000000e+00 0.00000000e+00 0.00000000e+00 0.00000000e+00
 0.00000000e+00 0.00000000e+00 0.00000000e+00 0.00000000e+00
 0.00000000e+00 0.00000000e+00 5.25907862e-08 9.72467157e-09
 0.00000000e+00 0.00000000e+00 0.00000000e+00 1.36440424e-06]","[[-1.43417048e-03 -2.12571185e-04]
 [-5.20371393e-05 -1.21215006e-04]]",[],0.0,0.0
1787133740.8527787,0.02413872354717006,0.010540057211720274,-0.033342121781353214,"[5.75441792e-07 2.60798438e-08 0.00000000e+00 0.00000000e+00
 0.00000000e+00 5.25907862e-08 2.60798438e-08 1.15562198e-07
 0.00000000e+00 0.00000000e+00 0.00000000e+00 9.72467157e-09
 0.00000000e+00 0.00000000e+00 0.00000000e+00 0.00000000e+00
 0.00000000e+00 0.00000000e+00 0.00000000e+00 0.00000000e+00
 0.00000000e+00 0.00000000e+00 0.00000000e+00 0.00000000e+00
 0.00000000e+00 0.00000000e+00 0.00000000e+00 0.00000000e+00
 0.00000000e+00 0.00000000e+00 5.25907862e-08 9.72467157e-09
 0.00000000e+00 0.00000000e+00 0.00000000e+00 1.36440424e-06]","[[-1.43417048e-03 -2.12571185e-04]
 [-5.20371393e-05 -1.21215006e-04]]",[],0.0,0.0
1787133740.875937,0.02413872354717006,0.010540057211720274,-0.033342121781353214,"[5.75441792e-07 2.60798438e-08 0.00000000e+00 0.00000000e+00
 0.00000000e+00 5.25907862e-08 2.60798438e-08 1.15562198e-07
 0.00000000e+00 0.00000000e+00 0.00000000e+00 9.72467157e-09
 0.00000000e+00 0.00000000e+00 0.00000000e+00 0.00000000e+00
 0.00000000e+00 0.00000000e+00 0.00000000e+00 0.00000000e+00
 0.00000000e+00 0.00000000e+00 0.00000000e+00 0.00000000e+00
 0.00000000e+00 0.00000000e+00 0.00000000e+00 0.00000000e+00
 0.00000000e+00 0.00000000e+00 5.25907862e-08 9.72467157e-09
 0.00000000e+00 0.00000000e+00 0.00000000e+00 1.36440424e-06]","[[-1.43417048e-03 -2.12571185e-04]
 [-5.20371393e-05 -1.21215006e-04]]",[],0.0,0.0
1787133740.9087694,0.02413872354717006,0.010540057211720274,-0.033342121781353214,"[5.75441792e-07 2.60798438e-08 0.00000000e+00 0.00000000e+00
 0.00000000e+00 5.25907862e-08 2.60798438e-08 1.15562198e-07
 0.00000000e+00 0.00000000e+00 0.00000000e+00 9.72467157e-09
 0.00000000e+00 0.00000000e+00 0.00000000e+00 0.00000000e+00
 0.00000000e+00 0.00000000e+00 0.00000000e+00 0.00000000e+00
 0.00000000e+00 0.00000000e+00 0.00000000e+00 0.00000000e+00
 0.00000000e+00 0.00000000e+00 0.00000000e+00 0.00000000e+00
 0.00000000e+00 0.00000000e+00 5.25907862e-08 9.72467157e-09
 0.00000000e+00 0.00000000e+00 0.00000000e+00 1.36440424e-06]","[[-1.43417048e-03 -2.12571185e-04]
 [-5.20371393e-05 -1.21215006e-04]]",[],0.0,0.0
1787133741.0303137,0.02413872354717006,0.010540057211720274,-0.033342121781353214,"[5.75441792e-07 2.60798438e-08 0.00000000e+00 0.00000000e+00
 0.00000000e+00 5.25907862e-08 2.60798438e-08 1.15562198e-07
 0.00000000e+00 0.00000000e+00 0.00000000e+00 9.72467157e-09
 0.00000000e+00 0.00000000e+00 0.00000000e+00 0.00000000e+00
 0.00000000e+00 0.00000000e+00 0.00000000e+00 0.00000000e+00
 0.00000000e+00 0.00000000e+00 0.00000000e+00 0.00000000e+00
 0.00000000e+00 0.00000000e+00 0.00000000e+00 0.00000000e+00
 0.00000000e+00 0.00000000e+00 5.25907862e-08 9.72467157e-09
 0.00000000e+00 0.00000000e+00 0.00000000e+00 1.36440424e-06]","[[-1.43417048e-03 -2.12571185e-04]
 [-5.20371393e-05 -1.21215006e-04]]",[],0.0,0.0
1787133741.061948,0.02413872354717006,0.010540057211720274,-0.033342121781353214,"[5.75441792e-07 2.60798438e-08 0.00000000e+00 0.00000000e+00
 0.00000000e+00 5.25907862e-08 2.60798438e-08 1.15562198e-07
 0.00000000e+00 0.00000000e+00 0.00000000e+00 9.72467157e-09
 0.00000000e+00 0.00000000e+00 0.00000000e+00 0.00000000e+00
 0.00000000e+00 0.00000000e+00 0.00000000e+00 0.00000000e+00
 0.00000000e+00 0.00000000e+00 0.00000000e+00 0.00000000e+00
 0.00000000e+00 0.00000000e+00 0.00000000e+00 0.00000000e+00
 0.00000000e+00 0.00000000e+00 5.25907862e-08 9.72467157e-09
 0.00000000e+00 0.00000000e+00 0.00000000e+00 1.36440424e-06]","[[-1.43417048e-03 -2.12571185e-04]
 [-5.20371393e-05 -1.21215006e-04]]",[],0.0,0.0
1787133741.1129124,0.02413872354717006,0.010540057211720274,-0.033342121781353214,"[5.75441792e-07 2.60798438e-08 0.00000000e+00 0.00000000e+00
 0.00000000e+00 5.25907862e-08 2.60798438e-08 1.15562198e-07
 0.00000000e+00 0.00000000e+00 0.00000000e+00 9.72467157e-09
 0.00000000e+00 0.00000000e+00 0.00000000e+00 0.00000000e+00
 0.00000000e+00 0.00000000e+00 0.00000000e+00 0.00000000e+00
 0.00000000e+00 0.00000000e+00 0.00000000e+00 0.00000000e+00
 0.00000000e+00 0.00000000e+00 0.00000000e+00 0.00000000e+00
 0.00000000e+00 0.00000000e+00 5.25907862e-08 9.72467157e-09
 0.00000000e+00 0.00000000e+00 0.00000000e+00 1.36440424e-06]","[[-1.43417048e-03 -2.12571185e-04]
 [-5.20371393e-05 -1.21215006e-04]]",[],0.0,0.0
1787133741.160729,0.02413872354717006,0.010540057211720274,-0.033342121781353214,"[5.75441792e-07 2.60798438e-08 0.00000000e+00 0.00000000e+00
 0.00000000e+00 5.25907862e-08 2.60798438e-08 1.15562198e-07
 0.00000000e+00 0.00000000e+00 0.00000000e+00 9.72467157e-09
 0.00000000e+00 0.00000000e+00 0.00000000e+00 0.00000000e+00
 0.00000000e+00 0.00000000e+00 0.00000000e+00 0.00000000e+00
 0.00000000e+00 0.00000000e+00 0.00000000e+00 0.00000000e+00
 0.00000000e+00 0.00000000e+00 0.00000000e+00 0.00000000e+00
 0.00000000e+00 0.00000000e+00 5.25907862e-08 9.72467157e-09
 0.00000000e+00 0.00000000e+00 0.00000000e+00 1.36440424e-06]","[[-1.43417048e-03 -2.12571185e-04]
 [-5.20371393e-05 -1.21215006e-04]]",[],0.0,0.0
1787133741.2088811,0.02413872354717006,0.010540057211720274,-0.033342121781353214,"[5.75441792e-07 2.60798438e-08 0.00000000e+00 0.00000000e+00
 0.00000000e+00 5.25907862e-08 2.60798438e-08 1.15562198e-07
 0.00000000e+00 0.00000000e+00 0.00000000e+00 9.72467157e-09
 0.00000000e+00 0.00000000e+00 0.00000000e+00 0.00000000e+00
 0.00000000e+00 0.00000000e+00 0.00000000e+00 0.00000000e+00
 0.00000000e+00 0.00000000e+00 0.00000000e+00 0.00000000e+00
 0.00000000e+00 0.00000000e+00 0.00000000e+00 0.00000000e+00
 0.00000000e+00 0.00000000e+00 5.25907862e-08 9.72467157e-09
 0.00000000e+00 0.00000000e+00 0.00000000e+00 1.36440424e-06]","[[-1.43417048e-03 -2.12571185e-04]
 [-5.20371393e-05 -1.21215006e-04]]",[],0.0,0.0
1787133741.2690072,0.02413872354717006,0.010540057211720274,-0.033342121781353214,"[5.75441792e-07 2.60798438e-08 0.00000000e+00 0.00000000e+00
 0.00000000e+00 5.25907862e-08 2.60798438e-08 1.15562198e-07
 0.00000000e+00 0.00000000e+00 0.00000000e+00 9.72467157e-09
 0.00000000e+00 0.00000000e+00 0.00000000e+00 0.00000000e+00
 0.00000000e+00 0.00000000e+00 0.00000000e+00 0.00000000e+00
 0.00000000e+00 0.00000000e+00 0.00000000e+00 0.00000000e+00
 0.00000000e+00 0.00000000e+00 0.00000000e+00 0.00000000e+00
 0.00000000e+00 0.00000000e+00 5.25907862e-08 9.72467157e-09
 0.00000000e+00 0.00000000e+00 0.00000000e+00 1.36440424e-06]","[[-1.43417048e-03 -2.12571185e-04]
 [-5.20371393e-05 -1.21215006e-04]]",[],0.0,0.0
1787133741.3098423,0.024194867807365433,0.009253110555778576,-0.04449243013829696,"[5.73866161e-07 1.80182906e-08 0.00000000e+00 0.00000000e+00
 0.00000000e+00 5.24490965e-08 1.80182906e-08 1.11698566e-07
 0.00000000e+00 0.00000000e+00 0.00000000e+00 9.26096491e-09
 0.00000000e+00 0.00000000e+00 0.00000000e+00 0.00000000e+00
 0.00000000e+00 0.00000000e+00 0.00000000e+00 0.00000000e+00
 0.00000000e+00 0.00000000e+00 0.00000000e+00 0.00000000e+00
 0.00000000e+00 0.00000000e+00 0.00000000e+00 0.00000000e+00
 0.00000000e+00 0.00000000e+00 5.24490965e-08 9.26096491e-09
 0.00000000e+00 0.00000000e+00 0.00000000e+00 1.37469444e-06]","[[-1.43144363e-03 -2.04704000e-04]
 [-3.31077401e-05 -1.16465618e-04]]",[],0.0,0.0
1787133741.3590472,0.024194867807365433,0.009253110555778576,-0.04449243013829696,"[5.73866161e-07 1.80182906e-08 0.00000000e+00 0.00000000e+00
 0.00000000e+00 5.24490965e-08 1.80182906e-08 1.11698566e-07
 0.00000000e+00 0.00000000e+00 0.00000000e+00 9.26096491e-09
 0.00000000e+00 0.00000000e+00 0.00000000e+00 0.00000000e+00
 0.00000000e+00 0.00000000e+00 0.00000000e+00 0.00000000e+00
 0.00000000e+00 0.00000000e+00 0.00000000e+00 0.00000000e+00
 0.00000000e+00 0.00000000e+00 0.00000000e+00 0.00000000e+00
 0.00000000e+00 0.00000000e+00 5.24490965e-08 9.26096491e-09
 0.00000000e+00 0.00000000e+00 0.00000000e+00 1.37469444e-06]","[[-1.43144363e-03 -2.04704000e-04]
 [-3.31077401e-05 -1.16465618e-04]]",[],0.0,0.0
1787133741.4212177,0.024194867807365433,0.009253110555778576,-0.04449243013829696,"[5.73866161e-07 1.80182906e-08 0.00000000e+00 0.00000000e+00
 0.00000000e+00 5.24490965e-08 1.80182906e-08 1.11698566e-07
 0.00000000e+00 0.00000000e+00 0.00000000e+00 9.26096491e-09
 0.00000000e+00 0.00000000e+00 0.00000000e+00 0.00000000e+00
 0.00000000e+00 0.00000000e+00 0.00000000e+00 0.00000000e+00
 0.00000000e+00 0.00000000e+00 0.00000000e+00 0.00000000e+00
 0.00000000e+00 0.00000000e+00 0.00000000e+00 0.00000000e+00
 0.00000000e+00 0.00000000e+00 5.24490965e-08 9.26096491e-09
 0.00000000e+00 0.00000000e+00 0.00000000e+00 1.37469444e-06]","[[-1.43144363e-03 -2.04704000e-04]
 [-3.31077401e-05 -1.16465618e-04]]",[],0.0,0.0
1787133741.458873,0.024194867807365433,0.009253110555778576,-0.04449243013829696,"[5.73866161e-07 1.80182906e-08 0.00000000e+00 0.00000000e+00
 0.00000000e+00 5.24490965e-08 1.80182906e-08 1.11698566e-07
 0.00000000e+00 0.00000000e+00 0.00000000e+00 9.26096491e-09
 0.00000000e+00 0.00000000e+00 0.00000000e+00 0.00000000e+00
 0.00000000e+00 0.00000000e+00 0.00000000e+00 0.00000000e+00
 0.00000000e+00 0.00000000e+00 0.00000000e+00 0.00000000e+00
