time,x,y,yaw,cov_prop,K_gain,innovation,v_ekf,omega_ekf
1787584795.8045032,0.4953650910259007,-0.5708018963983568,0.10063800603671337,"[ 4.91493760e-05  7.32198963e-07  0.00000000e+00  0.00000000e+00
  0.00000000e+00 -9.76340157e-07  7.32198963e-07  4.86412227e-05
  0.00000000e+00  0.00000000e+00  0.00000000e+00  1.59931212e-06
  0.00000000e+00  0.00000000e+00  0.00000000e+00  0.00000000e+00
  0.00000000e+00  0.00000000e+00  0.00000000e+00  0.00000000e+00
  0.00000000e+00  0.00000000e+00  0.00000000e+00  0.00000000e+00
  0.00000000e+00  0.00000000e+00  0.00000000e+00  0.00000000e+00
  0.00000000e+00  0.00000000e+00 -9.76340157e-07  1.59931212e-06
  0.00000000e+00  0.00000000e+00  0.00000000e+00  3.27087491e-06]","[[-1.22829350e-03  8.17294982e-04]
 [ 8.55883848e-07 -2.84000891e-02]]",[],0.0,0.0
1787584795.9151764,0.4953650910259007,-0.5708018963983568,0.10063800603671337,"[ 4.91493760e-05  7.32198963e-07  0.00000000e+00  0.00000000e+00
  0.00000000e+00 -9.76340157e-07  7.32198963e-07  4.86412227e-05
  0.00000000e+00  0.00000000e+00  0.00000000e+00  1.59931212e-06
  0.00000000e+00  0.00000000e+00  0.00000000e+00  0.00000000e+00
  0.00000000e+00  0.00000000e+00  0.00000000e+00  0.00000000e+00
  0.00000000e+00  0.00000000e+00  0.00000000e+00  0.00000000e+00
  0.00000000e+00  0.00000000e+00  0.00000000e+00  0.00000000e+00
  0.00000000e+00  0.00000000e+00 -9.76340157e-07  1.59931212e-06
  0.00000000e+00  0.00000000e+00  0.00000000e+00  3.27087491e-06]","[[-1.22829350e-03  8.17294982e-04]
 [ 8.55883848e-07 -2.84000891e-02]]",[],0.0,0.0
1787584795.9478962,0.4953650910259007,-0.5708018963983568,0.10063800603671337,"[ 4.91493760e-05  7.32198963e-07  0.00000000e+00  0.00000000e+00
  0.00000000e+00 -9.76340157e-07  7.32198963e-07  4.86412227e-05
  0.00000000e+00  0.00000000e+00  0.00000000e+00  1.59931212e-06
  0.00000000e+00  0.00000000e+00  0.00000000e+00  0.00000000e+00
  0.00000000e+00  0.00000000e+00  0.00000000e+00  0.00000000e+00
  0.00000000e+00  0.00000000e+00  0.00000000e+00  0.00000000e+00
  0.00000000e+00  0.00000000e+00  0.00000000e+00  0.00000000e+00
  0.00000000e+00  0.00000000e+00 -9.76340157e-07  1.59931212e-06
  0.00000000e+00  0.00000000e+00  0.00000000e+00  3.27087491e-06]","[[-1.22829350e-03  8.17294982e-04]
 [ 8.55883848e-07 -2.84000891e-02]]",[],0.0,0.0
1787584796.009505,0.4953650910259007,-0.5708018963983568,0.10063800603671337,"[ 4.91493760e-05  7.32198963e-07  0.00000000e+00  0.00000000e+00
  0.00000000e+00 -9.76340157e-07  7.32198963e-07  4.86412227e-05
  0.00000000e+00  0.00000000e+00  0.00000000e+00  1.59931212e-06
  0.00000000e+00  0.00000000e+00  0.00000000e+00  0.00000000e+00
  0.00000000e+00  0.00000000e+00  0.00000000e+00  0.00000000e+00
  0.00000000e+00  0.00000000e+00  0.00000000e+00  0.00000000e+00
  0.00000000e+00  0.00000000e+00  0.00000000e+00  0.00000000e+00
  0.00000000e+00  0.00000000e+00 -9.76340157e-07  1.59931212e-06
  0.00000000e+00  0.00000000e+00  0.00000000e+00  3.27087491e-06]","[[-1.22829350e-03  8.17294982e-04]
 [ 8.55883848e-07 -2.84000891e-02]]",[],0.0,0.0
1787584796.067978,0.4953650910259007,-0.5708018963983568,0.10063800603671337,"[ 4.91493760e-05  7.32198963e-07  0.00000000e+00  0.00000000e+00
  0.00000000e+00 -9.76340157e-07  7.32198963e-07  4.86412227e-05
  0.00000000e+00  0.00000000e+00  0.00000000e+00  1.59931212e-06
  0.00000000e+00  0.00000000e+00  0.00000000e+00  0.00000000e+00
  0.00000000e+00  0.00000000e+00  0.00000000e+00  0.00000000e+00
  0.00000000e+00  0.00000000e+00  0.00000000e+00  0.00000000e+00
  0.00000000e+00  0.00000000e+00  0.00000000e+00  0.00000000e+00
  0.00000000e+00  0.00000000e+00 -9.76340157e-07  1.59931212e-06
  0.00000000e+00  0.00000000e+00  0.00000000e+00  3.27087491e-06]","[[-1.22829350e-03  8.17294982e-04]
 [ 8.55883848e-07 -2.84000891e-02]]",[],0.0,0.0
1787584796.1048195,0.4953650910259007,-0.5708018963983568,0.10063800603671337,"[ 4.91493760e-05  7.32198963e-07  0.00000000e+00  0.00000000e+00
  0.00000000e+00 -9.76340157e-07  7.32198963e-07  4.86412227e-05
  0.00000000e+00  0.00000000e+00  0.00000000e+00  1.59931212e-06
  0.00000000e+00  0.00000000e+00  0.00000000e+00  0.00000000e+00
  0.00000000e+00  0.00000000e+00  0.00000000e+00  0.00000000e+00
  0.00000000e+00  0.00000000e+00  0.00000000e+00  0.00000000e+00
  0.00000000e+00  0.00000000e+00  0.00000000e+00  0.00000000e+00
  0.00000000e+00  0.00000000e+00 -9.76340157e-07  1.59931212e-06
  0.00000000e+00  0.00000000e+00  0.00000000e+00  3.27087491e-06]","[[-1.22829350e-03  8.17294982e-04]
 [ 8.55883848e-07 -2.84000891e-02]]",[],0.0,0.0
1787584796.143844,0.4953650910259007,-0.5708018963983568,0.10063800603671337,"[ 4.91493760e-05  7.32198963e-07  0.00000000e+00  0.00000000e+00
  0.00000000e+00 -9.76340157e-07  7.32198963e-07  4.86412227e-05
  0.00000000e+00  0.00000000e+00  0.00000000e+00  1.59931212e-06
  0.00000000e+00  0.00000000e+00  0.00000000e+00  0.00000000e+00
  0.00000000e+00  0.00000000e+00  0.00000000e+00  0.00000000e+00
  0.00000000e+00  0.00000000e+00  0.00000000e+00  0.00000000e+00
  0.00000000e+00  0.00000000e+00  0.00000000e+00  0.00000000e+00
  0.00000000e+00  0.00000000e+00 -9.76340157e-07  1.59931212e-06
  0.00000000e+00  0.00000000e+00  0.00000000e+00  3.27087491e-06]","[[-1.22829350e-03  8.17294982e-04]
 [ 8.55883848e-07 -2.84000891e-02]]",[],0.0,0.0
1787584796.2066658,0.4953650910259007,-0.5708018963983568,0.10063800603671337,"[ 4.91493760e-05  7.32198963e-07  0.00000000e+00  0.00000000e+00
  0.00000000e+00 -9.76340157e-07  7.32198963e-07  4.86412227e-05
  0.00000000e+00  0.00000000e+00  0.00000000e+00  1.59931212e-06
  0.00000000e+00  0.00000000e+00  0.00000000e+00  0.00000000e+00
  0.00000000e+00  0.00000000e+00  0.00000000e+00  0.00000000e+00
  0.00000000e+00  0.00000000e+00  0.00000000e+00  0.00000000e+00
  0.00000000e+00  0.00000000e+00  0.00000000e+00  0.00000000e+00
  0.00000000e+00  0.00000000e+00 -9.76340157e-07  1.59931212e-06
  0.00000000e+00  0.00000000e+00  0.00000000e+00  3.27087491e-06]","[[-1.22829350e-03  8.17294982e-04]
 [ 8.55883848e-07 -2.84000891e-02]]",[],0.0,0.0
1787584796.25662,0.4953650910259007,-0.5708018963983568,0.10063800603671337,"[ 4.91493760e-05  7.32198963e-07  0.00000000e+00  0.00000000e+00
  0.00000000e+00 -9.76340157e-07  7.32198963e-07  4.86412227e-05
  0.00000000e+00  0.00000000e+00  0.00000000e+00  1.59931212e-06
  0.00000000e+00  0.00000000e+00  0.00000000e+00  0.00000000e+00
  0.00000000e+00  0.00000000e+00  0.00000000e+00  0.00000000e+00
  0.00000000e+00  0.00000000e+00  0.00000000e+00  0.00000000e+00
  0.00000000e+00  0.00000000e+00  0.00000000e+00  0.00000000e+00
  0.00000000e+00  0.00000000e+00 -9.76340157e-07  1.59931212e-06
  0.00000000e+00  0.00000000e+00  0.00000000e+00  3.27087491e-06]","[[-1.22829350e-03  8.17294982e-04]
 [ 8.55883848e-07 -2.84000891e-02]]",[],0.0,0.0
1787584796.3077383,0.4953650910259007,-0.5708018963983568,0.10063800603671337,"[ 4.91493760e-05  7.32198963e-07  0.00000000e+00  0.00000000e+00
  0.00000000e+00 -9.76340157e-07  7.32198963e-07  4.86412227e-05
  0.00000000e+00  0.00000000e+00  0.00000000e+00  1.59931212e-06
  0.00000000e+00  0.00000000e+00  0.00000000e+00  0.00000000e+00
  0.00000000e+00  0.00000000e+00  0.00000000e+00  0.00000000e+00
  0.00000000e+00  0.00000000e+00  0.00000000e+00  0.00000000e+00
  0.00000000e+00  0.00000000e+00  0.00000000e+00  0.00000000e+00
  0.00000000e+00  0.00000000e+00 -9.76340157e-07  1.59931212e-06
  0.00000000e+00  0.00000000e+00  0.00000000e+00  3.27087491e-06]","[[-1.22829350e-03  8.17294982e-04]
 [ 8.55883848e-07 -2.84000891e-02]]",[],0.0,0.0
1787584796.3435745,0.4953650910259007,-0.5708018963983568,0.10063800603671337,"[ 4.91493760e-05  7.32198963e-07  0.00000000e+00  0.00000000e+00
  0.00000000e+00 -9.76340157e-07  7.32198963e-07  4.86412227e-05
  0.00000000e+00  0.00000000e+00  0.00000000e+00  1.59931212e-06
  0.00000000e+00  0.00000000e+00  0.00000000e+00  0.00000000e+00
  0.00000000e+00  0.00000000e+00  0.00000000e+00  0.00000000e+00
  0.00000000e+00  0.00000000e+00  0.00000000e+00  0.00000000e+00
  0.00000000e+00  0.00000000e+00  0.00000000e+00  0.00000000e+00
  0.00000000e+00  0.00000000e+00 -9.76340157e-07  1.59931212e-06
  0.00000000e+00  0.00000000e+00  0.00000000e+00  3.27087491e-06]","[[-1.22829350e-03  8.17294982e-04]
 [ 8.55883848e-07 -2.84000891e-02]]",[],0.0,0.0
1787584796.4106357,0.4953650910259007,-0.5708018963983568,0.10063800603671337,"[ 4.91493760e-05  7.32198963e-07  0.00000000e+00  0.00000000e+00
  0.00000000e+00 -9.76340157e-07  7.32198963e-07  4.86412227e-05
  0.00000000e+00  0.00000000e+00  0.00000000e+00  1.59931212e-06
  0.00000000e+00  0.00000000e+00  0.00000000e+00  0.00000000e+00
  0.00000000e+00  0.00000000e+00  0.00000000e+00  0.00000000e+00
  0.00000000e+00  0.00000000e+00  0.00000000e+00  0.00000000e+00
  0.00000000e+00  0.00000000e+00  0.00000000e+00  0.00000000e+00
  0.00000000e+00  0.00000000e+00 -9.76340157e-07  1.59931212e-06
  0.00000000e+00  0.00000000e+00  0.00000000e+00  3.27087491e-06]","[[-1.22829350e-03  8.17294982e-04]
 [ 8.55883848e-07 -2.84000891e-02]]",[],0.0,0.0
1787584796.4559207,0.4953650910259007,-0.5708018963983568,0.10063800603671337,"[ 4.91493760e-05  7.32198963e-07  0.00000000e+00  0.00000000e+00
  0.00000000e+00 -9.76340157e-07  7.32198963e-07  4.86412227e-05
  0.00000000e+00  0.00000000e+00  0.00000000e+00  1.59931212e-06
  0.00000000e+00  0.00000000e+00  0.00000000e+00  0.00000000e+00
  0.00000000e+00  0.00000000e+00  0.00000000e+00  0.00000000e+00
  0.00000000e+00  0.00000000e+00  0.00000000e+00  0.00000000e+00
  0.00000000e+00  0.00000000e+00  0.00000000e+00  0.00000000e+00
  0.00000000e+00  0.00000000e+00 -9.76340157e-07  1.59931212e-06
  0.00000000e+00  0.00000000e+00  0.00000000e+00  3.27087491e-06]","[[-1.22829350e-03  8.17294982e-04]
 [ 8.55883848e-07 -2.84000891e-02]]",[],0.0,0.0
1787584796.4972014,0.4953650910259007,-0.5708018963983568,0.10063800603671337,"[ 4.91493760e-05  7.32198963e-07  0.00000000e+00  0.00000000e+00
  0.00000000e+00 -9.76340157e-07  7.32198963e-07  4.86412227e-05
  0.00000000e+00  0.00000000e+00  0.00000000e+00  1.59931212e-06
  0.00000000e+00  0.00000000e+00  0.00000000e+00  0.00000000e+00
  0.00000000e+00  0.00000000e+00  0.00000000e+00  0.00000000e+00
  0.00000000e+00  0.00000000e+00  0.00000000e+00  0.00000000e+00
  0.00000000e+00  0.00000000e+00  0.00000000e+00  0.00000000e+00
  0.00000000e+00  0.00000000e+00 -9.76340157e-07  1.59931212e-06
  0.00000000e+00  0.00000000e+00  0.00000000e+00  3.27087491e-06]","[[-1.22829350e-03  8.17294982e-04]
 [ 8.55883848e-07 -2.84000891e-02]]",[],0.0,0.0
1787584796.555277,0.4953650910259007,-0.5708018963983568,0.10063800603671337,"[ 4.91493760e-05  7.32198963e-07  0.00000000e+00  0.00000000e+00
  0.00000000e+00 -9.76340157e-07  7.32198963e-07  4.86412227e-05
  0.00000000e+00  0.00000000e+00  0.00000000e+00  1.59931212e-06
  0.00000000e+00  0.00000000e+00  0.00000000e+00  0.00000000e+00
  0.00000000e+00  0.00000000e+00  0.00000000e+00  0.00000000e+00
  0.00000000e+00  0.00000000e+00  0.00000000e+00  0.00000000e+00
  0.00000000e+00  0.00000000e+00  0.00000000e+00  0.00000000e+00
  0.00000000e+00  0.00000000e+00 -9.76340157e-07  1.59931212e-06
  0.00000000e+00  0.00000000e+00  0.00000000e+00  3.27087491e-06]","[[-1.22829350e-03  8.17294982e-04]
 [ 8.55883848e-07 -2.84000891e-02]]",[],0.0,0.0
1787584796.6015022,0.4953650910259007,-0.5708018963983568,0.10063800603671337,"[ 4.91493760e-05  7.32198963e-07  0.00000000e+00  0.00000000e+00
  0.00000000e+00 -9.76340157e-07  7.32198963e-07  4.86412227e-05
  0.00000000e+00  0.00000000e+00  0.00000000e+00  1.59931212e-06
  0.00000000e+00  0.00000000e+00  0.00000000e+00  0.00000000e+00
  0.00000000e+00  0.00000000e+00  0.00000000e+00  0.00000000e+00
  0.00000000e+00  0.00000000e+00  0.00000000e+00  0.00000000e+00
  0.00000000e+00  0.00000000e+00  0.00000000e+00  0.00000000e+00
  0.00000000e+00  0.00000000e+00 -9.76340157e-07  1.59931212e-06
  0.00000000e+00  0.00000000e+00  0.00000000e+00  3.27087491e-06]","[[-1.22829350e-03  8.17294982e-04]
 [ 8.55883848e-07 -2.84000891e-02]]",[],0.0,0.0
1787584796.6617866,0.4953650910259007,-0.5708018963983568,0.10063800603671337,"[ 4.91493760e-05  7.32198963e-07  0.00000000e+00  0.00000000e+00
  0.00000000e+00 -9.76340157e-07  7.32198963e-07  4.86412227e-05
  0.00000000e+00  0.00000000e+00  0.00000000e+00  1.59931212e-06
  0.00000000e+00  0.00000000e+00  0.00000000e+00  0.00000000e+00
  0.00000000e+00  0.00000000e+00  0.00000000e+00  0.00000000e+00
  0.00000000e+00  0.00000000e+00  0.00000000e+00  0.00000000e+00
  0.00000000e+00  0.00000000e+00  0.00000000e+00  0.00000000e+00
  0.00000000e+00  0.00000000e+00 -9.76340157e-07  1.59931212e-06
  0.00000000e+00  0.00000000e+00  0.00000000e+00  3.27087491e-06]","[[-1.22829350e-03  8.17294982e-04]
 [ 8.55883848e-07 -2.84000891e-02]]",[],0.0,0.0
1787584796.6993978,0.4953650910259007,-0.5708018963983568,0.10063800603671337,"[ 4.91493760e-05  7.32198963e-07  0.00000000e+00  0.00000000e+00
  0.00000000e+00 -9.76340157e-07  7.32198963e-07  4.86412227e-05
  0.00000000e+00  0.00000000e+00  0.00000000e+00  1.59931212e-06
  0.00000000e+00  0.00000000e+00  0.00000000e+00  0.00000000e+00
  0.00000000e+00  0.00000000e+00  0.00000000e+00  0.00000000e+00
  0.00000000e+00  0.00000000e+00  0.00000000e+00  0.00000000e+00
  0.00000000e+00  0.00000000e+00  0.00000000e+00  0.00000000e+00
  0.00000000e+00  0.00000000e+00 -9.76340157e-07  1.59931212e-06
  0.00000000e+00  0.00000000e+00  0.00000000e+00  3.27087491e-06]","[[-1.22829350e-03  8.17294982e-04]
 [ 8.55883848e-07 -2.84000891e-02]]",[],0.0,0.0
1787584796.7484317,0.4953650910259007,-0.5708018963983568,0.10063800603671337,"[ 4.91493760e-05  7.32198963e-07  0.00000000e+00  0.00000000e+00
  0.00000000e+00 -9.76340157e-07  7.32198963e-07  4.86412227e-05
  0.00000000e+00  0.00000000e+00  0.00000000e+00  1.59931212e-06
  0.00000000e+00  0.00000000e+00  0.00000000e+00  0.00000000e+00
  0.00000000e+00  0.00000000e+00  0.00000000e+00  0.00000000e+00
  0.00000000e+00  0.00000000e+00  0.00000000e+00  0.00000000e+00
  0.00000000e+00  0.00000000e+00  0.00000000e+00  0.00000000e+00
  0.00000000e+00  0.00000000e+00 -9.76340157e-07  1.59931212e-06
  0.00000000e+00  0.00000000e+00  0.00000000e+00  3.27087491e-06]","[[-1.22829350e-03  8.17294982e-04]
 [ 8.55883848e-07 -2.84000891e-02]]",[],0.0,0.0
1787584796.80509,0.4953650910259007,-0.5708018963983568,0.10063800603671337,"[ 4.91493760e-05  7.32198963e-07  0.00000000e+00  0.00000000e+00
  0.00000000e+00 -9.76340157e-07  7.32198963e-07  4.86412227e-05
  0.00000000e+00  0.00000000e+00  0.00000000e+00  1.59931212e-06
  0.00000000e+00  0.00000000e+00  0.00000000e+00  0.00000000e+00
  0.00000000e+00  0.00000000e+00  0.00000000e+00  0.00000000e+00
  0.00000000e+00  0.00000000e+00  0.00000000e+00  0.00000000e+00
  0.00000000e+00  0.00000000e+00  0.00000000e+00  0.00000000e+00
  0.00000000e+00  0.00000000e+00 -9.76340157e-07  1.59931212e-06
  0.00000000e+00  0.00000000e+00  0.00000000e+00  3.27087491e-06]","[[-1.22829350e-03  8.17294982e-04]
 [ 8.55883848e-07 -2.84000891e-02]]",[],0.0,0.0
1787584796.8623855,0.4953650910259007,-0.5708018963983568,0.10063800603671337,"[ 4.91493760e-05  7.32198963e-07  0.00000000e+00  0.00000000e+00
  0.00000000e+00 -9.76340157e-07  7.32198963e-07  4.86412227e-05
  0.00000000e+00  0.00000000e+00  0.00000000e+00  1.59931212e-06
  0.00000000e+00  0.00000000e+00  0.00000000e+00  0.00000000e+00
  0.00000000e+00  0.00000000e+00  0.00000000e+00  0.00000000e+00
  0.00000000e+00  0.00000000e+00  0.00000000e+00  0.00000000e+00
  0.00000000e+00  0.00000000e+00  0.00000000e+00  0.00000000e+00
  0.00000000e+00  0.00000000e+00 -9.76340157e-07  1.59931212e-06
  0.00000000e+00  0.00000000e+00  0.00000000e+00  3.27087491e-06]","[[-1.22829350e-03  8.17294982e-04]
 [ 8.55883848e-07 -2.84000891e-02]]",[],0.0,0.0
1787584796.8899405,0.4953650910259007,-0.5708018963983568,0.10063800603671337,"[ 4.91493760e-05  7.32198963e-07  0.00000000e+00  0.00000000e+00
  0.00000000e+00 -9.76340157e-07  7.32198963e-07  4.86412227e-05
  0.00000000e+00  0.00000000e+00  0.00000000e+00  1.59931212e-06
  0.00000000e+00  0.00000000e+00  0.00000000e+00  0.00000000e+00
  0.00000000e+00  0.00000000e+00  0.00000000e+00  0.00000000e+00
  0.00000000e+00  0.00000000e+00  0.00000000e+00  0.00000000e+00
  0.00000000e+00  0.00000000e+00  0.00000000e+00  0.00000000e+00
  0.00000000e+00  0.00000000e+00 -9.76340157e-07  1.59931212e-06
  0.00000000e+00  0.00000000e+00  0.00000000e+00  3.27087491e-06]","[[-1.22829350e-03  8.17294982e-04]
 [ 8.55883848e-07 -2.84000891e-02]]",[],0.0,0.0
1787584796.951385,0.4980825397549773,-0.5748231669779499,0.08714186372173272,"[ 2.41847384e-05  1.88528364e-07  0.00000000e+00  0.00000000e+00
  0.00000000e+00 -2.83838994e-07  1.88528364e-07  2.44505127e-05
  0.00000000e+00  0.00000000e+00  0.00000000e+00  1.03958798e-06
  0.00000000e+00  0.00000000e+00  0.00000000e+00  0.00000000e+00
  0.00000000e+00  0.00000000e+00  0.00000000e+00  0.00000000e+00
  0.00000000e+00  0.00000000e+00  0.00000000e+00  0.00000000e+00
  0.00000000e+00  0.00000000e+00  0.00000000e+00  0.00000000e+00
  0.00000000e+00  0.00000000e+00 -2.83838994e-07  1.03958798e-06
  0.00000000e+00  0.00000000e+00  0.00000000e+00  2.93200781e-06]","[[-6.03348935e-04  1.29904672e-03]
 [-4.93294737e-05 -1.45342057e-02]]",[],0.0,0.0
1787584797.00202,0.4980825397549773,-0.5748231669779499,0.08714186372173272,"[ 2.41847384e-05  1.88528364e-07  0.00000000e+00  0.00000000e+00
  0.00000000e+00 -2.83838994e-07  1.88528364e-07  2.44505127e-05
  0.00000000e+00  0.00000000e+00  0.00000000e+00  1.03958798e-06
  0.00000000e+00  0.00000000e+00  0.00000000e+00  0.00000000e+00
  0.00000000e+00  0.00000000e+00  0.00000000e+00  0.00000000e+00
  0.00000000e+00  0.00000000e+00  0.00000000e+00  0.00000000e+00
  0.00000000e+00  0.00000000e+00  0.00000000e+00  0.00000000e+00
  0.00000000e+00  0.00000000e+00 -2.83838994e-07  1.03958798e-06
  0.00000000e+00  0.00000000e+00  0.00000000e+00  2.93200781e-06]","[[-6.03348935e-04  1.29904672e-03]
 [-4.93294737e-05 -1.45342057e-02]]",[],0.0,0.0
1787584797.0398784,0.4980825397549773,-0.5748231669779499,0.08714186372173272,"[ 2.41847384e-05  1.88528364e-07  0.00000000e+00  0.00000000e+00
  0.00000000e+00 -2.83838994e-07  1.88528364e-07  2.44505127e-05
  0.00000000e+00  0.00000000e+00  0.00000000e+00  1.03958798e-06
  0.00000000e+00  0.00000000e+00  0.00000000e+00  0.00000000e+00
  0.00000000e+00  0.00000000e+00  0.00000000e+00  0.00000000e+00
  0.00000000e+00  0.00000000e+00  0.00000000e+00  0.00000000e+00
  0.00000000e+00  0.00000000e+00  0.00000000e+00  0.00000000e+00
  0.00000000e+00  0.00000000e+00 -2.83838994e-07  1.03958798e-06
  0.00000000e+00  0.00000000e+00  0.00000000e+00  2.93200781e-06]","[[-6.03348935e-04  1.29904672e-03]
 [-4.93294737e-05 -1.45342057e-02]]",[],0.0,0.0
1787584797.1095848,0.4980825397549773,-0.5748231669779499,0.08714186372173272,"[ 2.41847384e-05  1.88528364e-07  0.00000000e+00  0.00000000e+00
  0.00000000e+00 -2.83838994e-07  1.88528364e-07  2.44505127e-05
  0.00000000e+00  0.00000000e+00  0.00000000e+00  1.03958798e-06
  0.00000000e+00  0.00000000e+00  0.00000000e+00  0.00000000e+00
  0.00000000e+00  0.00000000e+00  0.00000000e+00  0.00000000e+00
  0.00000000e+00  0.00000000e+00  0.00000000e+00  0.00000000e+00
  0.00000000e+00  0.00000000e+00  0.00000000e+00  0.00000000e+00
  0.00000000e+00  0.00000000e+00 -2.83838994e-07  1.03958798e-06
  0.00000000e+00  0.00000000e+00  0.00000000e+00  2.93200781e-06]","[[-6.03348935e-04  1.29904672e-03]
 [-4.93294737e-05 -1.45342057e-02]]",[],0.0,0.0
1787584797.151551,0.4980825397549773,-0.5748231669779499,0.08714186372173272,"[ 2.41847384e-05  1.88528364e-07  0.00000000e+00  0.00000000e+00
  0.00000000e+00 -2.83838994e-07  1.88528364e-07  2.44505127e-05
  0.00000000e+00  0.00000000e+00  0.00000000e+00  1.03958798e-06
  0.00000000e+00  0.00000000e+00  0.00000000e+00  0.00000000e+00
  0.00000000e+00  0.00000000e+00  0.00000000e+00  0.00000000e+00
  0.00000000e+00  0.00000000e+00  0.00000000e+00  0.00000000e+00
  0.00000000e+00  0.00000000e+00  0.00000000e+00  0.00000000e+00
  0.00000000e+00  0.00000000e+00 -2.83838994e-07  1.03958798e-06
  0.00000000e+00  0.00000000e+00  0.00000000e+00  2.93200781e-06]","[[-6.03348935e-04  1.29904672e-03]
 [-4.93294737e-05 -1.45342057e-02]]",[],0.0,0.0
1787584797.2128527,0.4980825397549773,-0.5748231669779499,0.08714186372173272,"[ 2.41847384e-05  1.88528364e-07  0.00000000e+00  0.00000000e+00
  0.00000000e+00 -2.83838994e-07  1.88528364e-07  2.44505127e-05
  0.00000000e+00  0.00000000e+00  0.00000000e+00  1.03958798e-06
  0.00000000e+00  0.00000000e+00  0.00000000e+00  0.00000000e+00
  0.00000000e+00  0.00000000e+00  0.00000000e+00  0.00000000e+00
  0.00000000e+00  0.00000000e+00  0.00000000e+00  0.00000000e+00
  0.00000000e+00  0.00000000e+00  0.00000000e+00  0.00000000e+00
  0.00000000e+00  0.00000000e+00 -2.83838994e-07  1.03958798e-06
  0.00000000e+00  0.00000000e+00  0.00000000e+00  2.93200781e-06]","[[-6.03348935e-04  1.29904672e-03]
 [-4.93294737e-05 -1.45342057e-02]]",[],0.0,0.0
1787584797.2508805,0.4980825397549773,-0.5748231669779499,0.08714186372173272,"[ 2.41847384e-05  1.88528364e-07  0.00000000e+00  0.00000000e+00
  0.00000000e+00 -2.83838994e-07  1.88528364e-07  2.44505127e-05
  0.00000000e+00  0.00000000e+00  0.00000000e+00  1.03958798e-06
  0.00000000e+00  0.00000000e+00  0.00000000e+00  0.00000000e+00
  0.00000000e+00  0.00000000e+00  0.00000000e+00  0.00000000e+00
  0.00000000e+00  0.00000000e+00  0.00000000e+00  0.00000000e+00
  0.00000000e+00  0.00000000e+00  0.00000000e+00  0.00000000e+00
  0.00000000e+00  0.00000000e+00 -2.83838994e-07  1.03958798e-06
  0.00000000e+00  0.00000000e+00  0.00000000e+00  2.93200781e-06]","[[-6.03348935e-04  1.29904672e-03]
 [-4.93294737e-05 -1.45342057e-02]]",[],0.0,0.0
1787584797.2910168,0.4980825397549773,-0.5748231669779499,0.08714186372173272,"[ 2.41847384e-05  1.88528364e-07  0.00000000e+00  0.00000000e+00
  0.00000000e+00 -2.83838994e-07  1.88528364e-07  2.44505127e-05
  0.00000000e+00  0.00000000e+00  0.00000000e+00  1.03958798e-06
  0.00000000e+00  0.00000000e+00  0.00000000e+00  0.00000000e+00
  0.00000000e+00  0.00000000e+00  0.00000000e+00  0.00000000e+00
  0.00000000e+00  0.00000000e+00  0.00000000e+00  0.00000000e+00
  0.00000000e+00  0.00000000e+00  0.00000000e+00  0.00000000e+00
  0.00000000e+00  0.00000000e+00 -2.83838994e-07  1.03958798e-06
  0.00000000e+00  0.00000000e+00  0.00000000e+00  2.93200781e-06]","[[-6.03348935e-04  1.29904672e-03]
 [-4.93294737e-05 -1.45342057e-02]]",[],0.0,0.0
1787584797.3410504,0.4980825397549773,-0.5748231669779499,0.08714186372173272,"[ 2.41847384e-05  1.88528364e-07  0.00000000e+00  0.00000000e+00
  0.00000000e+00 -2.83838994e-07  1.88528364e-07  2.44505127e-05
  0.00000000e+00  0.00000000e+00  0.00000000e+00  1.03958798e-06
  0.00000000e+00  0.00000000e+00  0.00000000e+00  0.00000000e+00
  0.00000000e+00  0.00000000e+00  0.00000000e+00  0.00000000e+00
  0.00000000e+00  0.00000000e+00  0.00000000e+00  0.00000000e+00
  0.00000000e+00  0.00000000e+00  0.00000000e+00  0.00000000e+00
  0.00000000e+00  0.00000000e+00 -2.83838994e-07  1.03958798e-06
  0.00000000e+00  0.00000000e+00  0.00000000e+00  2.93200781e-06]","[[-6.03348935e-04  1.29904672e-03]
 [-4.93294737e-05 -1.45342057e-02]]",[],0.0,0.0
1787584797.4146924,0.4980825397549773,-0.5748231669779499,0.08714186372173272,"[ 2.41847384e-05  1.88528364e-07  0.00000000e+00  0.00000000e+00
  0.00000000e+00 -2.83838994e-07  1.88528364e-07  2.44505127e-05
  0.00000000e+00  0.00000000e+00  0.00000000e+00  1.03958798e-06
  0.00000000e+00  0.00000000e+00  0.00000000e+00  0.00000000e+00
  0.00000000e+00  0.00000000e+00  0.00000000e+00  0.00000000e+00
  0.00000000e+00  0.00000000e+00  0.00000000e+00  0.00000000e+00
  0.00000000e+00  0.00000000e+00  0.00000000e+00  0.00000000e+00
  0.00000000e+00  0.00000000e+00 -2.83838994e-07  1.03958798e-06
  0.00000000e+00  0.00000000e+00  0.00000000e+00  2.93200781e-06]","[[-6.03348935e-04  1.29904672e-03]
 [-4.93294737e-05 -1.45342057e-02]]",[],0.0,0.0
1787584797.439514,0.4980825397549773,-0.5748231669779499,0.08714186372173272,"[ 2.41847384e-05  1.88528364e-07  0.00000000e+00  0.00000000e+00
  0.00000000e+00 -2.83838994e-07  1.88528364e-07  2.44505127e-05
  0.00000000e+00  0.00000000e+00  0.00000000e+00  1.03958798e-06
  0.00000000e+00  0.00000000e+00  0.00000000e+00  0.00000000e+00
  0.00000000e+00  0.00000000e+00  0.00000000e+00  0.00000000e+00
  0.00000000e+00  0.00000000e+00  0.00000000e+00  0.00000000e+00
  0.00000000e+00  0.00000000e+00  0.00000000e+00  0.00000000e+00
  0.00000000e+00  0.00000000e+00 -2.83838994e-07  1.03958798e-06
  0.00000000e+00  0.00000000e+00  0.00000000e+00  2.93200781e-06]","[[-6.03348935e-04  1.29904672e-03]
 [-4.93294737e-05 -1.45342057e-02]]",[],0.0,0.0
1787584797.4901505,0.4980825397549773,-0.5748231669779499,0.08714186372173272,"[ 2.41847384e-05  1.88528364e-07  0.00000000e+00  0.00000000e+00
  0.00000000e+00 -2.83838994e-07  1.88528364e-07  2.44505127e-05
  0.00000000e+00  0.00000000e+00  0.00000000e+00  1.03958798e-06
  0.00000000e+00  0.00000000e+00  0.00000000e+00  0.00000000e+00
  0.00000000e+00  0.00000000e+00  0.00000000e+00  0.00000000e+00
  0.00000000e+00  0.00000000e+00  0.00000000e+00  0.00000000e+00
  0.00000000e+00  0.00000000e+00  0.00000000e+00  0.00000000e+00
  0.00000000e+00  0.00000000e+00 -2.83838994e-07  1.03958798e-06
  0.00000000e+00  0.00000000e+00  0.00000000e+00  2.93200781e-06]","[[-6.03348935e-04  1.29904672e-03]
 [-4.93294737e-05 -1.45342057e-02]]",[],0.0,0.0
1787584797.5406322,0.4980825397549773,-0.5748231669779499,0.08714186372173272,"[ 2.41847384e-05  1.88528364e-07  0.00000000e+00  0.00000000e+00
  0.00000000e+00 -2.83838994e-07  1.88528364e-07  2.44505127e-05
  0.00000000e+00  0.00000000e+00  0.00000000e+00  1.03958798e-06
  0.00000000e+00  0.00000000e+00  0.00000000e+00  0.00000000e+00
  0.00000000e+00  0.00000000e+00  0.00000000e+00  0.00000000e+00
  0.00000000e+00  0.00000000e+00  0.00000000e+00  0.00000000e+00
  0.00000000e+00  0.00000000e+00  0.00000000e+00  0.00000000e+00
  0.00000000e+00  0.00000000e+00 -2.83838994e-07  1.03958798e-06
  0.00000000e+00  0.00000000e+00  0.00000000e+00  2.93200781e-06]","[[-6.03348935e-04  1.29904672e-03]
 [-4.93294737e-05 -1.45342057e-02]]",[],0.0,0.0
1787584797.60642,0.4980825397549773,-0.5748231669779499,0.08714186372173272,"[ 2.41847384e-05  1.88528364e-07  0.00000000e+00  0.00000000e+00
  0.00000000e+00 -2.83838994e-07  1.88528364e-07  2.44505127e-05
  0.00000000e+00  0.00000000e+00  0.00000000e+00  1.03958798e-06
  0.00000000e+00  0.00000000e+00  0.00000000e+00  0.00000000e+00
  0.00000000e+00  0.00000000e+00  0.00000000e+00  0.00000000e+00
  0.00000000e+00  0.00000000e+00  0.00000000e+00  0.00000000e+00
  0.00000000e+00  0.00000000e+00  0.00000000e+00  0.00000000e+00
  0.00000000e+00  0.00000000e+00 -2.83838994e-07  1.03958798e-06
  0.00000000e+00  0.00000000e+00  0.00000000e+00  2.93200781e-06]","[[-6.03348935e-04  1.29904672e-03]
 [-4.93294737e-05 -1.45342057e-02]]",[],0.0,0.0
1787584797.6396954,0.4980825397549773,-0.5748231669779499,0.08714186372173272,"[ 2.41847384e-05  1.88528364e-07  0.00000000e+00  0.00000000e+00
  0.00000000e+00 -2.83838994e-07  1.88528364e-07  2.44505127e-05
  0.00000000e+00  0.00000000e+00  0.00000000e+00  1.03958798e-06
  0.00000000e+00  0.00000000e+00  0.00000000e+00  0.00000000e+00
  0.00000000e+00  0.00000000e+00  0.00000000e+00  0.00000000e+00
  0.00000000e+00  0.00000000e+00  0.00000000e+00  0.00000000e+00
  0.00000000e+00  0.00000000e+00  0.00000000e+00  0.00000000e+00
  0.00000000e+00  0.00000000e+00 -2.83838994e-07  1.03958798e-06
  0.00000000e+00  0.00000000e+00  0.00000000e+00  2.93200781e-06]","[[-6.03348935e-04  1.29904672e-03]
 [-4.93294737e-05 -1.45342057e-02]]",[],0.0,0.0
1787584797.6913404,0.4980825397549773,-0.5748231669779499,0.08714186372173272,"[ 2.41847384e-05  1.88528364e-07  0.00000000e+00  0.00000000e+00
  0.00000000e+00 -2.83838994e-07  1.88528364e-07  2.44505127e-05
  0.00000000e+00  0.00000000e+00  0.00000000e+00  1.03958798e-06
  0.00000000e+00  0.00000000e+00  0.00000000e+00  0.00000000e+00
  0.00000000e+00  0.00000000e+00  0.00000000e+00  0.00000000e+00
  0.00000000e+00  0.00000000e+00  0.00000000e+00  0.00000000e+00
  0.00000000e+00  0.00000000e+00  0.00000000e+00  0.00000000e+00
  0.00000000e+00  0.00000000e+00 -2.83838994e-07  1.03958798e-06
  0.00000000e+00  0.00000000e+00  0.00000000e+00  2.93200781e-06]","[[-6.03348935e-04  1.29904672e-03]
 [-4.93294737e-05 -1.45342057e-02]]",[],0.0,0.0
1787584797.7405276,0.4980825397549773,-0.5748231669779499,0.08714186372173272,"[ 2.41847384e-05  1.88528364e-07  0.00000000e+00  0.00000000e+00
  0.00000000e+00 -2.83838994e-07  1.88528364e-07  2.44505127e-05
  0.00000000e+00  0.00000000e+00  0.00000000e+00  1.03958798e-06
  0.00000000e+00  0.00000000e+00  0.00000000e+00  0.00000000e+00
  0.00000000e+00  0.00000000e+00  0.00000000e+00  0.00000000e+00
  0.00000000e+00  0.00000000e+00  0.00000000e+00  0.00000000e+00
  0.00000000e+00  0.00000000e+00  0.00000000e+00  0.00000000e+00
  0.00000000e+00  0.00000000e+00 -2.83838994e-07  1.03958798e-06
  0.00000000e+00  0.00000000e+00  0.00000000e+00  2.93200781e-06]","[[-6.03348935e-04  1.29904672e-03]
 [-4.93294737e-05 -1.45342057e-02]]",[],0.0,0.0
1787584797.792498,0.4980825397549773,-0.5748231669779499,0.08714186372173272,"[ 2.41847384e-05  1.88528364e-07  0.00000000e+00  0.00000000e+00
  0.00000000e+00 -2.83838994e-07  1.88528364e-07  2.44505127e-05
  0.00000000e+00  0.00000000e+00  0.00000000e+00  1.03958798e-06
  0.00000000e+00  0.00000000e+00  0.00000000e+00  0.00000000e+00
  0.00000000e+00  0.00000000e+00  0.00000000e+00  0.00000000e+00
  0.00000000e+00  0.00000000e+00  0.00000000e+00  0.00000000e+00
  0.00000000e+00  0.00000000e+00  0.00000000e+00  0.00000000e+00
  0.00000000e+00  0.00000000e+00 -2.83838994e-07  1.03958798e-06
  0.00000000e+00  0.00000000e+00  0.00000000e+00  2.93200781e-06]","[[-6.03348935e-04  1.29904672e-03]
 [-4.93294737e-05 -1.45342057e-02]]",[],0.0,0.0
1787584797.841861,0.4980825397549773,-0.5748231669779499,0.08714186372173272,"[ 2.41847384e-05  1.88528364e-07  0.00000000e+00  0.00000000e+00
  0.00000000e+00 -2.83838994e-07  1.88528364e-07  2.44505127e-05
  0.00000000e+00  0.00000000e+00  0.00000000e+00  1.03958798e-06
  0.00000000e+00  0.00000000e+00  0.00000000e+00  0.00000000e+00
  0.00000000e+00  0.00000000e+00  0.00000000e+00  0.00000000e+00
  0.00000000e+00  0.00000000e+00  0.00000000e+00  0.00000000e+00
  0.00000000e+00  0.00000000e+00  0.00000000e+00  0.00000000e+00
  0.00000000e+00  0.00000000e+00 -2.83838994e-07  1.03958798e-06
  0.00000000e+00  0.00000000e+00  0.00000000e+00  2.93200781e-06]","[[-6.03348935e-04  1.29904672e-03]
 [-4.93294737e-05 -1.45342057e-02]]",[],0.0,0.0
1787584797.8914618,0.4980825397549773,-0.5748231669779499,0.08714186372173272,"[ 2.41847384e-05  1.88528364e-07  0.00000000e+00  0.00000000e+00
  0.00000000e+00 -2.83838994e-07  1.88528364e-07  2.44505127e-05
  0.00000000e+00  0.00000000e+00  0.00000000e+00  1.03958798e-06
  0.00000000e+00  0.00000000e+00  0.00000000e+00  0.00000000e+00
  0.00000000e+00  0.00000000e+00  0.00000000e+00  0.00000000e+00
  0.00000000e+00  0.00000000e+00  0.00000000e+00  0.00000000e+00
  0.00000000e+00  0.00000000e+00  0.00000000e+00  0.00000000e+00
  0.00000000e+00  0.00000000e+00 -2.83838994e-07  1.03958798e-06
  0.00000000e+00  0.00000000e+00  0.00000000e+00  2.93200781e-06]","[[-6.03348935e-04  1.29904672e-03]
 [-4.93294737e-05 -1.45342057e-02]]",[],0.0,0.0
1787584797.9421735,0.4980825397549773,-0.5748231669779499,0.08714186372173272,"[ 2.41847384e-05  1.88528364e-07  0.00000000e+00  0.00000000e+00
  0.00000000e+00 -2.83838994e-07  1.88528364e-07  2.44505127e-05
  0.00000000e+00  0.00000000e+00  0.00000000e+00  1.03958798e-06
  0.00000000e+00  0.00000000e+00  0.00000000e+00  0.00000000e+00
  0.00000000e+00  0.00000000e+00  0.00000000e+00  0.00000000e+00
  0.00000000e+00  0.00000000e+00  0.00000000e+00  0.00000000e+00
  0.00000000e+00  0.00000000e+00  0.00000000e+00  0.00000000e+00
  0.00000000e+00  0.00000000e+00 -2.83838994e-07  1.03958798e-06
  0.00000000e+00  0.00000000e+00  0.00000000e+00  2.93200781e-06]","[[-6.03348935e-04  1.29904672e-03]
 [-4.93294737e-05 -1.45342057e-02]]",[],0.0,0.0
1787584797.995745,0.4980825397549773,-0.5748231669779499,0.08714186372173272,"[ 2.41847384e-05  1.88528364e-07  0.00000000e+00  0.00000000e+00
  0.00000000e+00 -2.83838994e-07  1.88528364e-07  2.44505127e-05
  0.00000000e+00  0.00000000e+00  0.00000000e+00  1.03958798e-06
  0.00000000e+00  0.00000000e+00  0.00000000e+00  0.00000000e+00
  0.00000000e+00  0.00000000e+00  0.00000000e+00  0.00000000e+00
  0.00000000e+00  0.00000000e+00  0.00000000e+00  0.00000000e+00
  0.00000000e+00  0.00000000e+00  0.00000000e+00  0.00000000e+00
  0.00000000e+00  0.00000000e+00 -2.83838994e-07  1.03958798e-06
  0.00000000e+00  0.00000000e+00  0.00000000e+00  2.93200781e-06]","[[-6.03348935e-04  1.29904672e-03]
 [-4.93294737e-05 -1.45342057e-02]]",[],0.0,0.0
1787584798.0416026,0.4980825397549773,-0.5748231669779499,0.08714186372173272,"[ 2.41847384e-05  1.88528364e-07  0.00000000e+00  0.00000000e+00
  0.00000000e+00 -2.83838994e-07  1.88528364e-07  2.44505127e-05
  0.00000000e+00  0.00000000e+00  0.00000000e+00  1.03958798e-06
  0.00000000e+00  0.00000000e+00  0.00000000e+00  0.00000000e+00
  0.00000000e+00  0.00000000e+00  0.00000000e+00  0.00000000e+00
  0.00000000e+00  0.00000000e+00  0.00000000e+00  0.00000000e+00
  0.00000000e+00  0.00000000e+00  0.00000000e+00  0.00000000e+00
  0.00000000e+00  0.00000000e+00 -2.83838994e-07  1.03958798e-06
  0.00000000e+00  0.00000000e+00  0.00000000e+00  2.93200781e-06]","[[-6.03348935e-04  1.29904672e-03]
 [-4.93294737e-05 -1.45342057e-02]]",[],0.0,0.0
1787584798.0907302,0.4980825397549773,-0.5748231669779499,0.08714186372173272,"[ 2.41847384e-05  1.88528364e-07  0.00000000e+00  0.00000000e+00
  0.00000000e+00 -2.83838994e-07  1.88528364e-07  2.44505127e-05
  0.00000000e+00  0.00000000e+00  0.00000000e+00  1.03958798e-06
  0.00000000e+00  0.00000000e+00  0.00000000e+00  0.00000000e+00
  0.00000000e+00  0.00000000e+00  0.00000000e+00  0.00000000e+00
  0.00000000e+00  0.00000000e+00  0.00000000e+00  0.00000000e+00
  0.00000000e+00  0.00000000e+00  0.00000000e+00  0.00000000e+00
  0.00000000e+00  0.00000000e+00 -2.83838994e-07  1.03958798e-06
  0.00000000e+00  0.00000000e+00  0.00000000e+00  2.93200781e-06]","[[-6.03348935e-04  1.29904672e-03]
 [-4.93294737e-05 -1.45342057e-02]]",[],0.0,0.0
1787584798.1416886,0.4980825397549773,-0.5748231669779499,0.08714186372173272,"[ 2.41847384e-05  1.88528364e-07  0.00000000e+00  0.00000000e+00
  0.00000000e+00 -2.83838994e-07  1.88528364e-07  2.44505127e-05
  0.00000000e+00  0.00000000e+00  0.00000000e+00  1.03958798e-06
  0.00000000e+00  0.00000000e+00  0.00000000e+00  0.00000000e+00
  0.00000000e+00  0.00000000e+00  0.00000000e+00  0.00000000e+00
  0.00000000e+00  0.00000000e+00  0.00000000e+00  0.00000000e+00
  0.00000000e+00  0.00000000e+00  0.00000000e+00  0.00000000e+00
  0.00000000e+00  0.00000000e+00 -2.83838994e-07  1.03958798e-06
  0.00000000e+00  0.00000000e+00  0.00000000e+00  2.93200781e-06]","[[-6.03348935e-04  1.29904672e-03]
 [-4.93294737e-05 -1.45342057e-02]]",[],0.0,0.0
1787584798.2122688,0.4980825397549773,-0.5748231669779499,0.08714186372173272,"[ 2.41847384e-05  1.88528364e-07  0.00000000e+00  0.00000000e+00
  0.00000000e+00 -2.83838994e-07  1.88528364e-07  2.44505127e-05
  0.00000000e+00  0.00000000e+00  0.00000000e+00  1.03958798e-06
  0.00000000e+00  0.00000000e+00  0.00000000e+00  0.00000000e+00
  0.00000000e+00  0.00000000e+00  0.00000000e+00  0.00000000e+00
  0.00000000e+00  0.00000000e+00  0.00000000e+00  0.00000000e+00
  0.00000000e+00  0.00000000e+00  0.00000000e+00  0.00000000e+00
  0.00000000e+00  0.00000000e+00 -2.83838994e-07  1.03958798e-06
  0.00000000e+00  0.00000000e+00  0.00000000e+00  2.93200781e-06]","[[-6.03348935e-04  1.29904672e-03]
 [-4.93294737e-05 -1.45342057e-02]]",[],0.0,0.0
1787584798.2405443,0.4980825397549773,-0.5748231669779499,0.08714186372173272,"[ 2.41847384e-05  1.88528364e-07  0.00000000e+00  0.00000000e+00
  0.00000000e+00 -2.83838994e-07  1.88528364e-07  2.44505127e-05
  0.00000000e+00  0.00000000e+00  0.00000000e+00  1.03958798e-06
  0.00000000e+00  0.00000000e+00  0.00000000e+00  0.00000000e+00
  0.00000000e+00  0.00000000e+00  0.00000000e+00  0.00000000e+00
  0.00000000e+00  0.00000000e+00  0.00000000e+00  0.00000000e+00
  0.00000000e+00  0.00000000e+00  0.00000000e+00  0.00000000e+00
  0.00000000e+00  0.00000000e+00 -2.83838994e-07  1.03958798e-06
  0.00000000e+00  0.00000000e+00  0.00000000e+00  2.93200781e-06]","[[-6.03348935e-04  1.29904672e-03]
 [-4.93294737e-05 -1.45342057e-02]]",[],0.0,0.0
1787584798.2900088,0.5001410897054199,-0.5749772926174486,0.08546098897182165,"[ 1.64553160e-05 -5.43969175e-09  0.00000000e+00  0.00000000e+00
  0.00000000e+00 -1.85473459e-07 -5.43969175e-09  1.63325965e-05
  0.00000000e+00  0.00000000e+00  0.00000000e+00  4.15477103e-07
  0.00000000e+00  0.00000000e+00  0.00000000e+00  0.00000000e+00
  0.00000000e+00  0.00000000e+00  0.00000000e+00  0.00000000e+00
  0.00000000e+00  0.00000000e+00  0.00000000e+00  0.00000000e+00
  0.00000000e+00  0.00000000e+00  0.00000000e+00  0.00000000e+00
  0.00000000e+00  0.00000000e+00 -1.85473459e-07  4.15477103e-07
  0.00000000e+00  0.00000000e+00  0.00000000e+00  2.94100481e-06]","[[-4.10799627e-04  7.65705640e-04]
 [-2.14653133e-05 -9.23228847e-03]]",[],0.0,0.0
1787584798.339944,0.5001410897054199,-0.5749772926174486,0.08546098897182165,"[ 1.64553160e-05 -5.43969175e-09  0.00000000e+00  0.00000000e+00
  0.00000000e+00 -1.85473459e-07 -5.43969175e-09  1.63325965e-05
  0.00000000e+00  0.00000000e+00  0.00000000e+00  4.15477103e-07
  0.00000000e+00  0.00000000e+00  0.00000000e+00  0.00000000e+00
  0.00000000e+00  0.00000000e+00  0.00000000e+00  0.00000000e+00
  0.00000000e+00  0.00000000e+00  0.00000000e+00  0.00000000e+00
  0.00000000e+00  0.00000000e+00  0.00000000e+00  0.00000000e+00
  0.00000000e+00  0.00000000e+00 -1.85473459e-07  4.15477103e-07
  0.00000000e+00  0.00000000e+00  0.00000000e+00  2.94100481e-06]","[[-4.10799627e-04  7.65705640e-04]
 [-2.14653133e-05 -9.23228847e-03]]",[],0.0,0.0
1787584798.3908284,0.5001410897054199,-0.5749772926174486,0.08546098897182165,"[ 1.64553160e-05 -5.43969175e-09  0.00000000e+00  0.00000000e+00
  0.00000000e+00 -1.85473459e-07 -5.43969175e-09  1.63325965e-05
  0.00000000e+00  0.00000000e+00  0.00000000e+00  4.15477103e-07
  0.00000000e+00  0.00000000e+00  0.00000000e+00  0.00000000e+00
  0.00000000e+00  0.00000000e+00  0.00000000e+00  0.00000000e+00
  0.00000000e+00  0.00000000e+00  0.00000000e+00  0.00000000e+00
  0.00000000e+00  0.00000000e+00  0.00000000e+00  0.00000000e+00
  0.00000000e+00  0.00000000e+00 -1.85473459e-07  4.15477103e-07
  0.00000000e+00  0.00000000e+00  0.00000000e+00  2.94100481e-06]","[[-4.10799627e-04  7.65705640e-04]
 [-2.14653133e-05 -9.23228847e-03]]",[],0.0,0.0
1787584798.443833,0.5001410897054199,-0.5749772926174486,0.08546098897182165,"[ 1.64553160e-05 -5.43969175e-09  0.00000000e+00  0.00000000e+00
  0.00000000e+00 -1.85473459e-07 -5.43969175e-09  1.63325965e-05
  0.00000000e+00  0.00000000e+00  0.00000000e+00  4.15477103e-07
  0.00000000e+00  0.00000000e+00  0.00000000e+00  0.00000000e+00
  0.00000000e+00  0.00000000e+00  0.00000000e+00  0.00000000e+00
  0.00000000e+00  0.00000000e+00  0.00000000e+00  0.00000000e+00
  0.00000000e+00  0.00000000e+00  0.00000000e+00  0.00000000e+00
  0.00000000e+00  0.00000000e+00 -1.85473459e-07  4.15477103e-07
  0.00000000e+00  0.00000000e+00  0.00000000e+00  2.94100481e-06]","[[-4.10799627e-04  7.65705640e-04]
 [-2.14653133e-05 -9.23228847e-03]]",[],0.0,0.0
1787584798.4896498,0.5001410897054199,-0.5749772926174486,0.08546098897182165,"[ 1.64553160e-05 -5.43969175e-09  0.00000000e+00  0.00000000e+00
  0.00000000e+00 -1.85473459e-07 -5.43969175e-09  1.63325965e-05
  0.00000000e+00  0.00000000e+00  0.00000000e+00  4.15477103e-07
  0.00000000e+00  0.00000000e+00  0.00000000e+00  0.00000000e+00
  0.00000000e+00  0.00000000e+00  0.00000000e+00  0.00000000e+00
  0.00000000e+00  0.00000000e+00  0.00000000e+00  0.00000000e+00
  0.00000000e+00  0.00000000e+00  0.00000000e+00  0.00000000e+00
  0.00000000e+00  0.00000000e+00 -1.85473459e-07  4.15477103e-07
  0.00000000e+00  0.00000000e+00  0.00000000e+00  2.94100481e-06]","[[-4.10799627e-04  7.65705640e-04]
 [-2.14653133e-05 -9.23228847e-03]]",[],0.0,0.0
1787584798.5397313,0.5001410897054199,-0.5749772926174486,0.08546098897182165,"[ 1.64553160e-05 -5.43969175e-09  0.00000000e+00  0.00000000e+00
  0.00000000e+00 -1.85473459e-07 -5.43969175e-09  1.63325965e-05
  0.00000000e+00  0.00000000e+00  0.00000000e+00  4.15477103e-07
  0.00000000e+00  0.00000000e+00  0.00000000e+00  0.00000000e+00
  0.00000000e+00  0.00000000e+00  0.00000000e+00  0.00000000e+00
  0.00000000e+00  0.00000000e+00  0.00000000e+00  0.00000000e+00
  0.00000000e+00  0.00000000e+00  0.00000000e+00  0.00000000e+00
  0.00000000e+00  0.00000000e+00 -1.85473459e-07  4.15477103e-07
  0.00000000e+00  0.00000000e+00  0.00000000e+00  2.94100481e-06]","[[-4.10799627e-04  7.65705640e-04]
 [-2.14653133e-05 -9.23228847e-03]]",[],0.0,0.0
1787584798.5904171,0.5001410897054199,-0.5749772926174486,0.08546098897182165,"[ 1.64553160e-05 -5.43969175e-09  0.00000000e+00  0.00000000e+00
  0.00000000e+00 -1.85473459e-07 -5.43969175e-09  1.63325965e-05
  0.00000000e+00  0.00000000e+00  0.00000000e+00  4.15477103e-07
  0.00000000e+00  0.00000000e+00  0.00000000e+00  0.00000000e+00
  0.00000000e+00  0.00000000e+00  0.00000000e+00  0.00000000e+00
  0.00000000e+00  0.00000000e+00  0.00000000e+00  0.00000000e+00
  0.00000000e+00  0.00000000e+00  0.00000000e+00  0.00000000e+00
  0.00000000e+00  0.00000000e+00 -1.85473459e-07  4.15477103e-07
  0.00000000e+00  0.00000000e+00  0.00000000e+00  2.94100481e-06]","[[-4.10799627e-04  7.65705640e-04]
 [-2.14653133e-05 -9.23228847e-03]]",[],0.0,0.0
1787584798.6408372,0.5001410897054199,-0.5749772926174486,0.08546098897182165,"[ 1.64553160e-05 -5.43969175e-09  0.00000000e+00  0.00000000e+00
  0.00000000e+00 -1.85473459e-07 -5.43969175e-09  1.63325965e-05
  0.00000000e+00  0.00000000e+00  0.00000000e+00  4.15477103e-07
  0.00000000e+00  0.00000000e+00  0.00000000e+00  0.00000000e+00
  0.00000000e+00  0.00000000e+00  0.00000000e+00  0.00000000e+00
  0.00000000e+00  0.00000000e+00  0.00000000e+00  0.00000000e+00
  0.00000000e+00  0.00000000e+00  0.00000000e+00  0.00000000e+00
  0.00000000e+00  0.00000000e+00 -1.85473459e-07  4.15477103e-07
  0.00000000e+00  0.00000000e+00  0.00000000e+00  2.94100481e-06]","[[-4.10799627e-04  7.65705640e-04]
 [-2.14653133e-05 -9.23228847e-03]]",[],0.0,0.0
1787584798.716134,0.5001410897054199,-0.5749772926174486,0.08546098897182165,"[ 1.64553160e-05 -5.43969175e-09  0.00000000e+00  0.00000000e+00
  0.00000000e+00 -1.85473459e-07 -5.43969175e-09  1.63325965e-05
  0.00000000e+00  0.00000000e+00  0.00000000e+00  4.15477103e-07
  0.00000000e+00  0.00000000e+00  0.00000000e+00  0.00000000e+00
  0.00000000e+00  0.00000000e+00  0.00000000e+00  0.00000000e+00
  0.00000000e+00  0.00000000e+00  0.00000000e+00  0.00000000e+00
  0.00000000e+00  0.00000000e+00  0.00000000e+00  0.00000000e+00
  0.00000000e+00  0.00000000e+00 -1.85473459e-07  4.15477103e-07
  0.00000000e+00  0.00000000e+00  0.00000000e+00  2.94100481e-06]","[[-4.10799627e-04  7.65705640e-04]
 [-2.14653133e-05 -9.23228847e-03]]",[],0.0,0.0
1787584798.7403786,0.5001410897054199,-0.5749772926174486,0.08546098897182165,"[ 1.64553160e-05 -5.43969175e-09  0.00000000e+00  0.00000000e+00
  0.00000000e+00 -1.85473459e-07 -5.43969175e-09  1.63325965e-05
  0.00000000e+00  0.00000000e+00  0.00000000e+00  4.15477103e-07
  0.00000000e+00  0.00000000e+00  0.00000000e+00  0.00000000e+00
  0.00000000e+00  0.00000000e+00  0.00000000e+00  0.00000000e+00
  0.00000000e+00  0.00000000e+00  0.00000000e+00  0.00000000e+00
  0.00000000e+00  0.00000000e+00  0.00000000e+00  0.00000000e+00
  0.00000000e+00  0.00000000e+00 -1.85473459e-07  4.15477103e-07
  0.00000000e+00  0.00000000e+00  0.00000000e+00  2.94100481e-06]","[[-4.10799627e-04  7.65705640e-04]
 [-2.14653133e-05 -9.23228847e-03]]",[],0.0,0.0
1787584798.7949972,0.5001410897054199,-0.5749772926174486,0.08546098897182165,"[ 1.64553160e-05 -5.43969175e-09  0.00000000e+00  0.00000000e+00
  0.00000000e+00 -1.85473459e-07 -5.43969175e-09  1.63325965e-05
  0.00000000e+00  0.00000000e+00  0.00000000e+00  4.15477103e-07
  0.00000000e+00  0.00000000e+00  0.00000000e+00  0.00000000e+00
  0.00000000e+00  0.00000000e+00  0.00000000e+00  0.00000000e+00
  0.00000000e+00  0.00000000e+00  0.00000000e+00  0.00000000e+00
  0.00000000e+00  0.00000000e+00  0.00000000e+00  0.00000000e+00
  0.00000000e+00  0.00000000e+00 -1.85473459e-07  4.15477103e-07
  0.00000000e+00  0.00000000e+00  0.00000000e+00  2.94100481e-06]","[[-4.10799627e-04  7.65705640e-04]
 [-2.14653133e-05 -9.23228847e-03]]",[],0.0,0.0
1787584798.8411725,0.5001410897054199,-0.5749772926174486,0.08546098897182165,"[ 1.64553160e-05 -5.43969175e-09  0.00000000e+00  0.00000000e+00
  0.00000000e+00 -1.85473459e-07 -5.43969175e-09  1.63325965e-05
  0.00000000e+00  0.00000000e+00  0.00000000e+00  4.15477103e-07
  0.00000000e+00  0.00000000e+00  0.00000000e+00  0.00000000e+00
  0.00000000e+00  0.00000000e+00  0.00000000e+00  0.00000000e+00
  0.00000000e+00  0.00000000e+00  0.00000000e+00  0.00000000e+00
  0.00000000e+00  0.00000000e+00  0.00000000e+00  0.00000000e+00
  0.00000000e+00  0.00000000e+00 -1.85473459e-07  4.15477103e-07
  0.00000000e+00  0.00000000e+00  0.00000000e+00  2.94100481e-06]","[[-4.10799627e-04  7.65705640e-04]
 [-2.14653133e-05 -9.23228847e-03]]",[],0.0,0.0
1787584798.8904257,0.5001410897054199,-0.5749772926174486,0.08546098897182165,"[ 1.64553160e-05 -5.43969175e-09  0.00000000e+00  0.00000000e+00
  0.00000000e+00 -1.85473459e-07 -5.43969175e-09  1.63325965e-05
  0.00000000e+00  0.00000000e+00  0.00000000e+00  4.15477103e-07
  0.00000000e+00  0.00000000e+00  0.00000000e+00  0.00000000e+00
  0.00000000e+00  0.00000000e+00  0.00000000e+00  0.00000000e+00
  0.00000000e+00  0.00000000e+00  0.00000000e+00  0.00000000e+00
  0.00000000e+00  0.00000000e+00  0.00000000e+00  0.00000000e+00
  0.00000000e+00  0.00000000e+00 -1.85473459e-07  4.15477103e-07
  0.00000000e+00  0.00000000e+00  0.00000000e+00  2.94100481e-06]","[[-4.10799627e-04  7.65705640e-04]
 [-2.14653133e-05 -9.23228847e-03]]",[],0.0,0.0
1787584798.9397488,0.5001410897054199,-0.5749772926174486,0.08546098897182165,"[ 1.64553160e-05 -5.43969175e-09  0.00000000e+00  0.00000000e+00
  0.00000000e+00 -1.85473459e-07 -5.43969175e-09  1.63325965e-05
  0.00000000e+00  0.00000000e+00  0.00000000e+00  4.15477103e-07
  0.00000000e+00  0.00000000e+00  0.00000000e+00  0.00000000e+00
  0.00000000e+00  0.00000000e+00  0.00000000e+00  0.00000000e+00
  0.00000000e+00  0.00000000e+00  0.00000000e+00  0.00000000e+00
  0.00000000e+00  0.00000000e+00  0.00000000e+00  0.00000000e+00
  0.00000000e+00  0.00000000e+00 -1.85473459e-07  4.15477103e-07
  0.00000000e+00  0.00000000e+00  0.00000000e+00  2.94100481e-06]","[[-4.10799627e-04  7.65705640e-04]
 [-2.14653133e-05 -9.23228847e-03]]",[],0.0,0.0
1787584798.9897184,0.5001410897054199,-0.5749772926174486,0.08546098897182165,"[ 1.64553160e-05 -5.43969175e-09  0.00000000e+00  0.00000000e+00
  0.00000000e+00 -1.85473459e-07 -5.43969175e-09  1.63325965e-05
  0.00000000e+00  0.00000000e+00  0.00000000e+00  4.15477103e-07
  0.00000000e+00  0.00000000e+00  0.00000000e+00  0.00000000e+00
  0.00000000e+00  0.00000000e+00  0.00000000e+00  0.00000000e+00
  0.00000000e+00  0.00000000e+00  0.00000000e+00  0.00000000e+00
  0.00000000e+00  0.00000000e+00  0.00000000e+00  0.00000000e+00
  0.00000000e+00  0.00000000e+00 -1.85473459e-07  4.15477103e-07
  0.00000000e+00  0.00000000e+00  0.00000000e+00  2.94100481e-06]","[[-4.10799627e-04  7.65705640e-04]
 [-2.14653133e-05 -9.23228847e-03]]",[],0.0,0.0
1787584799.0471516,0.5001410897054199,-0.5749772926174486,0.08546098897182165,"[ 1.64553160e-05 -5.43969175e-09  0.00000000e+00  0.00000000e+00
  0.00000000e+00 -1.85473459e-07 -5.43969175e-09  1.63325965e-05
  0.00000000e+00  0.00000000e+00  0.00000000e+00  4.15477103e-07
  0.00000000e+00  0.00000000e+00  0.00000000e+00  0.00000000e+00
  0.00000000e+00  0.00000000e+00  0.00000000e+00  0.00000000e+00
  0.00000000e+00  0.00000000e+00  0.00000000e+00  0.00000000e+00
  0.00000000e+00  0.00000000e+00  0.00000000e+00  0.00000000e+00
  0.00000000e+00  0.00000000e+00 -1.85473459e-07  4.15477103e-07
  0.00000000e+00  0.00000000e+00  0.00000000e+00  2.94100481e-06]","[[-4.10799627e-04  7.65705640e-04]
 [-2.14653133e-05 -9.23228847e-03]]",[],0.0,0.0
1787584799.091059,0.5001410897054199,-0.5749772926174486,0.08546098897182165,"[ 1.64553160e-05 -5.43969175e-09  0.00000000e+00  0.00000000e+00
  0.00000000e+00 -1.85473459e-07 -5.43969175e-09  1.63325965e-05
  0.00000000e+00  0.00000000e+00  0.00000000e+00  4.15477103e-07
  0.00000000e+00  0.00000000e+00  0.00000000e+00  0.00000000e+00
  0.00000000e+00  0.00000000e+00  0.00000000e+00  0.00000000e+00
  0.00000000e+00  0.00000000e+00  0.00000000e+00  0.00000000e+00
  0.00000000e+00  0.00000000e+00  0.00000000e+00  0.00000000e+00
  0.00000000e+00  0.00000000e+00 -1.85473459e-07  4.15477103e-07
  0.00000000e+00  0.00000000e+00  0.00000000e+00  2.94100481e-06]","[[-4.10799627e-04  7.65705640e-04]
 [-2.14653133e-05 -9.23228847e-03]]",[],0.0,0.0
1787584799.1426995,0.5001410897054199,-0.5749772926174486,0.08546098897182165,"[ 1.64553160e-05 -5.43969175e-09  0.00000000e+00  0.00000000e+00
  0.00000000e+00 -1.85473459e-07 -5.43969175e-09  1.63325965e-05
  0.00000000e+00  0.00000000e+00  0.00000000e+00  4.15477103e-07
  0.00000000e+00  0.00000000e+00  0.00000000e+00  0.00000000e+00
  0.00000000e+00  0.00000000e+00  0.00000000e+00  0.00000000e+00
  0.00000000e+00  0.00000000e+00  0.00000000e+00  0.00000000e+00
  0.00000000e+00  0.00000000e+00  0.00000000e+00  0.00000000e+00
  0.00000000e+00  0.00000000e+00 -1.85473459e-07  4.15477103e-07
  0.00000000e+00  0.00000000e+00  0.00000000e+00  2.94100481e-06]","[[-4.10799627e-04  7.65705640e-04]
 [-2.14653133e-05 -9.23228847e-03]]",[],0.0,0.0
1787584799.2080145,0.5001410897054199,-0.5749772926174486,0.08546098897182165,"[ 1.64553160e-05 -5.43969175e-09  0.00000000e+00  0.00000000e+00
  0.00000000e+00 -1.85473459e-07 -5.43969175e-09  1.63325965e-05
  0.00000000e+00  0.00000000e+00  0.00000000e+00  4.15477103e-07
  0.00000000e+00  0.00000000e+00  0.00000000e+00  0.00000000e+00
  0.00000000e+00  0.00000000e+00  0.00000000e+00  0.00000000e+00
  0.00000000e+00  0.00000000e+00  0.00000000e+00  0.00000000e+00
  0.00000000e+00  0.00000000e+00  0.00000000e+00  0.00000000e+00
  0.00000000e+00  0.00000000e+00 -1.85473459e-07  4.15477103e-07
  0.00000000e+00  0.00000000e+00  0.00000000e+00  2.94100481e-06]","[[-4.10799627e-04  7.65705640e-04]
 [-2.14653133e-05 -9.23228847e-03]]",[],0.0,0.0
1787584799.2399724,0.5001410897054199,-0.5749772926174486,0.08546098897182165,"[ 1.64553160e-05 -5.43969175e-09  0.00000000e+00  0.00000000e+00
  0.00000000e+00 -1.85473459e-07 -5.43969175e-09  1.63325965e-05
  0.00000000e+00  0.00000000e+00  0.00000000e+00  4.15477103e-07
  0.00000000e+00  0.00000000e+00  0.00000000e+00  0.00000000e+00
  0.00000000e+00  0.00000000e+00  0.00000000e+00  0.00000000e+00
  0.00000000e+00  0.00000000e+00  0.00000000e+00  0.00000000e+00
  0.00000000e+00  0.00000000e+00  0.00000000e+00  0.00000000e+00
  0.00000000e+00  0.00000000e+00 -1.85473459e-07  4.15477103e-07
  0.00000000e+00  0.00000000e+00  0.00000000e+00  2.94100481e-06]","[[-4.10799627e-04  7.65705640e-04]
 [-2.14653133e-05 -9.23228847e-03]]",[],0.0,0.0
1787584799.2907777,0.5001410897054199,-0.5749772926174486,0.08546098897182165,"[ 1.64553160e-05 -5.43969175e-09  0.00000000e+00  0.00000000e+00
  0.00000000e+00 -1.85473459e-07 -5.43969175e-09  1.63325965e-05
  0.00000000e+00  0.00000000e+00  0.00000000e+00  4.15477103e-07
  0.00000000e+00  0.00000000e+00  0.00000000e+00  0.00000000e+00
  0.00000000e+00  0.00000000e+00  0.00000000e+00  0.00000000e+00
  0.00000000e+00  0.00000000e+00  0.00000000e+00  0.00000000e+00
  0.00000000e+00  0.00000000e+00  0.00000000e+00  0.00000000e+00
  0.00000000e+00  0.00000000e+00 -1.85473459e-07  4.15477103e-07
  0.00000000e+00  0.00000000e+00  0.00000000e+00  2.94100481e-06]","[[-4.10799627e-04  7.65705640e-04]
 [-2.14653133e-05 -9.23228847e-03]]",[],0.0,0.0
1787584799.340448,0.5001410897054199,-0.5749772926174486,0.08546098897182165,"[ 1.64553160e-05 -5.43969175e-09  0.00000000e+00  0.00000000e+00
  0.00000000e+00 -1.85473459e-07 -5.43969175e-09  1.63325965e-05
  0.00000000e+00  0.00000000e+00  0.00000000e+00  4.15477103e-07
  0.00000000e+00  0.00000000e+00  0.00000000e+00  0.00000000e+00
  0.00000000e+00  0.00000000e+00  0.00000000e+00  0.00000000e+00
  0.00000000e+00  0.00000000e+00  0.00000000e+00  0.00000000e+00
  0.00000000e+00  0.00000000e+00  0.00000000e+00  0.00000000e+00
  0.00000000e+00  0.00000000e+00 -1.85473459e-07  4.15477103e-07
  0.00000000e+00  0.00000000e+00  0.00000000e+00  2.94100481e-06]","[[-4.10799627e-04  7.65705640e-04]
 [-2.14653133e-05 -9.23228847e-03]]",[],0.0,0.0
1787584799.393026,0.5001410897054199,-0.5749772926174486,0.08546098897182165,"[ 1.64553160e-05 -5.43969175e-09  0.00000000e+00  0.00000000e+00
  0.00000000e+00 -1.85473459e-07 -5.43969175e-09  1.63325965e-05
  0.00000000e+00  0.00000000e+00  0.00000000e+00  4.15477103e-07
  0.00000000e+00  0.00000000e+00  0.00000000e+00  0.00000000e+00
  0.00000000e+00  0.00000000e+00  0.00000000e+00  0.00000000e+00
  0.00000000e+00  0.00000000e+00  0.00000000e+00  0.00000000e+00
  0.00000000e+00  0.00000000e+00  0.00000000e+00  0.00000000e+00
  0.00000000e+00  0.00000000e+00 -1.85473459e-07  4.15477103e-07
  0.00000000e+00  0.00000000e+00  0.00000000e+00  2.94100481e-06]","[[-4.10799627e-04  7.65705640e-04]
 [-2.14653133e-05 -9.23228847e-03]]",[],0.0,0.0
1787584799.4431028,0.5001410897054199,-0.5749772926174486,0.08546098897182165,"[ 1.64553160e-05 -5.43969175e-09  0.00000000e+00  0.00000000e+00
  0.00000000e+00 -1.85473459e-07 -5.43969175e-09  1.63325965e-05
  0.00000000e+00  0.00000000e+00  0.00000000e+00  4.15477103e-07
  0.00000000e+00  0.00000000e+00  0.00000000e+00  0.00000000e+00
  0.00000000e+00  0.00000000e+00  0.00000000e+00  0.00000000e+00
  0.00000000e+00  0.00000000e+00  0.00000000e+00  0.00000000e+00
  0.00000000e+00  0.00000000e+00  0.00000000e+00  0.00000000e+00
  0.00000000e+00  0.00000000e+00 -1.85473459e-07  4.15477103e-07
  0.00000000e+00  0.00000000e+00  0.00000000e+00  2.94100481e-06]","[[-4.10799627e-04  7.65705640e-04]
 [-2.14653133e-05 -9.23228847e-03]]",[],0.0,0.0
1787584799.5060105,0.5001410897054199,-0.5749772926174486,0.08546098897182165,"[ 1.64553160e-05 -5.43969175e-09  0.00000000e+00  0.00000000e+00
  0.00000000e+00 -1.85473459e-07 -5.43969175e-09  1.63325965e-05
  0.00000000e+00  0.00000000e+00  0.00000000e+00  4.15477103e-07
  0.00000000e+00  0.00000000e+00  0.00000000e+00  0.00000000e+00
  0.00000000e+00  0.00000000e+00  0.00000000e+00  0.00000000e+00
  0.00000000e+00  0.00000000e+00  0.00000000e+00  0.00000000e+00
  0.00000000e+00  0.00000000e+00  0.00000000e+00  0.00000000e+00
  0.00000000e+00  0.00000000e+00 -1.85473459e-07  4.15477103e-07
  0.00000000e+00  0.00000000e+00  0.00000000e+00  2.94100481e-06]","[[-4.10799627e-04  7.65705640e-04]
 [-2.14653133e-05 -9.23228847e-03]]",[],0.0,0.0
1787584799.5569386,0.5001410897054199,-0.5749772926174486,0.08546098897182165,"[ 1.64553160e-05 -5.43969175e-09  0.00000000e+00  0.00000000e+00
  0.00000000e+00 -1.85473459e-07 -5.43969175e-09  1.63325965e-05
  0.00000000e+00  0.00000000e+00  0.00000000e+00  4.15477103e-07
  0.00000000e+00  0.00000000e+00  0.00000000e+00  0.00000000e+00
  0.00000000e+00  0.00000000e+00  0.00000000e+00  0.00000000e+00
  0.00000000e+00  0.00000000e+00  0.00000000e+00  0.00000000e+00
  0.00000000e+00  0.00000000e+00  0.00000000e+00  0.00000000e+00
  0.00000000e+00  0.00000000e+00 -1.85473459e-07  4.15477103e-07
  0.00000000e+00  0.00000000e+00  0.00000000e+00  2.94100481e-06]","[[-4.10799627e-04  7.65705640e-04]
 [-2.14653133e-05 -9.23228847e-03]]",[],0.0,0.0
1787584799.6091468,0.5001410897054199,-0.5749772926174486,0.08546098897182165,"[ 1.64553160e-05 -5.43969175e-09  0.00000000e+00  0.00000000e+00
  0.00000000e+00 -1.85473459e-07 -5.43969175e-09  1.63325965e-05
  0.00000000e+00  0.00000000e+00  0.00000000e+00  4.15477103e-07
  0.00000000e+00  0.00000000e+00  0.00000000e+00  0.00000000e+00
  0.00000000e+00  0.00000000e+00  0.00000000e+00  0.00000000e+00
  0.00000000e+00  0.00000000e+00  0.00000000e+00  0.00000000e+00
  0.00000000e+00  0.00000000e+00  0.00000000e+00  0.00000000e+00
  0.00000000e+00  0.00000000e+00 -1.85473459e-07  4.15477103e-07
  0.00000000e+00  0.00000000e+00  0.00000000e+00  2.94100481e-06]","[[-4.10799627e-04  7.65705640e-04]
 [-2.14653133e-05 -9.23228847e-03]]",[],0.0,0.0
1787584799.647137,0.5001410897054199,-0.5749772926174486,0.08546098897182165,"[ 1.64553160e-05 -5.43969175e-09  0.00000000e+00  0.00000000e+00
  0.00000000e+00 -1.85473459e-07 -5.43969175e-09  1.63325965e-05
  0.00000000e+00  0.00000000e+00  0.00000000e+00  4.15477103e-07
  0.00000000e+00  0.00000000e+00  0.00000000e+00  0.00000000e+00
  0.00000000e+00  0.00000000e+00  0.00000000e+00  0.00000000e+00
  0.00000000e+00  0.00000000e+00  0.00000000e+00  0.00000000e+00
  0.00000000e+00  0.00000000e+00  0.00000000e+00  0.00000000e+00
  0.00000000e+00  0.00000000e+00 -1.85473459e-07  4.15477103e-07
  0.00000000e+00  0.00000000e+00  0.00000000e+00  2.94100481e-06]","[[-4.10799627e-04  7.65705640e-04]
 [-2.14653133e-05 -9.23228847e-03]]",[],0.0,0.0
1787584799.7172225,0.5001410897054199,-0.5749772926174486,0.08546098897182165,"[ 1.64553160e-05 -5.43969175e-09  0.00000000e+00  0.00000000e+00
  0.00000000e+00 -1.85473459e-07 -5.43969175e-09  1.63325965e-05
  0.00000000e+00  0.00000000e+00  0.00000000e+00  4.15477103e-07
  0.00000000e+00  0.00000000e+00  0.00000000e+00  0.00000000e+00
  0.00000000e+00  0.00000000e+00  0.00000000e+00  0.00000000e+00
  0.00000000e+00  0.00000000e+00  0.00000000e+00  0.00000000e+00
  0.00000000e+00  0.00000000e+00  0.00000000e+00  0.00000000e+00
  0.00000000e+00  0.00000000e+00 -1.85473459e-07  4.15477103e-07
  0.00000000e+00  0.00000000e+00  0.00000000e+00  2.94100481e-06]","[[-4.10799627e-04  7.65705640e-04]
 [-2.14653133e-05 -9.23228847e-03]]",[],0.0,0.0
1787584799.7402806,0.5001410897054199,-0.5749772926174486,0.08546098897182165,"[ 1.64553160e-05 -5.43969175e-09  0.00000000e+00  0.00000000e+00
  0.00000000e+00 -1.85473459e-07 -5.43969175e-09  1.63325965e-05
  0.00000000e+00  0.00000000e+00  0.00000000e+00  4.15477103e-07
  0.00000000e+00  0.00000000e+00  0.00000000e+00  0.00000000e+00
  0.00000000e+00  0.00000000e+00  0.00000000e+00  0.00000000e+00
  0.00000000e+00  0.00000000e+00  0.00000000e+00  0.00000000e+00
  0.00000000e+00  0.00000000e+00  0.00000000e+00  0.00000000e+00
  0.00000000e+00  0.00000000e+00 -1.85473459e-07  4.15477103e-07
  0.00000000e+00  0.00000000e+00  0.00000000e+00  2.94100481e-06]","[[-4.10799627e-04  7.65705640e-04]
 [-2.14653133e-05 -9.23228847e-03]]",[],0.0,0.0
1787584799.791168,0.5001410897054199,-0.5749772926174486,0.08546098897182165,"[ 1.64553160e-05 -5.43969175e-09  0.00000000e+00  0.00000000e+00
  0.00000000e+00 -1.85473459e-07 -5.43969175e-09  1.63325965e-05
  0.00000000e+00  0.00000000e+00  0.00000000e+00  4.15477103e-07
  0.00000000e+00  0.00000000e+00  0.00000000e+00  0.00000000e+00
  0.00000000e+00  0.00000000e+00  0.00000000e+00  0.00000000e+00
  0.00000000e+00  0.00000000e+00  0.00000000e+00  0.00000000e+00
  0.00000000e+00  0.00000000e+00  0.00000000e+00  0.00000000e+00
  0.00000000e+00  0.00000000e+00 -1.85473459e-07  4.15477103e-07
  0.00000000e+00  0.00000000e+00  0.00000000e+00  2.94100481e-06]","[[-4.10799627e-04  7.65705640e-04]
 [-2.14653133e-05 -9.23228847e-03]]",[],0.0,0.0
1787584799.8467746,0.5026391241240057,-0.5749679982328072,0.08156771242443252,"[ 1.26397021e-05 -1.08896357e-07  0.00000000e+00  0.00000000e+00
  0.00000000e+00 -1.58545650e-07 -1.08896357e-07  1.23141404e-05
  0.00000000e+00  0.00000000e+00  0.00000000e+00  5.07811293e-07
  0.00000000e+00  0.00000000e+00  0.00000000e+00  0.00000000e+00
  0.00000000e+00  0.00000000e+00  0.00000000e+00  0.00000000e+00
  0.00000000e+00  0.00000000e+00  0.00000000e+00  0.00000000e+00
  0.00000000e+00  0.00000000e+00  0.00000000e+00  0.00000000e+00
  0.00000000e+00  0.00000000e+00 -1.58545650e-07  5.07811293e-07
  0.00000000e+00  0.00000000e+00  0.00000000e+00  3.00436434e-06]","[[-3.15069690e-04  7.75434317e-04]
 [-1.82980162e-05 -7.33418200e-03]]",[],0.0,0.0
1787584799.9039073,0.5026391241240057,-0.5749679982328072,0.08156771242443252,"[ 1.26397021e-05 -1.08896357e-07  0.00000000e+00  0.00000000e+00
  0.00000000e+00 -1.58545650e-07 -1.08896357e-07  1.23141404e-05
  0.00000000e+00  0.00000000e+00  0.00000000e+00  5.07811293e-07
  0.00000000e+00  0.00000000e+00  0.00000000e+00  0.00000000e+00
  0.00000000e+00  0.00000000e+00  0.00000000e+00  0.00000000e+00
  0.00000000e+00  0.00000000e+00  0.00000000e+00  0.00000000e+00
  0.00000000e+00  0.00000000e+00  0.00000000e+00  0.00000000e+00
  0.00000000e+00  0.00000000e+00 -1.58545650e-07  5.07811293e-07
  0.00000000e+00  0.00000000e+00  0.00000000e+00  3.00436434e-06]","[[-3.15069690e-04  7.75434317e-04]
 [-1.82980162e-05 -7.33418200e-03]]",[],0.0,0.0
1787584799.939987,0.5026391241240057,-0.5749679982328072,0.08156771242443252,"[ 1.26397021e-05 -1.08896357e-07  0.00000000e+00  0.00000000e+00
  0.00000000e+00 -1.58545650e-07 -1.08896357e-07  1.23141404e-05
  0.00000000e+00  0.00000000e+00  0.00000000e+00  5.07811293e-07
  0.00000000e+00  0.00000000e+00  0.00000000e+00  0.00000000e+00
  0.00000000e+00  0.00000000e+00  0.00000000e+00  0.00000000e+00
  0.00000000e+00  0.00000000e+00  0.00000000e+00  0.00000000e+00
  0.00000000e+00  0.00000000e+00  0.00000000e+00  0.00000000e+00
  0.00000000e+00  0.00000000e+00 -1.58545650e-07  5.07811293e-07
  0.00000000e+00  0.00000000e+00  0.00000000e+00  3.00436434e-06]","[[-3.15069690e-04  7.75434317e-04]
 [-1.82980162e-05 -7.33418200e-03]]",[],0.0,0.0
1787584799.9918616,0.5026391241240057,-0.5749679982328072,0.08156771242443252,"[ 1.26397021e-05 -1.08896357e-07  0.00000000e+00  0.00000000e+00
  0.00000000e+00 -1.58545650e-07 -1.08896357e-07  1.23141404e-05
  0.00000000e+00  0.00000000e+00  0.00000000e+00  5.07811293e-07
  0.00000000e+00  0.00000000e+00  0.00000000e+00  0.00000000e+00
  0.00000000e+00  0.00000000e+00  0.00000000e+00  0.00000000e+00
  0.00000000e+00  0.00000000e+00  0.00000000e+00  0.00000000e+00
  0.00000000e+00  0.00000000e+00  0.00000000e+00  0.00000000e+00
  0.00000000e+00  0.00000000e+00 -1.58545650e-07  5.07811293e-07
  0.00000000e+00  0.00000000e+00  0.00000000e+00  3.00436434e-06]","[[-3.15069690e-04  7.75434317e-04]
 [-1.82980162e-05 -7.33418200e-03]]",[],0.0,0.0
1787584800.041663,0.5026391241240057,-0.5749679982328072,0.08156771242443252,"[ 1.26397021e-05 -1.08896357e-07  0.00000000e+00  0.00000000e+00
  0.00000000e+00 -1.58545650e-07 -1.08896357e-07  1.23141404e-05
  0.00000000e+00  0.00000000e+00  0.00000000e+00  5.07811293e-07
  0.00000000e+00  0.00000000e+00  0.00000000e+00  0.00000000e+00
  0.00000000e+00  0.00000000e+00  0.00000000e+00  0.00000000e+00
  0.00000000e+00  0.00000000e+00  0.00000000e+00  0.00000000e+00
  0.00000000e+00  0.00000000e+00  0.00000000e+00  0.00000000e+00
  0.00000000e+00  0.00000000e+00 -1.58545650e-07  5.07811293e-07
  0.00000000e+00  0.00000000e+00  0.00000000e+00  3.00436434e-06]","[[-3.15069690e-04  7.75434317e-04]
 [-1.82980162e-05 -7.33418200e-03]]",[],0.0,0.0
1787584800.0896869,0.5026391241240057,-0.5749679982328072,0.08156771242443252,"[ 1.26397021e-05 -1.08896357e-07  0.00000000e+00  0.00000000e+00
  0.00000000e+00 -1.58545650e-07 -1.08896357e-07  1.23141404e-05
  0.00000000e+00  0.00000000e+00  0.00000000e+00  5.07811293e-07
  0.00000000e+00  0.00000000e+00  0.00000000e+00  0.00000000e+00
  0.00000000e+00  0.00000000e+00  0.00000000e+00  0.00000000e+00
  0.00000000e+00  0.00000000e+00  0.00000000e+00  0.00000000e+00
  0.00000000e+00  0.00000000e+00  0.00000000e+00  0.00000000e+00
  0.00000000e+00  0.00000000e+00 -1.58545650e-07  5.07811293e-07
  0.00000000e+00  0.00000000e+00  0.00000000e+00  3.00436434e-06]","[[-3.15069690e-04  7.75434317e-04]
 [-1.82980162e-05 -7.33418200e-03]]",[],0.0,0.0
1787584800.1402235,0.5026391241240057,-0.5749679982328072,0.08156771242443252,"[ 1.26397021e-05 -1.08896357e-07  0.00000000e+00  0.00000000e+00
  0.00000000e+00 -1.58545650e-07 -1.08896357e-07  1.23141404e-05
  0.00000000e+00  0.00000000e+00  0.00000000e+00  5.07811293e-07
  0.00000000e+00  0.00000000e+00  0.00000000e+00  0.00000000e+00
  0.00000000e+00  0.00000000e+00  0.00000000e+00  0.00000000e+00
  0.00000000e+00  0.00000000e+00  0.00000000e+00  0.00000000e+00
  0.00000000e+00  0.00000000e+00  0.00000000e+00  0.00000000e+00
  0.00000000e+00  0.00000000e+00 -1.58545650e-07  5.07811293e-07
  0.00000000e+00  0.00000000e+00  0.00000000e+00  3.00436434e-06]","[[-3.15069690e-04  7.75434317e-04]
 [-1.82980162e-05 -7.33418200e-03]]",[],0.0,0.0
1787584800.1955776,0.5026391241240057,-0.5749679982328072,0.08156771242443252,"[ 1.26397021e-05 -1.08896357e-07  0.00000000e+00  0.00000000e+00
  0.00000000e+00 -1.58545650e-07 -1.08896357e-07  1.23141404e-05
  0.00000000e+00  0.00000000e+00  0.00000000e+00  5.07811293e-07
  0.00000000e+00  0.00000000e+00  0.00000000e+00  0.00000000e+00
  0.00000000e+00  0.00000000e+00  0.00000000e+00  0.00000000e+00
  0.00000000e+00  0.00000000e+00  0.00000000e+00  0.00000000e+00
  0.00000000e+00  0.00000000e+00  0.00000000e+00  0.00000000e+00
  0.00000000e+00  0.00000000e+00 -1.58545650e-07  5.07811293e-07
  0.00000000e+00  0.00000000e+00  0.00000000e+00  3.00436434e-06]","[[-3.15069690e-04  7.75434317e-04]
 [-1.82980162e-05 -7.33418200e-03]]",[],0.0,0.0
1787584800.2394748,0.5026391241240057,-0.5749679982328072,0.08156771242443252,"[ 1.26397021e-05 -1.08896357e-07  0.00000000e+00  0.00000000e+00
  0.00000000e+00 -1.58545650e-07 -1.08896357e-07  1.23141404e-05
  0.00000000e+00  0.00000000e+00  0.00000000e+00  5.07811293e-07
  0.00000000e+00  0.00000000e+00  0.00000000e+00  0.00000000e+00
  0.00000000e+00  0.00000000e+00  0.00000000e+00  0.00000000e+00
  0.00000000e+00  0.00000000e+00  0.00000000e+00  0.00000000e+00
  0.00000000e+00  0.00000000e+00  0.00000000e+00  0.00000000e+00
  0.00000000e+00  0.00000000e+00 -1.58545650e-07  5.07811293e-07
  0.00000000e+00  0.00000000e+00  0.00000000e+00  3.00436434e-06]","[[-3.15069690e-04  7.75434317e-04]
 [-1.82980162e-05 -7.33418200e-03]]",[],0.0,0.0
1787584800.3044727,0.5026391241240057,-0.5749679982328072,0.08156771242443252,"[ 1.26397021e-05 -1.08896357e-07  0.00000000e+00  0.00000000e+00
  0.00000000e+00 -1.58545650e-07 -1.08896357e-07  1.23141404e-05
  0.00000000e+00  0.00000000e+00  0.00000000e+00  5.07811293e-07
  0.00000000e+00  0.00000000e+00  0.00000000e+00  0.00000000e+00
  0.00000000e+00  0.00000000e+00  0.00000000e+00  0.00000000e+00
  0.00000000e+00  0.00000000e+00  0.00000000e+00  0.00000000e+00
  0.00000000e+00  0.00000000e+00  0.00000000e+00  0.00000000e+00
  0.00000000e+00  0.00000000e+00 -1.58545650e-07  5.07811293e-07
  0.00000000e+00  0.00000000e+00  0.00000000e+00  3.00436434e-06]","[[-3.15069690e-04  7.75434317e-04]
 [-1.82980162e-05 -7.33418200e-03]]",[],0.0,0.0
1787584800.4570863,0.5026391241240057,-0.5749679982328072,0.08156771242443252,"[ 1.26397021e-05 -1.08896357e-07  0.00000000e+00  0.00000000e+00
  0.00000000e+00 -1.58545650e-07 -1.08896357e-07  1.23141404e-05
  0.00000000e+00  0.00000000e+00  0.00000000e+00  5.07811293e-07
  0.00000000e+00  0.00000000e+00  0.00000000e+00  0.00000000e+00
  0.00000000e+00  0.00000000e+00  0.00000000e+00  0.00000000e+00
  0.00000000e+00  0.00000000e+00  0.00000000e+00  0.00000000e+00
  0.00000000e+00  0.00000000e+00  0.00000000e+00  0.00000000e+00
  0.00000000e+00  0.00000000e+00 -1.58545650e-07  5.07811293e-07
  0.00000000e+00  0.00000000e+00  0.00000000e+00  3.00436434e-06]","[[-3.15069690e-04  7.75434317e-04]
 [-1.82980162e-05 -7.33418200e-03]]",[],0.0,0.0
1787584800.5112193,0.5026391241240057,-0.5749679982328072,0.08156771242443252,"[ 1.26397021e-05 -1.08896357e-07  0.00000000e+00  0.00000000e+00
  0.00000000e+00 -1.58545650e-07 -1.08896357e-07  1.23141404e-05
  0.00000000e+00  0.00000000e+00  0.00000000e+00  5.07811293e-07
  0.00000000e+00  0.00000000e+00  0.00000000e+00  0.00000000e+00
  0.00000000e+00  0.00000000e+00  0.00000000e+00  0.00000000e+00
  0.00000000e+00  0.00000000e+00  0.00000000e+00  0.00000000e+00
  0.00000000e+00  0.00000000e+00  0.00000000e+00  0.00000000e+00
  0.00000000e+00  0.00000000e+00 -1.58545650e-07  5.07811293e-07
  0.00000000e+00  0.00000000e+00  0.00000000e+00  3.00436434e-06]","[[-3.15069690e-04  7.75434317e-04]
 [-1.82980162e-05 -7.33418200e-03]]",[],0.0,0.0
1787584800.5781436,0.5026391241240057,-0.5749679982328072,0.08156771242443252,"[ 1.26397021e-05 -1.08896357e-07  0.00000000e+00  0.00000000e+00
  0.00000000e+00 -1.58545650e-07 -1.08896357e-07  1.23141404e-05
  0.00000000e+00  0.00000000e+00  0.00000000e+00  5.07811293e-07
  0.00000000e+00  0.00000000e+00  0.00000000e+00  0.00000000e+00
  0.00000000e+00  0.00000000e+00  0.00000000e+00  0.00000000e+00
  0.00000000e+00  0.00000000e+00  0.00000000e+00  0.00000000e+00
  0.00000000e+00  0.00000000e+00  0.00000000e+00  0.00000000e+00
  0.00000000e+00  0.00000000e+00 -1.58545650e-07  5.07811293e-07
  0.00000000e+00  0.00000000e+00  0.00000000e+00  3.00436434e-06]","[[-3.15069690e-04  7.75434317e-04]
 [-1.82980162e-05 -7.33418200e-03]]",[],0.0,0.0
1787584800.735406,0.5026391241240057,-0.5749679982328072,0.08156771242443252,"[ 1.26397021e-05 -1.08896357e-07  0.00000000e+00  0.00000000e+00
  0.00000000e+00 -1.58545650e-07 -1.08896357e-07  1.23141404e-05
  0.00000000e+00  0.00000000e+00  0.00000000e+00  5.07811293e-07
  0.00000000e+00  0.00000000e+00  0.00000000e+00  0.00000000e+00
  0.00000000e+00  0.00000000e+00  0.00000000e+00  0.00000000e+00
  0.00000000e+00  0.00000000e+00  0.00000000e+00  0.00000000e+00
  0.00000000e+00  0.00000000e+00  0.00000000e+00  0.00000000e+00
  0.00000000e+00  0.00000000e+00 -1.58545650e-07  5.07811293e-07
  0.00000000e+00  0.00000000e+00  0.00000000e+00  3.00436434e-06]","[[-3.15069690e-04  7.75434317e-04]
 [-1.82980162e-05 -7.33418200e-03]]",[],0.0,0.0
1787584800.7459984,0.5026391241240057,-0.5749679982328072,0.08156771242443252,"[ 1.26397021e-05 -1.08896357e-07  0.00000000e+00  0.00000000e+00
  0.00000000e+00 -1.58545650e-07 -1.08896357e-07  1.23141404e-05
  0.00000000e+00  0.00000000e+00  0.00000000e+00  5.07811293e-07
  0.00000000e+00  0.00000000e+00  0.00000000e+00  0.00000000e+00
  0.00000000e+00  0.00000000e+00  0.00000000e+00  0.00000000e+00
  0.00000000e+00  0.00000000e+00  0.00000000e+00  0.00000000e+00
  0.00000000e+00  0.00000000e+00  0.00000000e+00  0.00000000e+00
  0.00000000e+00  0.00000000e+00 -1.58545650e-07  5.07811293e-07
  0.00000000e+00  0.00000000e+00  0.00000000e+00  3.00436434e-06]","[[-3.15069690e-04  7.75434317e-04]
 [-1.82980162e-05 -7.33418200e-03]]",[],0.0,0.0
1787584800.8270035,0.5026391241240057,-0.5749679982328072,0.08156771242443252,"[ 1.26397021e-05 -1.08896357e-07  0.00000000e+00  0.00000000e+00
  0.00000000e+00 -1.58545650e-07 -1.08896357e-07  1.23141404e-05
  0.00000000e+00  0.00000000e+00  0.00000000e+00  5.07811293e-07
  0.00000000e+00  0.00000000e+00  0.00000000e+00  0.00000000e+00
  0.00000000e+00  0.00000000e+00  0.00000000e+00  0.00000000e+00
  0.00000000e+00  0.00000000e+00  0.00000000e+00  0.00000000e+00
  0.00000000e+00  0.00000000e+00  0.00000000e+00  0.00000000e+00
  0.00000000e+00  0.00000000e+00 -1.58545650e-07  5.07811293e-07
  0.00000000e+00  0.00000000e+00  0.00000000e+00  3.00436434e-06]","[[-3.15069690e-04  7.75434317e-04]
 [-1.82980162e-05 -7.33418200e-03]]",[],0.0,0.0
1787584800.8543944,0.5026391241240057,-0.5749679982328072,0.08156771242443252,"[ 1.26397021e-05 -1.08896357e-07  0.00000000e+00  0.00000000e+00
  0.00000000e+00 -1.58545650e-07 -1.08896357e-07  1.23141404e-05
  0.00000000e+00  0.00000000e+00  0.00000000e+00  5.07811293e-07
  0.00000000e+00  0.00000000e+00  0.00000000e+00  0.00000000e+00
  0.00000000e+00  0.00000000e+00  0.00000000e+00  0.00000000e+00
  0.00000000e+00  0.00000000e+00  0.00000000e+00  0.00000000e+00
  0.00000000e+00  0.00000000e+00  0.00000000e+00  0.00000000e+00
  0.00000000e+00  0.00000000e+00 -1.58545650e-07  5.07811293e-07
  0.00000000e+00  0.00000000e+00  0.00000000e+00  3.00436434e-06]","[[-3.15069690e-04  7.75434317e-04]
 [-1.82980162e-05 -7.33418200e-03]]",[],0.0,0.0
1787584800.9408352,0.5026391241240057,-0.5749679982328072,0.08156771242443252,"[ 1.26397021e-05 -1.08896357e-07  0.00000000e+00  0.00000000e+00
  0.00000000e+00 -1.58545650e-07 -1.08896357e-07  1.23141404e-05
  0.00000000e+00  0.00000000e+00  0.00000000e+00  5.07811293e-07
  0.00000000e+00  0.00000000e+00  0.00000000e+00  0.00000000e+00
  0.00000000e+00  0.00000000e+00  0.00000000e+00  0.00000000e+00
  0.00000000e+00  0.00000000e+00  0.00000000e+00  0.00000000e+00
  0.00000000e+00  0.00000000e+00  0.00000000e+00  0.00000000e+00
  0.00000000e+00  0.00000000e+00 -1.58545650e-07  5.07811293e-07
  0.00000000e+00  0.00000000e+00  0.00000000e+00  3.00436434e-06]","[[-3.15069690e-04  7.75434317e-04]
 [-1.82980162e-05 -7.33418200e-03]]",[],0.0,0.0
1787584800.9896972,0.5026391241240057,-0.5749679982328072,0.08156771242443252,"[ 1.26397021e-05 -1.08896357e-07  0.00000000e+00  0.00000000e+00
  0.00000000e+00 -1.58545650e-07 -1.08896357e-07  1.23141404e-05
  0.00000000e+00  0.00000000e+00  0.00000000e+00  5.07811293e-07
  0.00000000e+00  0.00000000e+00  0.00000000e+00  0.00000000e+00
  0.00000000e+00  0.00000000e+00  0.00000000e+00  0.00000000e+00
  0.00000000e+00  0.00000000e+00  0.00000000e+00  0.00000000e+00
  0.00000000e+00  0.00000000e+00  0.00000000e+00  0.00000000e+00
  0.00000000e+00  0.00000000e+00 -1.58545650e-07  5.07811293e-07
  0.00000000e+00  0.00000000e+00  0.00000000e+00  3.00436434e-06]","[[-3.15069690e-04  7.75434317e-04]
 [-1.82980162e-05 -7.33418200e-03]]",[],0.0,0.0
1787584801.041192,0.5047552817708261,-0.5745718009936107,0.07640349064100473,"[ 1.02229361e-05 -1.17425515e-07  0.00000000e+00  0.00000000e+00
  0.00000000e+00 -5.69126884e-08 -1.17425515e-07  9.86138872e-06
  0.00000000e+00  0.00000000e+00  0.00000000e+00  3.61504989e-07
  0.00000000e+00  0.00000000e+00  0.00000000e+00  0.00000000e+00
  0.00000000e+00  0.00000000e+00  0.00000000e+00  0.00000000e+00
  0.00000000e+00  0.00000000e+00  0.00000000e+00  0.00000000e+00
  0.00000000e+00  0.00000000e+00  0.00000000e+00  0.00000000e+00
  0.00000000e+00  0.00000000e+00 -5.69126884e-08  3.61504989e-07
  0.00000000e+00  0.00000000e+00  0.00000000e+00  2.88321788e-06]","[[-2.55058191e-04  4.40066965e-04]
 [-1.01410573e-05 -5.76790742e-03]]",[],0.0,0.0
1787584801.092145,0.5047552817708261,-0.5745718009936107,0.07640349064100473,"[ 1.02229361e-05 -1.17425515e-07  0.00000000e+00  0.00000000e+00
  0.00000000e+00 -5.69126884e-08 -1.17425515e-07  9.86138872e-06
  0.00000000e+00  0.00000000e+00  0.00000000e+00  3.61504989e-07
  0.00000000e+00  0.00000000e+00  0.00000000e+00  0.00000000e+00
  0.00000000e+00  0.00000000e+00  0.00000000e+00  0.00000000e+00
  0.00000000e+00  0.00000000e+00  0.00000000e+00  0.00000000e+00
  0.00000000e+00  0.00000000e+00  0.00000000e+00  0.00000000e+00
  0.00000000e+00  0.00000000e+00 -5.69126884e-08  3.61504989e-07
  0.00000000e+00  0.00000000e+00  0.00000000e+00  2.88321788e-06]","[[-2.55058191e-04  4.40066965e-04]
 [-1.01410573e-05 -5.76790742e-03]]",[],0.0,0.0
1787584801.1405103,0.5047552817708261,-0.5745718009936107,0.07640349064100473,"[ 1.02229361e-05 -1.17425515e-07  0.00000000e+00  0.00000000e+00
  0.00000000e+00 -5.69126884e-08 -1.17425515e-07  9.86138872e-06
  0.00000000e+00  0.00000000e+00  0.00000000e+00  3.61504989e-07
  0.00000000e+00  0.00000000e+00  0.00000000e+00  0.00000000e+00
  0.00000000e+00  0.00000000e+00  0.00000000e+00  0.00000000e+00
  0.00000000e+00  0.00000000e+00  0.00000000e+00  0.00000000e+00
  0.00000000e+00  0.00000000e+00  0.00000000e+00  0.00000000e+00
  0.00000000e+00  0.00000000e+00 -5.69126884e-08  3.61504989e-07
  0.00000000e+00  0.00000000e+00  0.00000000e+00  2.88321788e-06]","[[-2.55058191e-04  4.40066965e-04]
 [-1.01410573e-05 -5.76790742e-03]]",[],0.0,0.0
1787584801.190061,0.5047552817708261,-0.5745718009936107,0.07640349064100473,"[ 1.02229361e-05 -1.17425515e-07  0.00000000e+00  0.00000000e+00
  0.00000000e+00 -5.69126884e-08 -1.17425515e-07  9.86138872e-06
  0.00000000e+00  0.00000000e+00  0.00000000e+00  3.61504989e-07
  0.00000000e+00  0.00000000e+00  0.00000000e+00  0.00000000e+00
  0.00000000e+00  0.00000000e+00  0.00000000e+00  0.00000000e+00
  0.00000000e+00  0.00000000e+00  0.00000000e+00  0.00000000e+00
  0.00000000e+00  0.00000000e+00  0.00000000e+00  0.00000000e+00
  0.00000000e+00  0.00000000e+00 -5.69126884e-08  3.61504989e-07
  0.00000000e+00  0.00000000e+00  0.00000000e+00  2.88321788e-06]","[[-2.55058191e-04  4.40066965e-04]
 [-1.01410573e-05 -5.76790742e-03]]",[],0.0,0.0
1787584801.2399724,0.5047552817708261,-0.5745718009936107,0.07640349064100473,"[ 1.02229361e-05 -1.17425515e-07  0.00000000e+00  0.00000000e+00
  0.00000000e+00 -5.69126884e-08 -1.17425515e-07  9.86138872e-06
  0.00000000e+00  0.00000000e+00  0.00000000e+00  3.61504989e-07
  0.00000000e+00  0.00000000e+00  0.00000000e+00  0.00000000e+00
  0.00000000e+00  0.00000000e+00  0.00000000e+00  0.00000000e+00
  0.00000000e+00  0.00000000e+00  0.00000000e+00  0.00000000e+00
  0.00000000e+00  0.00000000e+00  0.00000000e+00  0.00000000e+00
  0.00000000e+00  0.00000000e+00 -5.69126884e-08  3.61504989e-07
  0.00000000e+00  0.00000000e+00  0.00000000e+00  2.88321788e-06]","[[-2.55058191e-04  4.40066965e-04]
 [-1.01410573e-05 -5.76790742e-03]]",[],0.0,0.0
1787584801.2916358,0.5047552817708261,-0.5745718009936107,0.07640349064100473,"[ 1.02229361e-05 -1.17425515e-07  0.00000000e+00  0.00000000e+00
  0.00000000e+00 -5.69126884e-08 -1.17425515e-07  9.86138872e-06
  0.00000000e+00  0.00000000e+00  0.00000000e+00  3.61504989e-07
  0.00000000e+00  0.00000000e+00  0.00000000e+00  0.00000000e+00
  0.00000000e+00  0.00000000e+00  0.00000000e+00  0.00000000e+00
  0.00000000e+00  0.00000000e+00  0.00000000e+00  0.00000000e+00
  0.00000000e+00  0.00000000e+00  0.00000000e+00  0.00000000e+00
  0.00000000e+00  0.00000000e+00 -5.69126884e-08  3.61504989e-07
  0.00000000e+00  0.00000000e+00  0.00000000e+00  2.88321788e-06]","[[-2.55058191e-04  4.40066965e-04]
 [-1.01410573e-05 -5.76790742e-03]]",[],0.0,0.0
1787584801.345227,0.5047552817708261,-0.5745718009936107,0.07640349064100473,"[ 1.02229361e-05 -1.17425515e-07  0.00000000e+00  0.00000000e+00
  0.00000000e+00 -5.69126884e-08 -1.17425515e-07  9.86138872e-06
  0.00000000e+00  0.00000000e+00  0.00000000e+00  3.61504989e-07
  0.00000000e+00  0.00000000e+00  0.00000000e+00  0.00000000e+00
  0.00000000e+00  0.00000000e+00  0.00000000e+00  0.00000000e+00
  0.00000000e+00  0.00000000e+00  0.00000000e+00  0.00000000e+00
  0.00000000e+00  0.00000000e+00  0.00000000e+00  0.00000000e+00
  0.00000000e+00  0.00000000e+00 -5.69126884e-08  3.61504989e-07
  0.00000000e+00  0.00000000e+00  0.00000000e+00  2.88321788e-06]","[[-2.55058191e-04  4.40066965e-04]
 [-1.01410573e-05 -5.76790742e-03]]",[],0.0,0.0
1787584801.3934805,0.5047552817708261,-0.5745718009936107,0.07640349064100473,"[ 1.02229361e-05 -1.17425515e-07  0.00000000e+00  0.00000000e+00
  0.00000000e+00 -5.69126884e-08 -1.17425515e-07  9.86138872e-06
  0.00000000e+00  0.00000000e+00  0.00000000e+00  3.61504989e-07
  0.00000000e+00  0.00000000e+00  0.00000000e+00  0.00000000e+00
  0.00000000e+00  0.00000000e+00  0.00000000e+00  0.00000000e+00
  0.00000000e+00  0.00000000e+00  0.00000000e+00  0.00000000e+00
  0.00000000e+00  0.00000000e+00  0.00000000e+00  0.00000000e+00
  0.00000000e+00  0.00000000e+00 -5.69126884e-08  3.61504989e-07
  0.00000000e+00  0.00000000e+00  0.00000000e+00  2.88321788e-06]","[[-2.55058191e-04  4.40066965e-04]
 [-1.01410573e-05 -5.76790742e-03]]",[],0.0,0.0
1787584801.4492595,0.5047552817708261,-0.5745718009936107,0.07640349064100473,"[ 1.02229361e-05 -1.17425515e-07  0.00000000e+00  0.00000000e+00
  0.00000000e+00 -5.69126884e-08 -1.17425515e-07  9.86138872e-06
  0.00000000e+00  0.00000000e+00  0.00000000e+00  3.61504989e-07
  0.00000000e+00  0.00000000e+00  0.00000000e+00  0.00000000e+00
  0.00000000e+00  0.00000000e+00  0.00000000e+00  0.00000000e+00
  0.00000000e+00  0.00000000e+00  0.00000000e+00  0.00000000e+00
  0.00000000e+00  0.00000000e+00  0.00000000e+00  0.00000000e+00
  0.00000000e+00  0.00000000e+00 -5.69126884e-08  3.61504989e-07
  0.00000000e+00  0.00000000e+00  0.00000000e+00  2.88321788e-06]","[[-2.55058191e-04  4.40066965e-04]
 [-1.01410573e-05 -5.76790742e-03]]",[],0.0,0.0
1787584801.5824676,0.5047552817708261,-0.5745718009936107,0.07640349064100473,"[ 1.02229361e-05 -1.17425515e-07  0.00000000e+00  0.00000000e+00
  0.00000000e+00 -5.69126884e-08 -1.17425515e-07  9.86138872e-06
  0.00000000e+00  0.00000000e+00  0.00000000e+00  3.61504989e-07
  0.00000000e+00  0.00000000e+00  0.00000000e+00  0.00000000e+00
  0.00000000e+00  0.00000000e+00  0.00000000e+00  0.00000000e+00
  0.00000000e+00  0.00000000e+00  0.00000000e+00  0.00000000e+00
  0.00000000e+00  0.00000000e+00  0.00000000e+00  0.00000000e+00
  0.00000000e+00  0.00000000e+00 -5.69126884e-08  3.61504989e-07
  0.00000000e+00  0.00000000e+00  0.00000000e+00  2.88321788e-06]","[[-2.55058191e-04  4.40066965e-04]
 [-1.01410573e-05 -5.76790742e-03]]",[],0.0,0.0
1787584801.6103315,0.5047552817708261,-0.5745718009936107,0.07640349064100473,"[ 1.02229361e-05 -1.17425515e-07  0.00000000e+00  0.00000000e+00
  0.00000000e+00 -5.69126884e-08 -1.17425515e-07  9.86138872e-06
  0.00000000e+00  0.00000000e+00  0.00000000e+00  3.61504989e-07
  0.00000000e+00  0.00000000e+00  0.00000000e+00  0.00000000e+00
  0.00000000e+00  0.00000000e+00  0.00000000e+00  0.00000000e+00
  0.00000000e+00  0.00000000e+00  0.00000000e+00  0.00000000e+00
  0.00000000e+00  0.00000000e+00  0.00000000e+00  0.00000000e+00
  0.00000000e+00  0.00000000e+00 -5.69126884e-08  3.61504989e-07
  0.00000000e+00  0.00000000e+00  0.00000000e+00  2.88321788e-06]","[[-2.55058191e-04  4.40066965e-04]
 [-1.01410573e-05 -5.76790742e-03]]",[],0.0,0.0
1787584801.777262,0.5047552817708261,-0.5745718009936107,0.07640349064100473,"[ 1.02229361e-05 -1.17425515e-07  0.00000000e+00  0.00000000e+00
  0.00000000e+00 -5.69126884e-08 -1.17425515e-07  9.86138872e-06
  0.00000000e+00  0.00000000e+00  0.00000000e+00  3.61504989e-07
  0.00000000e+00  0.00000000e+00  0.00000000e+00  0.00000000e+00
  0.00000000e+00  0.00000000e+00  0.00000000e+00  0.00000000e+00
  0.00000000e+00  0.00000000e+00  0.00000000e+00  0.00000000e+00
  0.00000000e+00  0.00000000e+00  0.00000000e+00  0.00000000e+00
  0.00000000e+00  0.00000000e+00 -5.69126884e-08  3.61504989e-07
  0.00000000e+00  0.00000000e+00  0.00000000e+00  2.88321788e-06]","[[-2.55058191e-04  4.40066965e-04]
 [-1.01410573e-05 -5.76790742e-03]]",[],0.0,0.0
1787584801.81263,0.5047552817708261,-0.5745718009936107,0.07640349064100473,"[ 1.02229361e-05 -1.17425515e-07  0.00000000e+00  0.00000000e+00
  0.00000000e+00 -5.69126884e-08 -1.17425515e-07  9.86138872e-06
  0.00000000e+00  0.00000000e+00  0.00000000e+00  3.61504989e-07
  0.00000000e+00  0.00000000e+00  0.00000000e+00  0.00000000e+00
  0.00000000e+00  0.00000000e+00  0.00000000e+00  0.00000000e+00
  0.00000000e+00  0.00000000e+00  0.00000000e+00  0.00000000e+00
  0.00000000e+00  0.00000000e+00  0.00000000e+00  0.00000000e+00
  0.00000000e+00  0.00000000e+00 -5.69126884e-08  3.61504989e-07
  0.00000000e+00  0.00000000e+00  0.00000000e+00  2.88321788e-06]","[[-2.55058191e-04  4.40066965e-04]
 [-1.01410573e-05 -5.76790742e-03]]",[],0.0,0.0
1787584801.952501,0.5047552817708261,-0.5745718009936107,0.07640349064100473,"[ 1.02229361e-05 -1.17425515e-07  0.00000000e+00  0.00000000e+00
  0.00000000e+00 -5.69126884e-08 -1.17425515e-07  9.86138872e-06
  0.00000000e+00  0.00000000e+00  0.00000000e+00  3.61504989e-07
  0.00000000e+00  0.00000000e+00  0.00000000e+00  0.00000000e+00
  0.00000000e+00  0.00000000e+00  0.00000000e+00  0.00000000e+00
  0.00000000e+00  0.00000000e+00  0.00000000e+00  0.00000000e+00
  0.00000000e+00  0.00000000e+00  0.00000000e+00  0.00000000e+00
  0.00000000e+00  0.00000000e+00 -5.69126884e-08  3.61504989e-07
  0.00000000e+00  0.00000000e+00  0.00000000e+00  2.88321788e-06]","[[-2.55058191e-04  4.40066965e-04]
 [-1.01410573e-05 -5.76790742e-03]]",[],0.0,0.0
1787584802.0076075,0.5047552817708261,-0.5745718009936107,0.07640349064100473,"[ 1.02229361e-05 -1.17425515e-07  0.00000000e+00  0.00000000e+00
  0.00000000e+00 -5.69126884e-08 -1.17425515e-07  9.86138872e-06
  0.00000000e+00  0.00000000e+00  0.00000000e+00  3.61504989e-07
  0.00000000e+00  0.00000000e+00  0.00000000e+00  0.00000000e+00
  0.00000000e+00  0.00000000e+00  0.00000000e+00  0.00000000e+00
  0.00000000e+00  0.00000000e+00  0.00000000e+00  0.00000000e+00
  0.00000000e+00  0.00000000e+00  0.00000000e+00  0.00000000e+00
  0.00000000e+00  0.00000000e+00 -5.69126884e-08  3.61504989e-07
  0.00000000e+00  0.00000000e+00  0.00000000e+00  2.88321788e-06]","[[-2.55058191e-04  4.40066965e-04]
 [-1.01410573e-05 -5.76790742e-03]]",[],0.0,0.0
1787584802.0593877,0.5047552817708261,-0.5745718009936107,0.07640349064100473,"[ 1.02229361e-05 -1.17425515e-07  0.00000000e+00  0.00000000e+00
  0.00000000e+00 -5.69126884e-08 -1.17425515e-07  9.86138872e-06
  0.00000000e+00  0.00000000e+00  0.00000000e+00  3.61504989e-07
  0.00000000e+00  0.00000000e+00  0.00000000e+00  0.00000000e+00
  0.00000000e+00  0.00000000e+00  0.00000000e+00  0.00000000e+00
  0.00000000e+00  0.00000000e+00  0.00000000e+00  0.00000000e+00
  0.00000000e+00  0.00000000e+00  0.00000000e+00  0.00000000e+00
  0.00000000e+00  0.00000000e+00 -5.69126884e-08  3.61504989e-07
  0.00000000e+00  0.00000000e+00  0.00000000e+00  2.88321788e-06]","[[-2.55058191e-04  4.40066965e-04]
 [-1.01410573e-05 -5.76790742e-03]]",[],0.0,0.0
1787584802.0978389,0.5047552817708261,-0.5745718009936107,0.07640349064100473,"[ 1.02229361e-05 -1.17425515e-07  0.00000000e+00  0.00000000e+00
  0.00000000e+00 -5.69126884e-08 -1.17425515e-07  9.86138872e-06
  0.00000000e+00  0.00000000e+00  0.00000000e+00  3.61504989e-07
  0.00000000e+00  0.00000000e+00  0.00000000e+00  0.00000000e+00
  0.00000000e+00  0.00000000e+00  0.00000000e+00  0.00000000e+00
  0.00000000e+00  0.00000000e+00  0.00000000e+00  0.00000000e+00
  0.00000000e+00  0.00000000e+00  0.00000000e+00  0.00000000e+00
  0.00000000e+00  0.00000000e+00 -5.69126884e-08  3.61504989e-07
  0.00000000e+00  0.00000000e+00  0.00000000e+00  2.88321788e-06]","[[-2.55058191e-04  4.40066965e-04]
 [-1.01410573e-05 -5.76790742e-03]]",[],0.0,0.0
1787584802.1544452,0.5047552817708261,-0.5745718009936107,0.07640349064100473,"[ 1.02229361e-05 -1.17425515e-07  0.00000000e+00  0.00000000e+00
  0.00000000e+00 -5.69126884e-08 -1.17425515e-07  9.86138872e-06
  0.00000000e+00  0.00000000e+00  0.00000000e+00  3.61504989e-07
  0.00000000e+00  0.00000000e+00  0.00000000e+00  0.00000000e+00
  0.00000000e+00  0.00000000e+00  0.00000000e+00  0.00000000e+00
  0.00000000e+00  0.00000000e+00  0.00000000e+00  0.00000000e+00
  0.00000000e+00  0.00000000e+00  0.00000000e+00  0.00000000e+00
  0.00000000e+00  0.00000000e+00 -5.69126884e-08  3.61504989e-07
  0.00000000e+00  0.00000000e+00  0.00000000e+00  2.88321788e-06]","[[-2.55058191e-04  4.40066965e-04]
 [-1.01410573e-05 -5.76790742e-03]]",[],0.0,0.0
1787584802.1946347,0.5047552817708261,-0.5745718009936107,0.07640349064100473,"[ 1.02229361e-05 -1.17425515e-07  0.00000000e+00  0.00000000e+00
  0.00000000e+00 -5.69126884e-08 -1.17425515e-07  9.86138872e-06
  0.00000000e+00  0.00000000e+00  0.00000000e+00  3.61504989e-07
  0.00000000e+00  0.00000000e+00  0.00000000e+00  0.00000000e+00
  0.00000000e+00  0.00000000e+00  0.00000000e+00  0.00000000e+00
  0.00000000e+00  0.00000000e+00  0.00000000e+00  0.00000000e+00
  0.00000000e+00  0.00000000e+00  0.00000000e+00  0.00000000e+00
  0.00000000e+00  0.00000000e+00 -5.69126884e-08  3.61504989e-07
  0.00000000e+00  0.00000000e+00  0.00000000e+00  2.88321788e-06]","[[-2.55058191e-04  4.40066965e-04]
 [-1.01410573e-05 -5.76790742e-03]]",[],0.0,0.0
1787584802.2535572,0.5047552817708261,-0.5745718009936107,0.07640349064100473,"[ 1.02229361e-05 -1.17425515e-07  0.00000000e+00  0.00000000e+00
  0.00000000e+00 -5.69126884e-08 -1.17425515e-07  9.86138872e-06
  0.00000000e+00  0.00000000e+00  0.00000000e+00  3.61504989e-07
  0.00000000e+00  0.00000000e+00  0.00000000e+00  0.00000000e+00
  0.00000000e+00  0.00000000e+00  0.00000000e+00  0.00000000e+00
  0.00000000e+00  0.00000000e+00  0.00000000e+00  0.00000000e+00
  0.00000000e+00  0.00000000e+00  0.00000000e+00  0.00000000e+00
  0.00000000e+00  0.00000000e+00 -5.69126884e-08  3.61504989e-07
  0.00000000e+00  0.00000000e+00  0.00000000e+00  2.88321788e-06]","[[-2.55058191e-04  4.40066965e-04]
 [-1.01410573e-05 -5.76790742e-03]]",[],0.0,0.0
1787584802.3019514,0.5052158367095446,-0.573192971843446,0.06596644077488945,"[ 8.79442748e-06 -1.16340137e-07  0.00000000e+00  0.00000000e+00
  0.00000000e+00 -3.60671812e-08 -1.16340137e-07  8.29265031e-06
  0.00000000e+00  0.00000000e+00  0.00000000e+00  2.79732914e-07
  0.00000000e+00  0.00000000e+00  0.00000000e+00  0.00000000e+00
  0.00000000e+00  0.00000000e+00  0.00000000e+00  0.00000000e+00
  0.00000000e+00  0.00000000e+00  0.00000000e+00  0.00000000e+00
  0.00000000e+00  0.00000000e+00  0.00000000e+00  0.00000000e+00
  0.00000000e+00  0.00000000e+00 -3.60671812e-08  2.79732914e-07
  0.00000000e+00  0.00000000e+00  0.00000000e+00  3.02320927e-06]","[[-2.19398466e-04  3.65070272e-04]
 [-8.06994506e-06 -4.81367290e-03]]",[],0.0,0.0
1787584802.3518586,0.5052158367095446,-0.573192971843446,0.06596644077488945,"[ 8.79442748e-06 -1.16340137e-07  0.00000000e+00  0.00000000e+00
  0.00000000e+00 -3.60671812e-08 -1.16340137e-07  8.29265031e-06
  0.00000000e+00  0.00000000e+00  0.00000000e+00  2.79732914e-07
  0.00000000e+00  0.00000000e+00  0.00000000e+00  0.00000000e+00
  0.00000000e+00  0.00000000e+00  0.00000000e+00  0.00000000e+00
  0.00000000e+00  0.00000000e+00  0.00000000e+00  0.00000000e+00
  0.00000000e+00  0.00000000e+00  0.00000000e+00  0.00000000e+00
  0.00000000e+00  0.00000000e+00 -3.60671812e-08  2.79732914e-07
  0.00000000e+00  0.00000000e+00  0.00000000e+00  3.02320927e-06]","[[-2.19398466e-04  3.65070272e-04]
 [-8.06994506e-06 -4.81367290e-03]]",[],0.0,0.0
1787584802.443435,0.5052158367095446,-0.573192971843446,0.06596644077488945,"[ 8.79442748e-06 -1.16340137e-07  0.00000000e+00  0.00000000e+00
  0.00000000e+00 -3.60671812e-08 -1.16340137e-07  8.29265031e-06
  0.00000000e+00  0.00000000e+00  0.00000000e+00  2.79732914e-07
  0.00000000e+00  0.00000000e+00  0.00000000e+00  0.00000000e+00
  0.00000000e+00  0.00000000e+00  0.00000000e+00  0.00000000e+00
  0.00000000e+00  0.00000000e+00  0.00000000e+00  0.00000000e+00
  0.00000000e+00  0.00000000e+00  0.00000000e+00  0.00000000e+00
  0.00000000e+00  0.00000000e+00 -3.60671812e-08  2.79732914e-07
  0.00000000e+00  0.00000000e+00  0.00000000e+00  3.02320927e-06]","[[-2.19398466e-04  3.65070272e-04]
 [-8.06994506e-06 -4.81367290e-03]]",[],0.0,0.0
1787584802.5096035,0.5052158367095446,-0.573192971843446,0.06596644077488945,"[ 8.79442748e-06 -1.16340137e-07  0.00000000e+00  0.00000000e+00
  0.00000000e+00 -3.60671812e-08 -1.16340137e-07  8.29265031e-06
  0.00000000e+00  0.00000000e+00  0.00000000e+00  2.79732914e-07
  0.00000000e+00  0.00000000e+00  0.00000000e+00  0.00000000e+00
  0.00000000e+00  0.00000000e+00  0.00000000e+00  0.00000000e+00
  0.00000000e+00  0.00000000e+00  0.00000000e+00  0.00000000e+00
  0.00000000e+00  0.00000000e+00  0.00000000e+00  0.00000000e+00
  0.00000000e+00  0.00000000e+00 -3.60671812e-08  2.79732914e-07
  0.00000000e+00  0.00000000e+00  0.00000000e+00  3.02320927e-06]","[[-2.19398466e-04  3.65070272e-04]
 [-8.06994506e-06 -4.81367290e-03]]",[],0.0,0.0
1787584802.5683632,0.5052158367095446,-0.573192971843446,0.06596644077488945,"[ 8.79442748e-06 -1.16340137e-07  0.00000000e+00  0.00000000e+00
  0.00000000e+00 -3.60671812e-08 -1.16340137e-07  8.29265031e-06
  0.00000000e+00  0.00000000e+00  0.00000000e+00  2.79732914e-07
  0.00000000e+00  0.00000000e+00  0.00000000e+00  0.00000000e+00
  0.00000000e+00  0.00000000e+00  0.00000000e+00  0.00000000e+00
  0.00000000e+00  0.00000000e+00  0.00000000e+00  0.00000000e+00
  0.00000000e+00  0.00000000e+00  0.00000000e+00  0.00000000e+00
  0.00000000e+00  0.00000000e+00 -3.60671812e-08  2.79732914e-07
  0.00000000e+00  0.00000000e+00  0.00000000e+00  3.02320927e-06]","[[-2.19398466e-04  3.65070272e-04]
 [-8.06994506e-06 -4.81367290e-03]]",[],0.0,0.0
1787584802.6096127,0.5052158367095446,-0.573192971843446,0.06596644077488945,"[ 8.79442748e-06 -1.16340137e-07  0.00000000e+00  0.00000000e+00
  0.00000000e+00 -3.60671812e-08 -1.16340137e-07  8.29265031e-06
  0.00000000e+00  0.00000000e+00  0.00000000e+00  2.79732914e-07
  0.00000000e+00  0.00000000e+00  0.00000000e+00  0.00000000e+00
  0.00000000e+00  0.00000000e+00  0.00000000e+00  0.00000000e+00
  0.00000000e+00  0.00000000e+00  0.00000000e+00  0.00000000e+00
  0.00000000e+00  0.00000000e+00  0.00000000e+00  0.00000000e+00
  0.00000000e+00  0.00000000e+00 -3.60671812e-08  2.79732914e-07
  0.00000000e+00  0.00000000e+00  0.00000000e+00  3.02320927e-06]","[[-2.19398466e-04  3.65070272e-04]
 [-8.06994506e-06 -4.81367290e-03]]",[],0.0,0.0
1787584802.6473694,0.5052158367095446,-0.573192971843446,0.06596644077488945,"[ 8.79442748e-06 -1.16340137e-07  0.00000000e+00  0.00000000e+00
  0.00000000e+00 -3.60671812e-08 -1.16340137e-07  8.29265031e-06
  0.00000000e+00  0.00000000e+00  0.00000000e+00  2.79732914e-07
  0.00000000e+00  0.00000000e+00  0.00000000e+00  0.00000000e+00
  0.00000000e+00  0.00000000e+00  0.00000000e+00  0.00000000e+00
  0.00000000e+00  0.00000000e+00  0.00000000e+00  0.00000000e+00
  0.00000000e+00  0.00000000e+00  0.00000000e+00  0.00000000e+00
  0.00000000e+00  0.00000000e+00 -3.60671812e-08  2.79732914e-07
  0.00000000e+00  0.00000000e+00  0.00000000e+00  3.02320927e-06]","[[-2.19398466e-04  3.65070272e-04]
 [-8.06994506e-06 -4.81367290e-03]]",[],0.0,0.0
1787584802.6961534,0.5052158367095446,-0.573192971843446,0.06596644077488945,"[ 8.79442748e-06 -1.16340137e-07  0.00000000e+00  0.00000000e+00
  0.00000000e+00 -3.60671812e-08 -1.16340137e-07  8.29265031e-06
  0.00000000e+00  0.00000000e+00  0.00000000e+00  2.79732914e-07
  0.00000000e+00  0.00000000e+00  0.00000000e+00  0.00000000e+00
  0.00000000e+00  0.00000000e+00  0.00000000e+00  0.00000000e+00
  0.00000000e+00  0.00000000e+00  0.00000000e+00  0.00000000e+00
  0.00000000e+00  0.00000000e+00  0.00000000e+00  0.00000000e+00
  0.00000000e+00  0.00000000e+00 -3.60671812e-08  2.79732914e-07
  0.00000000e+00  0.00000000e+00  0.00000000e+00  3.02320927e-06]","[[-2.19398466e-04  3.65070272e-04]
 [-8.06994506e-06 -4.81367290e-03]]",[],0.0,0.0
1787584802.7412953,0.5052158367095446,-0.573192971843446,0.06596644077488945,"[ 8.79442748e-06 -1.16340137e-07  0.00000000e+00  0.00000000e+00
  0.00000000e+00 -3.60671812e-08 -1.16340137e-07  8.29265031e-06
  0.00000000e+00  0.00000000e+00  0.00000000e+00  2.79732914e-07
  0.00000000e+00  0.00000000e+00  0.00000000e+00  0.00000000e+00
  0.00000000e+00  0.00000000e+00  0.00000000e+00  0.00000000e+00
  0.00000000e+00  0.00000000e+00  0.00000000e+00  0.00000000e+00
  0.00000000e+00  0.00000000e+00  0.00000000e+00  0.00000000e+00
  0.00000000e+00  0.00000000e+00 -3.60671812e-08  2.79732914e-07
  0.00000000e+00  0.00000000e+00  0.00000000e+00  3.02320927e-06]","[[-2.19398466e-04  3.65070272e-04]
 [-8.06994506e-06 -4.81367290e-03]]",[],0.0,0.0
1787584802.7929025,0.5052158367095446,-0.573192971843446,0.06596644077488945,"[ 8.79442748e-06 -1.16340137e-07  0.00000000e+00  0.00000000e+00
  0.00000000e+00 -3.60671812e-08 -1.16340137e-07  8.29265031e-06
  0.00000000e+00  0.00000000e+00  0.00000000e+00  2.79732914e-07
  0.00000000e+00  0.00000000e+00  0.00000000e+00  0.00000000e+00
  0.00000000e+00  0.00000000e+00  0.00000000e+00  0.00000000e+00
  0.00000000e+00  0.00000000e+00  0.00000000e+00  0.00000000e+00
  0.00000000e+00  0.00000000e+00  0.00000000e+00  0.00000000e+00
  0.00000000e+00  0.00000000e+00 -3.60671812e-08  2.79732914e-07
  0.00000000e+00  0.00000000e+00  0.00000000e+00  3.02320927e-06]","[[-2.19398466e-04  3.65070272e-04]
 [-8.06994506e-06 -4.81367290e-03]]",[],0.0,0.0
1787584802.8400335,0.5052158367095446,-0.573192971843446,0.06596644077488945,"[ 8.79442748e-06 -1.16340137e-07  0.00000000e+00  0.00000000e+00
  0.00000000e+00 -3.60671812e-08 -1.16340137e-07  8.29265031e-06
  0.00000000e+00  0.00000000e+00  0.00000000e+00  2.79732914e-07
  0.00000000e+00  0.00000000e+00  0.00000000e+00  0.00000000e+00
  0.00000000e+00  0.00000000e+00  0.00000000e+00  0.00000000e+00
  0.00000000e+00  0.00000000e+00  0.00000000e+00  0.00000000e+00
  0.00000000e+00  0.00000000e+00  0.00000000e+00  0.00000000e+00
  0.00000000e+00  0.00000000e+00 -3.60671812e-08  2.79732914e-07
  0.00000000e+00  0.00000000e+00  0.00000000e+00  3.02320927e-06]","[[-2.19398466e-04  3.65070272e-04]
 [-8.06994506e-06 -4.81367290e-03]]",[],0.0,0.0
1787584802.8898926,0.5052158367095446,-0.573192971843446,0.06596644077488945,"[ 8.79442748e-06 -1.16340137e-07  0.00000000e+00  0.00000000e+00
  0.00000000e+00 -3.60671812e-08 -1.16340137e-07  8.29265031e-06
  0.00000000e+00  0.00000000e+00  0.00000000e+00  2.79732914e-07
  0.00000000e+00  0.00000000e+00  0.00000000e+00  0.00000000e+00
  0.00000000e+00  0.00000000e+00  0.00000000e+00  0.00000000e+00
  0.00000000e+00  0.00000000e+00  0.00000000e+00  0.00000000e+00
  0.00000000e+00  0.00000000e+00  0.00000000e+00  0.00000000e+00
  0.00000000e+00  0.00000000e+00 -3.60671812e-08  2.79732914e-07
  0.00000000e+00  0.00000000e+00  0.00000000e+00  3.02320927e-06]","[[-2.19398466e-04  3.65070272e-04]
 [-8.06994506e-06 -4.81367290e-03]]",[],0.0,0.0
1787584802.9594247,0.5052158367095446,-0.573192971843446,0.06596644077488945,"[ 8.79442748e-06 -1.16340137e-07  0.00000000e+00  0.00000000e+00
  0.00000000e+00 -3.60671812e-08 -1.16340137e-07  8.29265031e-06
  0.00000000e+00  0.00000000e+00  0.00000000e+00  2.79732914e-07
  0.00000000e+00  0.00000000e+00  0.00000000e+00  0.00000000e+00
  0.00000000e+00  0.00000000e+00  0.00000000e+00  0.00000000e+00
  0.00000000e+00  0.00000000e+00  0.00000000e+00  0.00000000e+00
  0.00000000e+00  0.00000000e+00  0.00000000e+00  0.00000000e+00
  0.00000000e+00  0.00000000e+00 -3.60671812e-08  2.79732914e-07
  0.00000000e+00  0.00000000e+00  0.00000000e+00  3.02320927e-06]","[[-2.19398466e-04  3.65070272e-04]
 [-8.06994506e-06 -4.81367290e-03]]",[],0.0,0.0
1787584803.0036871,0.5052158367095446,-0.573192971843446,0.06596644077488945,"[ 8.79442748e-06 -1.16340137e-07  0.00000000e+00  0.00000000e+00
  0.00000000e+00 -3.60671812e-08 -1.16340137e-07  8.29265031e-06
  0.00000000e+00  0.00000000e+00  0.00000000e+00  2.79732914e-07
  0.00000000e+00  0.00000000e+00  0.00000000e+00  0.00000000e+00
  0.00000000e+00  0.00000000e+00  0.00000000e+00  0.00000000e+00
  0.00000000e+00  0.00000000e+00  0.00000000e+00  0.00000000e+00
  0.00000000e+00  0.00000000e+00  0.00000000e+00  0.00000000e+00
  0.00000000e+00  0.00000000e+00 -3.60671812e-08  2.79732914e-07
  0.00000000e+00  0.00000000e+00  0.00000000e+00  3.02320927e-06]","[[-2.19398466e-04  3.65070272e-04]
 [-8.06994506e-06 -4.81367290e-03]]",[],0.0,0.0
1787584803.0635295,0.5052158367095446,-0.573192971843446,0.06596644077488945,"[ 8.79442748e-06 -1.16340137e-07  0.00000000e+00  0.00000000e+00
  0.00000000e+00 -3.60671812e-08 -1.16340137e-07  8.29265031e-06
  0.00000000e+00  0.00000000e+00  0.00000000e+00  2.79732914e-07
  0.00000000e+00  0.00000000e+00  0.00000000e+00  0.00000000e+00
  0.00000000e+00  0.00000000e+00  0.00000000e+00  0.00000000e+00
  0.00000000e+00  0.00000000e+00  0.00000000e+00  0.00000000e+00
  0.00000000e+00  0.00000000e+00  0.00000000e+00  0.00000000e+00
  0.00000000e+00  0.00000000e+00 -3.60671812e-08  2.79732914e-07
  0.00000000e+00  0.00000000e+00  0.00000000e+00  3.02320927e-06]","[[-2.19398466e-04  3.65070272e-04]
 [-8.06994506e-06 -4.81367290e-03]]",[],0.0,0.0
1787584803.09058,0.5052158367095446,-0.573192971843446,0.06596644077488945,"[ 8.79442748e-06 -1.16340137e-07  0.00000000e+00  0.00000000e+00
  0.00000000e+00 -3.60671812e-08 -1.16340137e-07  8.29265031e-06
  0.00000000e+00  0.00000000e+00  0.00000000e+00  2.79732914e-07
  0.00000000e+00  0.00000000e+00  0.00000000e+00  0.00000000e+00
  0.00000000e+00  0.00000000e+00  0.00000000e+00  0.00000000e+00
  0.00000000e+00  0.00000000e+00  0.00000000e+00  0.00000000e+00
  0.00000000e+00  0.00000000e+00  0.00000000e+00  0.00000000e+00
  0.00000000e+00  0.00000000e+00 -3.60671812e-08  2.79732914e-07
  0.00000000e+00  0.00000000e+00  0.00000000e+00  3.02320927e-06]","[[-2.19398466e-04  3.65070272e-04]
 [-8.06994506e-06 -4.81367290e-03]]",[],0.0,0.0
1787584803.1448274,0.5052158367095446,-0.573192971843446,0.06596644077488945,"[ 8.79442748e-06 -1.16340137e-07  0.00000000e+00  0.00000000e+00
  0.00000000e+00 -3.60671812e-08 -1.16340137e-07  8.29265031e-06
  0.00000000e+00  0.00000000e+00  0.00000000e+00  2.79732914e-07
  0.00000000e+00  0.00000000e+00  0.00000000e+00  0.00000000e+00
  0.00000000e+00  0.00000000e+00  0.00000000e+00  0.00000000e+00
  0.00000000e+00  0.00000000e+00  0.00000000e+00  0.00000000e+00
  0.00000000e+00  0.00000000e+00  0.00000000e+00  0.00000000e+00
  0.00000000e+00  0.00000000e+00 -3.60671812e-08  2.79732914e-07
  0.00000000e+00  0.00000000e+00  0.00000000e+00  3.02320927e-06]","[[-2.19398466e-04  3.65070272e-04]
 [-8.06994506e-06 -4.81367290e-03]]",[],0.0,0.0
1787584803.1908314,0.5052158367095446,-0.573192971843446,0.06596644077488945,"[ 8.79442748e-06 -1.16340137e-07  0.00000000e+00  0.00000000e+00
  0.00000000e+00 -3.60671812e-08 -1.16340137e-07  8.29265031e-06
  0.00000000e+00  0.00000000e+00  0.00000000e+00  2.79732914e-07
  0.00000000e+00  0.00000000e+00  0.00000000e+00  0.00000000e+00
  0.00000000e+00  0.00000000e+00  0.00000000e+00  0.00000000e+00
  0.00000000e+00  0.00000000e+00  0.00000000e+00  0.00000000e+00
  0.00000000e+00  0.00000000e+00  0.00000000e+00  0.00000000e+00
  0.00000000e+00  0.00000000e+00 -3.60671812e-08  2.79732914e-07
  0.00000000e+00  0.00000000e+00  0.00000000e+00  3.02320927e-06]","[[-2.19398466e-04  3.65070272e-04]
 [-8.06994506e-06 -4.81367290e-03]]",[],0.0,0.0
1787584803.2420402,0.5052158367095446,-0.573192971843446,0.06596644077488945,"[ 8.79442748e-06 -1.16340137e-07  0.00000000e+00  0.00000000e+00
  0.00000000e+00 -3.60671812e-08 -1.16340137e-07  8.29265031e-06
  0.00000000e+00  0.00000000e+00  0.00000000e+00  2.79732914e-07
  0.00000000e+00  0.00000000e+00  0.00000000e+00  0.00000000e+00
  0.00000000e+00  0.00000000e+00  0.00000000e+00  0.00000000e+00
  0.00000000e+00  0.00000000e+00  0.00000000e+00  0.00000000e+00
  0.00000000e+00  0.00000000e+00  0.00000000e+00  0.00000000e+00
  0.00000000e+00  0.00000000e+00 -3.60671812e-08  2.79732914e-07
  0.00000000e+00  0.00000000e+00  0.00000000e+00  3.02320927e-06]","[[-2.19398466e-04  3.65070272e-04]
 [-8.06994506e-06 -4.81367290e-03]]",[],0.0,0.0
1787584803.2912877,0.5052158367095446,-0.573192971843446,0.06596644077488945,"[ 8.79442748e-06 -1.16340137e-07  0.00000000e+00  0.00000000e+00
  0.00000000e+00 -3.60671812e-08 -1.16340137e-07  8.29265031e-06
  0.00000000e+00  0.00000000e+00  0.00000000e+00  2.79732914e-07
  0.00000000e+00  0.00000000e+00  0.00000000e+00  0.00000000e+00
  0.00000000e+00  0.00000000e+00  0.00000000e+00  0.00000000e+00
  0.00000000e+00  0.00000000e+00  0.00000000e+00  0.00000000e+00
  0.00000000e+00  0.00000000e+00  0.00000000e+00  0.00000000e+00
  0.00000000e+00  0.00000000e+00 -3.60671812e-08  2.79732914e-07
  0.00000000e+00  0.00000000e+00  0.00000000e+00  3.02320927e-06]","[[-2.19398466e-04  3.65070272e-04]
 [-8.06994506e-06 -4.81367290e-03]]",[],0.0,0.0
1787584803.3435786,0.5052158367095446,-0.573192971843446,0.06596644077488945,"[ 8.79442748e-06 -1.16340137e-07  0.00000000e+00  0.00000000e+00
  0.00000000e+00 -3.60671812e-08 -1.16340137e-07  8.29265031e-06
  0.00000000e+00  0.00000000e+00  0.00000000e+00  2.79732914e-07
  0.00000000e+00  0.00000000e+00  0.00000000e+00  0.00000000e+00
  0.00000000e+00  0.00000000e+00  0.00000000e+00  0.00000000e+00
  0.00000000e+00  0.00000000e+00  0.00000000e+00  0.00000000e+00
  0.00000000e+00  0.00000000e+00  0.00000000e+00  0.00000000e+00
  0.00000000e+00  0.00000000e+00 -3.60671812e-08  2.79732914e-07
  0.00000000e+00  0.00000000e+00  0.00000000e+00  3.02320927e-06]","[[-2.19398466e-04  3.65070272e-04]
 [-8.06994506e-06 -4.81367290e-03]]",[],0.0,0.0
1787584803.3897443,0.5052158367095446,-0.573192971843446,0.06596644077488945,"[ 8.79442748e-06 -1.16340137e-07  0.00000000e+00  0.00000000e+00
  0.00000000e+00 -3.60671812e-08 -1.16340137e-07  8.29265031e-06
  0.00000000e+00  0.00000000e+00  0.00000000e+00  2.79732914e-07
  0.00000000e+00  0.00000000e+00  0.00000000e+00  0.00000000e+00
  0.00000000e+00  0.00000000e+00  0.00000000e+00  0.00000000e+00
  0.00000000e+00  0.00000000e+00  0.00000000e+00  0.00000000e+00
  0.00000000e+00  0.00000000e+00  0.00000000e+00  0.00000000e+00
  0.00000000e+00  0.00000000e+00 -3.60671812e-08  2.79732914e-07
  0.00000000e+00  0.00000000e+00  0.00000000e+00  3.02320927e-06]","[[-2.19398466e-04  3.65070272e-04]
 [-8.06994506e-06 -4.81367290e-03]]",[],0.0,0.0
1787584803.4419196,0.5052158367095446,-0.573192971843446,0.06596644077488945,"[ 8.79442748e-06 -1.16340137e-07  0.00000000e+00  0.00000000e+00
  0.00000000e+00 -3.60671812e-08 -1.16340137e-07  8.29265031e-06
  0.00000000e+00  0.00000000e+00  0.00000000e+00  2.79732914e-07
  0.00000000e+00  0.00000000e+00  0.00000000e+00  0.00000000e+00
  0.00000000e+00  0.00000000e+00  0.00000000e+00  0.00000000e+00
  0.00000000e+00  0.00000000e+00  0.00000000e+00  0.00000000e+00
  0.00000000e+00  0.00000000e+00  0.00000000e+00  0.00000000e+00
  0.00000000e+00  0.00000000e+00 -3.60671812e-08  2.79732914e-07
  0.00000000e+00  0.00000000e+00  0.00000000e+00  3.02320927e-06]","[[-2.19398466e-04  3.65070272e-04]
 [-8.06994506e-06 -4.81367290e-03]]",[],0.0,0.0
1787584803.4911294,0.5052158367095446,-0.573192971843446,0.06596644077488945,"[ 8.79442748e-06 -1.16340137e-07  0.00000000e+00  0.00000000e+00
  0.00000000e+00 -3.60671812e-08 -1.16340137e-07  8.29265031e-06
  0.00000000e+00  0.00000000e+00  0.00000000e+00  2.79732914e-07
  0.00000000e+00  0.00000000e+00  0.00000000e+00  0.00000000e+00
  0.00000000e+00  0.00000000e+00  0.00000000e+00  0.00000000e+00
  0.00000000e+00  0.00000000e+00  0.00000000e+00  0.00000000e+00
  0.00000000e+00  0.00000000e+00  0.00000000e+00  0.00000000e+00
  0.00000000e+00  0.00000000e+00 -3.60671812e-08  2.79732914e-07
  0.00000000e+00  0.00000000e+00  0.00000000e+00  3.02320927e-06]","[[-2.19398466e-04  3.65070272e-04]
 [-8.06994506e-06 -4.81367290e-03]]",[],0.0,0.0
1787584803.5417702,0.5052158367095446,-0.573192971843446,0.06596644077488945,"[ 8.79442748e-06 -1.16340137e-07  0.00000000e+00  0.00000000e+00
  0.00000000e+00 -3.60671812e-08 -1.16340137e-07  8.29265031e-06
  0.00000000e+00  0.00000000e+00  0.00000000e+00  2.79732914e-07
  0.00000000e+00  0.00000000e+00  0.00000000e+00  0.00000000e+00
  0.00000000e+00  0.00000000e+00  0.00000000e+00  0.00000000e+00
  0.00000000e+00  0.00000000e+00  0.00000000e+00  0.00000000e+00
  0.00000000e+00  0.00000000e+00  0.00000000e+00  0.00000000e+00
  0.00000000e+00  0.00000000e+00 -3.60671812e-08  2.79732914e-07
  0.00000000e+00  0.00000000e+00  0.00000000e+00  3.02320927e-06]","[[-2.19398466e-04  3.65070272e-04]
 [-8.06994506e-06 -4.81367290e-03]]",[],0.0,0.0
1787584803.5915697,0.5052158367095446,-0.573192971843446,0.06596644077488945,"[ 8.79442748e-06 -1.16340137e-07  0.00000000e+00  0.00000000e+00
  0.00000000e+00 -3.60671812e-08 -1.16340137e-07  8.29265031e-06
  0.00000000e+00  0.00000000e+00  0.00000000e+00  2.79732914e-07
  0.00000000e+00  0.00000000e+00  0.00000000e+00  0.00000000e+00
  0.00000000e+00  0.00000000e+00  0.00000000e+00  0.00000000e+00
  0.00000000e+00  0.00000000e+00  0.00000000e+00  0.00000000e+00
  0.00000000e+00  0.00000000e+00  0.00000000e+00  0.00000000e+00
  0.00000000e+00  0.00000000e+00 -3.60671812e-08  2.79732914e-07
  0.00000000e+00  0.00000000e+00  0.00000000e+00  3.02320927e-06]","[[-2.19398466e-04  3.65070272e-04]
 [-8.06994506e-06 -4.81367290e-03]]",[],0.0,0.0
1787584803.6395645,0.5052158367095446,-0.573192971843446,0.06596644077488945,"[ 8.79442748e-06 -1.16340137e-07  0.00000000e+00  0.00000000e+00
  0.00000000e+00 -3.60671812e-08 -1.16340137e-07  8.29265031e-06
  0.00000000e+00  0.00000000e+00  0.00000000e+00  2.79732914e-07
  0.00000000e+00  0.00000000e+00  0.00000000e+00  0.00000000e+00
  0.00000000e+00  0.00000000e+00  0.00000000e+00  0.00000000e+00
  0.00000000e+00  0.00000000e+00  0.00000000e+00  0.00000000e+00
  0.00000000e+00  0.00000000e+00  0.00000000e+00  0.00000000e+00
  0.00000000e+00  0.00000000e+00 -3.60671812e-08  2.79732914e-07
  0.00000000e+00  0.00000000e+00  0.00000000e+00  3.02320927e-06]","[[-2.19398466e-04  3.65070272e-04]
 [-8.06994506e-06 -4.81367290e-03]]",[],0.0,0.0
1787584803.6896687,0.5052158367095446,-0.573192971843446,0.06596644077488945,"[ 8.79442748e-06 -1.16340137e-07  0.00000000e+00  0.00000000e+00
  0.00000000e+00 -3.60671812e-08 -1.16340137e-07  8.29265031e-06
  0.00000000e+00  0.00000000e+00  0.00000000e+00  2.79732914e-07
  0.00000000e+00  0.00000000e+00  0.00000000e+00  0.00000000e+00
  0.00000000e+00  0.00000000e+00  0.00000000e+00  0.00000000e+00
  0.00000000e+00  0.00000000e+00  0.00000000e+00  0.00000000e+00
  0.00000000e+00  0.00000000e+00  0.00000000e+00  0.00000000e+00
  0.00000000e+00  0.00000000e+00 -3.60671812e-08  2.79732914e-07
  0.00000000e+00  0.00000000e+00  0.00000000e+00  3.02320927e-06]","[[-2.19398466e-04  3.65070272e-04]
 [-8.06994506e-06 -4.81367290e-03]]",[],0.0,0.0
1787584803.7490213,0.5052158367095446,-0.573192971843446,0.06596644077488945,"[ 8.79442748e-06 -1.16340137e-07  0.00000000e+00  0.00000000e+00
  0.00000000e+00 -3.60671812e-08 -1.16340137e-07  8.29265031e-06
  0.00000000e+00  0.00000000e+00  0.00000000e+00  2.79732914e-07
  0.00000000e+00  0.00000000e+00  0.00000000e+00  0.00000000e+00
  0.00000000e+00  0.00000000e+00  0.00000000e+00  0.00000000e+00
  0.00000000e+00  0.00000000e+00  0.00000000e+00  0.00000000e+00
  0.00000000e+00  0.00000000e+00  0.00000000e+00  0.00000000e+00
  0.00000000e+00  0.00000000e+00 -3.60671812e-08  2.79732914e-07
  0.00000000e+00  0.00000000e+00  0.00000000e+00  3.02320927e-06]","[[-2.19398466e-04  3.65070272e-04]
 [-8.06994506e-06 -4.81367290e-03]]",[],0.0,0.0
1787584803.794855,0.5048260297966686,-0.5719538936563188,0.06247917031066352,"[ 8.00188447e-06 -9.28194520e-08  0.00000000e+00  0.00000000e+00
  0.00000000e+00 -5.20879521e-08 -9.28194520e-08  7.16708922e-06
  0.00000000e+00  0.00000000e+00  0.00000000e+00  2.93267024e-07
  0.00000000e+00  0.00000000e+00  0.00000000e+00  0.00000000e+00
  0.00000000e+00  0.00000000e+00  0.00000000e+00  0.00000000e+00
  0.00000000e+00  0.00000000e+00  0.00000000e+00  0.00000000e+00
  0.00000000e+00  0.00000000e+00  0.00000000e+00  0.00000000e+00
  0.00000000e+00  0.00000000e+00 -5.20879521e-08  2.93267024e-07
  0.00000000e+00  0.00000000e+00  0.00000000e+00  3.07470680e-06]","[[-1.99734430e-04  3.26404479e-04]
 [-5.83319947e-06 -4.25327012e-03]]",[],0.0,0.0
1787584803.8396425,0.5048260297966686,-0.5719538936563188,0.06247917031066352,"[ 8.00188447e-06 -9.28194520e-08  0.00000000e+00  0.00000000e+00
  0.00000000e+00 -5.20879521e-08 -9.28194520e-08  7.16708922e-06
  0.00000000e+00  0.00000000e+00  0.00000000e+00  2.93267024e-07
  0.00000000e+00  0.00000000e+00  0.00000000e+00  0.00000000e+00
  0.00000000e+00  0.00000000e+00  0.00000000e+00  0.00000000e+00
  0.00000000e+00  0.00000000e+00  0.00000000e+00  0.00000000e+00
  0.00000000e+00  0.00000000e+00  0.00000000e+00  0.00000000e+00
  0.00000000e+00  0.00000000e+00 -5.20879521e-08  2.93267024e-07
  0.00000000e+00  0.00000000e+00  0.00000000e+00  3.07470680e-06]","[[-1.99734430e-04  3.26404479e-04]
 [-5.83319947e-06 -4.25327012e-03]]",[],0.0,0.0
1787584803.9000585,0.5048260297966686,-0.5719538936563188,0.06247917031066352,"[ 8.00188447e-06 -9.28194520e-08  0.00000000e+00  0.00000000e+00
  0.00000000e+00 -5.20879521e-08 -9.28194520e-08  7.16708922e-06
  0.00000000e+00  0.00000000e+00  0.00000000e+00  2.93267024e-07
  0.00000000e+00  0.00000000e+00  0.00000000e+00  0.00000000e+00
  0.00000000e+00  0.00000000e+00  0.00000000e+00  0.00000000e+00
  0.00000000e+00  0.00000000e+00  0.00000000e+00  0.00000000e+00
  0.00000000e+00  0.00000000e+00  0.00000000e+00  0.00000000e+00
  0.00000000e+00  0.00000000e+00 -5.20879521e-08  2.93267024e-07
  0.00000000e+00  0.00000000e+00  0.00000000e+00  3.07470680e-06]","[[-1.99734430e-04  3.26404479e-04]
 [-5.83319947e-06 -4.25327012e-03]]",[],0.0,0.0
1787584804.0786548,0.5048260297966686,-0.5719538936563188,0.06247917031066352,"[ 8.00188447e-06 -9.28194520e-08  0.00000000e+00  0.00000000e+00
  0.00000000e+00 -5.20879521e-08 -9.28194520e-08  7.16708922e-06
  0.00000000e+00  0.00000000e+00  0.00000000e+00  2.93267024e-07
  0.00000000e+00  0.00000000e+00  0.00000000e+00  0.00000000e+00
  0.00000000e+00  0.00000000e+00  0.00000000e+00  0.00000000e+00
  0.00000000e+00  0.00000000e+00  0.00000000e+00  0.00000000e+00
  0.00000000e+00  0.00000000e+00  0.00000000e+00  0.00000000e+00
  0.00000000e+00  0.00000000e+00 -5.20879521e-08  2.93267024e-07
  0.00000000e+00  0.00000000e+00  0.00000000e+00  3.07470680e-06]","[[-1.99734430e-04  3.26404479e-04]
 [-5.83319947e-06 -4.25327012e-03]]",[],0.0,0.0
1787584804.097107,0.5048260297966686,-0.5719538936563188,0.06247917031066352,"[ 8.00188447e-06 -9.28194520e-08  0.00000000e+00  0.00000000e+00
  0.00000000e+00 -5.20879521e-08 -9.28194520e-08  7.16708922e-06
  0.00000000e+00  0.00000000e+00  0.00000000e+00  2.93267024e-07
  0.00000000e+00  0.00000000e+00  0.00000000e+00  0.00000000e+00
  0.00000000e+00  0.00000000e+00  0.00000000e+00  0.00000000e+00
  0.00000000e+00  0.00000000e+00  0.00000000e+00  0.00000000e+00
  0.00000000e+00  0.00000000e+00  0.00000000e+00  0.00000000e+00
  0.00000000e+00  0.00000000e+00 -5.20879521e-08  2.93267024e-07
  0.00000000e+00  0.00000000e+00  0.00000000e+00  3.07470680e-06]","[[-1.99734430e-04  3.26404479e-04]
 [-5.83319947e-06 -4.25327012e-03]]",[],0.0,0.0
1787584804.1721082,0.5048260297966686,-0.5719538936563188,0.06247917031066352,"[ 8.00188447e-06 -9.28194520e-08  0.00000000e+00  0.00000000e+00
  0.00000000e+00 -5.20879521e-08 -9.28194520e-08  7.16708922e-06
  0.00000000e+00  0.00000000e+00  0.00000000e+00  2.93267024e-07
  0.00000000e+00  0.00000000e+00  0.00000000e+00  0.00000000e+00
  0.00000000e+00  0.00000000e+00  0.00000000e+00  0.00000000e+00
  0.00000000e+00  0.00000000e+00  0.00000000e+00  0.00000000e+00
  0.00000000e+00  0.00000000e+00  0.00000000e+00  0.00000000e+00
  0.00000000e+00  0.00000000e+00 -5.20879521e-08  2.93267024e-07
  0.00000000e+00  0.00000000e+00  0.00000000e+00  3.07470680e-06]","[[-1.99734430e-04  3.26404479e-04]
 [-5.83319947e-06 -4.25327012e-03]]",[],0.0,0.0
1787584804.3354924,0.5048260297966686,-0.5719538936563188,0.06247917031066352,"[ 8.00188447e-06 -9.28194520e-08  0.00000000e+00  0.00000000e+00
  0.00000000e+00 -5.20879521e-08 -9.28194520e-08  7.16708922e-06
  0.00000000e+00  0.00000000e+00  0.00000000e+00  2.93267024e-07
  0.00000000e+00  0.00000000e+00  0.00000000e+00  0.00000000e+00
  0.00000000e+00  0.00000000e+00  0.00000000e+00  0.00000000e+00
  0.00000000e+00  0.00000000e+00  0.00000000e+00  0.00000000e+00
  0.00000000e+00  0.00000000e+00  0.00000000e+00  0.00000000e+00
  0.00000000e+00  0.00000000e+00 -5.20879521e-08  2.93267024e-07
  0.00000000e+00  0.00000000e+00  0.00000000e+00  3.07470680e-06]","[[-1.99734430e-04  3.26404479e-04]
 [-5.83319947e-06 -4.25327012e-03]]",[],0.0,0.0
1787584804.3475437,0.5048260297966686,-0.5719538936563188,0.06247917031066352,"[ 8.00188447e-06 -9.28194520e-08  0.00000000e+00  0.00000000e+00
  0.00000000e+00 -5.20879521e-08 -9.28194520e-08  7.16708922e-06
  0.00000000e+00  0.00000000e+00  0.00000000e+00  2.93267024e-07
  0.00000000e+00  0.00000000e+00  0.00000000e+00  0.00000000e+00
  0.00000000e+00  0.00000000e+00  0.00000000e+00  0.00000000e+00
  0.00000000e+00  0.00000000e+00  0.00000000e+00  0.00000000e+00
  0.00000000e+00  0.00000000e+00  0.00000000e+00  0.00000000e+00
  0.00000000e+00  0.00000000e+00 -5.20879521e-08  2.93267024e-07
  0.00000000e+00  0.00000000e+00  0.00000000e+00  3.07470680e-06]","[[-1.99734430e-04  3.26404479e-04]
 [-5.83319947e-06 -4.25327012e-03]]",[],0.0,0.0
1787584804.6295764,0.5048260297966686,-0.5719538936563188,0.06247917031066352,"[ 8.00188447e-06 -9.28194520e-08  0.00000000e+00  0.00000000e+00
  0.00000000e+00 -5.20879521e-08 -9.28194520e-08  7.16708922e-06
  0.00000000e+00  0.00000000e+00  0.00000000e+00  2.93267024e-07
  0.00000000e+00  0.00000000e+00  0.00000000e+00  0.00000000e+00
  0.00000000e+00  0.00000000e+00  0.00000000e+00  0.00000000e+00
  0.00000000e+00  0.00000000e+00  0.00000000e+00  0.00000000e+00
  0.00000000e+00  0.00000000e+00  0.00000000e+00  0.00000000e+00
  0.00000000e+00  0.00000000e+00 -5.20879521e-08  2.93267024e-07
  0.00000000e+00  0.00000000e+00  0.00000000e+00  3.07470680e-06]","[[-1.99734430e-04  3.26404479e-04]
 [-5.83319947e-06 -4.25327012e-03]]",[],0.0,0.0
1787584804.6422243,0.5048260297966686,-0.5719538936563188,0.06247917031066352,"[ 8.00188447e-06 -9.28194520e-08  0.00000000e+00  0.00000000e+00
  0.00000000e+00 -5.20879521e-08 -9.28194520e-08  7.16708922e-06
  0.00000000e+00  0.00000000e+00  0.00000000e+00  2.93267024e-07
  0.00000000e+00  0.00000000e+00  0.00000000e+00  0.00000000e+00
  0.00000000e+00  0.00000000e+00  0.00000000e+00  0.00000000e+00
  0.00000000e+00  0.00000000e+00  0.00000000e+00  0.00000000e+00
  0.00000000e+00  0.00000000e+00  0.00000000e+00  0.00000000e+00
  0.00000000e+00  0.00000000e+00 -5.20879521e-08  2.93267024e-07
  0.00000000e+00  0.00000000e+00  0.00000000e+00  3.07470680e-06]","[[-1.99734430e-04  3.26404479e-04]
 [-5.83319947e-06 -4.25327012e-03]]",[],0.0,0.0
1787584804.6978018,0.5048260297966686,-0.5719538936563188,0.06247917031066352,"[ 8.00188447e-06 -9.28194520e-08  0.00000000e+00  0.00000000e+00
  0.00000000e+00 -5.20879521e-08 -9.28194520e-08  7.16708922e-06
  0.00000000e+00  0.00000000e+00  0.00000000e+00  2.93267024e-07
  0.00000000e+00  0.00000000e+00  0.00000000e+00  0.00000000e+00
  0.00000000e+00  0.00000000e+00  0.00000000e+00  0.00000000e+00
  0.00000000e+00  0.00000000e+00  0.00000000e+00  0.00000000e+00
  0.00000000e+00  0.00000000e+00  0.00000000e+00  0.00000000e+00
  0.00000000e+00  0.00000000e+00 -5.20879521e-08  2.93267024e-07
  0.00000000e+00  0.00000000e+00  0.00000000e+00  3.07470680e-06]","[[-1.99734430e-04  3.26404479e-04]
 [-5.83319947e-06 -4.25327012e-03]]",[],0.0,0.0
1787584804.8650606,0.506981969291083,-0.5708936751583185,0.058682638288552365,"[ 7.04168026e-06 -7.05833394e-08  0.00000000e+00  0.00000000e+00
  0.00000000e+00 -7.52263988e-08 -7.05833394e-08  6.27184299e-06
  0.00000000e+00  0.00000000e+00  0.00000000e+00  2.61855108e-07
  0.00000000e+00  0.00000000e+00  0.00000000e+00  0.00000000e+00
  0.00000000e+00  0.00000000e+00  0.00000000e+00  0.00000000e+00
  0.00000000e+00  0.00000000e+00  0.00000000e+00  0.00000000e+00
  0.00000000e+00  0.00000000e+00  0.00000000e+00  0.00000000e+00
  0.00000000e+00  0.00000000e+00 -7.52263988e-08  2.61855108e-07
