time,x,y,yaw,cov_prop,K_gain,innovation,v_ekf,omega_ekf
1787560053.6739082,1.553832250193191,1.0268954674761184,1.9692850724676598,"[ 6.26637008e-05 -2.68934319e-06  0.00000000e+00  0.00000000e+00
  0.00000000e+00 -8.63589726e-06 -2.68934319e-06  5.17884387e-05
  0.00000000e+00  0.00000000e+00  0.00000000e+00 -8.59436148e-07
  0.00000000e+00  0.00000000e+00  0.00000000e+00  0.00000000e+00
  0.00000000e+00  0.00000000e+00  0.00000000e+00  0.00000000e+00
  0.00000000e+00  0.00000000e+00  0.00000000e+00  0.00000000e+00
  0.00000000e+00  0.00000000e+00  0.00000000e+00  0.00000000e+00
  0.00000000e+00  0.00000000e+00 -8.63589726e-06 -8.59436148e-07
  0.00000000e+00  0.00000000e+00  0.00000000e+00  5.47536067e-06]","[[-0.00105812  0.03199682]
 [-0.00086969 -0.01329568]]",[],0.0,0.0
1787560053.7255082,1.553832250193191,1.0268954674761184,1.9692850724676598,"[ 6.26637008e-05 -2.68934319e-06  0.00000000e+00  0.00000000e+00
  0.00000000e+00 -8.63589726e-06 -2.68934319e-06  5.17884387e-05
  0.00000000e+00  0.00000000e+00  0.00000000e+00 -8.59436148e-07
  0.00000000e+00  0.00000000e+00  0.00000000e+00  0.00000000e+00
  0.00000000e+00  0.00000000e+00  0.00000000e+00  0.00000000e+00
  0.00000000e+00  0.00000000e+00  0.00000000e+00  0.00000000e+00
  0.00000000e+00  0.00000000e+00  0.00000000e+00  0.00000000e+00
  0.00000000e+00  0.00000000e+00 -8.63589726e-06 -8.59436148e-07
  0.00000000e+00  0.00000000e+00  0.00000000e+00  5.47536067e-06]","[[-0.00105812  0.03199682]
 [-0.00086969 -0.01329568]]",[],0.0,0.0
1787560053.7854922,1.553832250193191,1.0268954674761184,1.9692850724676598,"[ 6.26637008e-05 -2.68934319e-06  0.00000000e+00  0.00000000e+00
  0.00000000e+00 -8.63589726e-06 -2.68934319e-06  5.17884387e-05
  0.00000000e+00  0.00000000e+00  0.00000000e+00 -8.59436148e-07
  0.00000000e+00  0.00000000e+00  0.00000000e+00  0.00000000e+00
  0.00000000e+00  0.00000000e+00  0.00000000e+00  0.00000000e+00
  0.00000000e+00  0.00000000e+00  0.00000000e+00  0.00000000e+00
  0.00000000e+00  0.00000000e+00  0.00000000e+00  0.00000000e+00
  0.00000000e+00  0.00000000e+00 -8.63589726e-06 -8.59436148e-07
  0.00000000e+00  0.00000000e+00  0.00000000e+00  5.47536067e-06]","[[-0.00105812  0.03199682]
 [-0.00086969 -0.01329568]]",[],0.0,0.0
1787560053.824324,1.553832250193191,1.0268954674761184,1.9692850724676598,"[ 6.26637008e-05 -2.68934319e-06  0.00000000e+00  0.00000000e+00
  0.00000000e+00 -8.63589726e-06 -2.68934319e-06  5.17884387e-05
  0.00000000e+00  0.00000000e+00  0.00000000e+00 -8.59436148e-07
  0.00000000e+00  0.00000000e+00  0.00000000e+00  0.00000000e+00
  0.00000000e+00  0.00000000e+00  0.00000000e+00  0.00000000e+00
  0.00000000e+00  0.00000000e+00  0.00000000e+00  0.00000000e+00
  0.00000000e+00  0.00000000e+00  0.00000000e+00  0.00000000e+00
  0.00000000e+00  0.00000000e+00 -8.63589726e-06 -8.59436148e-07
  0.00000000e+00  0.00000000e+00  0.00000000e+00  5.47536067e-06]","[[-0.00105812  0.03199682]
 [-0.00086969 -0.01329568]]",[],0.0,0.0
1787560053.874451,1.553832250193191,1.0268954674761184,1.9692850724676598,"[ 6.26637008e-05 -2.68934319e-06  0.00000000e+00  0.00000000e+00
  0.00000000e+00 -8.63589726e-06 -2.68934319e-06  5.17884387e-05
  0.00000000e+00  0.00000000e+00  0.00000000e+00 -8.59436148e-07
  0.00000000e+00  0.00000000e+00  0.00000000e+00  0.00000000e+00
  0.00000000e+00  0.00000000e+00  0.00000000e+00  0.00000000e+00
  0.00000000e+00  0.00000000e+00  0.00000000e+00  0.00000000e+00
  0.00000000e+00  0.00000000e+00  0.00000000e+00  0.00000000e+00
  0.00000000e+00  0.00000000e+00 -8.63589726e-06 -8.59436148e-07
  0.00000000e+00  0.00000000e+00  0.00000000e+00  5.47536067e-06]","[[-0.00105812  0.03199682]
 [-0.00086969 -0.01329568]]",[],0.0,0.0
1787560053.92478,1.553832250193191,1.0268954674761184,1.9692850724676598,"[ 6.26637008e-05 -2.68934319e-06  0.00000000e+00  0.00000000e+00
  0.00000000e+00 -8.63589726e-06 -2.68934319e-06  5.17884387e-05
  0.00000000e+00  0.00000000e+00  0.00000000e+00 -8.59436148e-07
  0.00000000e+00  0.00000000e+00  0.00000000e+00  0.00000000e+00
  0.00000000e+00  0.00000000e+00  0.00000000e+00  0.00000000e+00
  0.00000000e+00  0.00000000e+00  0.00000000e+00  0.00000000e+00
  0.00000000e+00  0.00000000e+00  0.00000000e+00  0.00000000e+00
  0.00000000e+00  0.00000000e+00 -8.63589726e-06 -8.59436148e-07
  0.00000000e+00  0.00000000e+00  0.00000000e+00  5.47536067e-06]","[[-0.00105812  0.03199682]
 [-0.00086969 -0.01329568]]",[],0.0,0.0
1787560053.9742627,1.553832250193191,1.0268954674761184,1.9692850724676598,"[ 6.26637008e-05 -2.68934319e-06  0.00000000e+00  0.00000000e+00
  0.00000000e+00 -8.63589726e-06 -2.68934319e-06  5.17884387e-05
  0.00000000e+00  0.00000000e+00  0.00000000e+00 -8.59436148e-07
  0.00000000e+00  0.00000000e+00  0.00000000e+00  0.00000000e+00
  0.00000000e+00  0.00000000e+00  0.00000000e+00  0.00000000e+00
  0.00000000e+00  0.00000000e+00  0.00000000e+00  0.00000000e+00
  0.00000000e+00  0.00000000e+00  0.00000000e+00  0.00000000e+00
  0.00000000e+00  0.00000000e+00 -8.63589726e-06 -8.59436148e-07
  0.00000000e+00  0.00000000e+00  0.00000000e+00  5.47536067e-06]","[[-0.00105812  0.03199682]
 [-0.00086969 -0.01329568]]",[],0.0,0.0
1787560054.0286002,1.553832250193191,1.0268954674761184,1.9692850724676598,"[ 6.26637008e-05 -2.68934319e-06  0.00000000e+00  0.00000000e+00
  0.00000000e+00 -8.63589726e-06 -2.68934319e-06  5.17884387e-05
  0.00000000e+00  0.00000000e+00  0.00000000e+00 -8.59436148e-07
  0.00000000e+00  0.00000000e+00  0.00000000e+00  0.00000000e+00
  0.00000000e+00  0.00000000e+00  0.00000000e+00  0.00000000e+00
  0.00000000e+00  0.00000000e+00  0.00000000e+00  0.00000000e+00
  0.00000000e+00  0.00000000e+00  0.00000000e+00  0.00000000e+00
  0.00000000e+00  0.00000000e+00 -8.63589726e-06 -8.59436148e-07
  0.00000000e+00  0.00000000e+00  0.00000000e+00  5.47536067e-06]","[[-0.00105812  0.03199682]
 [-0.00086969 -0.01329568]]",[],0.0,0.0
1787560054.0751367,1.553832250193191,1.0268954674761184,1.9692850724676598,"[ 6.26637008e-05 -2.68934319e-06  0.00000000e+00  0.00000000e+00
  0.00000000e+00 -8.63589726e-06 -2.68934319e-06  5.17884387e-05
  0.00000000e+00  0.00000000e+00  0.00000000e+00 -8.59436148e-07
  0.00000000e+00  0.00000000e+00  0.00000000e+00  0.00000000e+00
  0.00000000e+00  0.00000000e+00  0.00000000e+00  0.00000000e+00
  0.00000000e+00  0.00000000e+00  0.00000000e+00  0.00000000e+00
  0.00000000e+00  0.00000000e+00  0.00000000e+00  0.00000000e+00
  0.00000000e+00  0.00000000e+00 -8.63589726e-06 -8.59436148e-07
  0.00000000e+00  0.00000000e+00  0.00000000e+00  5.47536067e-06]","[[-0.00105812  0.03199682]
 [-0.00086969 -0.01329568]]",[],0.0,0.0
1787560054.1323795,1.553832250193191,1.0268954674761184,1.9692850724676598,"[ 6.26637008e-05 -2.68934319e-06  0.00000000e+00  0.00000000e+00
  0.00000000e+00 -8.63589726e-06 -2.68934319e-06  5.17884387e-05
  0.00000000e+00  0.00000000e+00  0.00000000e+00 -8.59436148e-07
  0.00000000e+00  0.00000000e+00  0.00000000e+00  0.00000000e+00
  0.00000000e+00  0.00000000e+00  0.00000000e+00  0.00000000e+00
  0.00000000e+00  0.00000000e+00  0.00000000e+00  0.00000000e+00
  0.00000000e+00  0.00000000e+00  0.00000000e+00  0.00000000e+00
  0.00000000e+00  0.00000000e+00 -8.63589726e-06 -8.59436148e-07
  0.00000000e+00  0.00000000e+00  0.00000000e+00  5.47536067e-06]","[[-0.00105812  0.03199682]
 [-0.00086969 -0.01329568]]",[],0.0,0.0
1787560054.1765983,1.553832250193191,1.0268954674761184,1.9692850724676598,"[ 6.26637008e-05 -2.68934319e-06  0.00000000e+00  0.00000000e+00
  0.00000000e+00 -8.63589726e-06 -2.68934319e-06  5.17884387e-05
  0.00000000e+00  0.00000000e+00  0.00000000e+00 -8.59436148e-07
  0.00000000e+00  0.00000000e+00  0.00000000e+00  0.00000000e+00
  0.00000000e+00  0.00000000e+00  0.00000000e+00  0.00000000e+00
  0.00000000e+00  0.00000000e+00  0.00000000e+00  0.00000000e+00
  0.00000000e+00  0.00000000e+00  0.00000000e+00  0.00000000e+00
  0.00000000e+00  0.00000000e+00 -8.63589726e-06 -8.59436148e-07
  0.00000000e+00  0.00000000e+00  0.00000000e+00  5.47536067e-06]","[[-0.00105812  0.03199682]
 [-0.00086969 -0.01329568]]",[],0.0,0.0
1787560054.2252104,1.553832250193191,1.0268954674761184,1.9692850724676598,"[ 6.26637008e-05 -2.68934319e-06  0.00000000e+00  0.00000000e+00
  0.00000000e+00 -8.63589726e-06 -2.68934319e-06  5.17884387e-05
  0.00000000e+00  0.00000000e+00  0.00000000e+00 -8.59436148e-07
  0.00000000e+00  0.00000000e+00  0.00000000e+00  0.00000000e+00
  0.00000000e+00  0.00000000e+00  0.00000000e+00  0.00000000e+00
  0.00000000e+00  0.00000000e+00  0.00000000e+00  0.00000000e+00
  0.00000000e+00  0.00000000e+00  0.00000000e+00  0.00000000e+00
  0.00000000e+00  0.00000000e+00 -8.63589726e-06 -8.59436148e-07
  0.00000000e+00  0.00000000e+00  0.00000000e+00  5.47536067e-06]","[[-0.00105812  0.03199682]
 [-0.00086969 -0.01329568]]",[],0.0,0.0
1787560054.2738786,1.553832250193191,1.0268954674761184,1.9692850724676598,"[ 6.26637008e-05 -2.68934319e-06  0.00000000e+00  0.00000000e+00
  0.00000000e+00 -8.63589726e-06 -2.68934319e-06  5.17884387e-05
  0.00000000e+00  0.00000000e+00  0.00000000e+00 -8.59436148e-07
  0.00000000e+00  0.00000000e+00  0.00000000e+00  0.00000000e+00
  0.00000000e+00  0.00000000e+00  0.00000000e+00  0.00000000e+00
  0.00000000e+00  0.00000000e+00  0.00000000e+00  0.00000000e+00
  0.00000000e+00  0.00000000e+00  0.00000000e+00  0.00000000e+00
  0.00000000e+00  0.00000000e+00 -8.63589726e-06 -8.59436148e-07
  0.00000000e+00  0.00000000e+00  0.00000000e+00  5.47536067e-06]","[[-0.00105812  0.03199682]
 [-0.00086969 -0.01329568]]",[],0.0,0.0
1787560054.325536,1.553832250193191,1.0268954674761184,1.9692850724676598,"[ 6.26637008e-05 -2.68934319e-06  0.00000000e+00  0.00000000e+00
  0.00000000e+00 -8.63589726e-06 -2.68934319e-06  5.17884387e-05
  0.00000000e+00  0.00000000e+00  0.00000000e+00 -8.59436148e-07
  0.00000000e+00  0.00000000e+00  0.00000000e+00  0.00000000e+00
  0.00000000e+00  0.00000000e+00  0.00000000e+00  0.00000000e+00
  0.00000000e+00  0.00000000e+00  0.00000000e+00  0.00000000e+00
  0.00000000e+00  0.00000000e+00  0.00000000e+00  0.00000000e+00
  0.00000000e+00  0.00000000e+00 -8.63589726e-06 -8.59436148e-07
  0.00000000e+00  0.00000000e+00  0.00000000e+00  5.47536067e-06]","[[-0.00105812  0.03199682]
 [-0.00086969 -0.01329568]]",[],0.0,0.0
1787560054.3746145,1.553832250193191,1.0268954674761184,1.9692850724676598,"[ 6.26637008e-05 -2.68934319e-06  0.00000000e+00  0.00000000e+00
  0.00000000e+00 -8.63589726e-06 -2.68934319e-06  5.17884387e-05
  0.00000000e+00  0.00000000e+00  0.00000000e+00 -8.59436148e-07
  0.00000000e+00  0.00000000e+00  0.00000000e+00  0.00000000e+00
  0.00000000e+00  0.00000000e+00  0.00000000e+00  0.00000000e+00
  0.00000000e+00  0.00000000e+00  0.00000000e+00  0.00000000e+00
  0.00000000e+00  0.00000000e+00  0.00000000e+00  0.00000000e+00
  0.00000000e+00  0.00000000e+00 -8.63589726e-06 -8.59436148e-07
  0.00000000e+00  0.00000000e+00  0.00000000e+00  5.47536067e-06]","[[-0.00105812  0.03199682]
 [-0.00086969 -0.01329568]]",[],0.0,0.0
1787560054.4251842,1.553832250193191,1.0268954674761184,1.9692850724676598,"[ 6.26637008e-05 -2.68934319e-06  0.00000000e+00  0.00000000e+00
  0.00000000e+00 -8.63589726e-06 -2.68934319e-06  5.17884387e-05
  0.00000000e+00  0.00000000e+00  0.00000000e+00 -8.59436148e-07
  0.00000000e+00  0.00000000e+00  0.00000000e+00  0.00000000e+00
  0.00000000e+00  0.00000000e+00  0.00000000e+00  0.00000000e+00
  0.00000000e+00  0.00000000e+00  0.00000000e+00  0.00000000e+00
  0.00000000e+00  0.00000000e+00  0.00000000e+00  0.00000000e+00
  0.00000000e+00  0.00000000e+00 -8.63589726e-06 -8.59436148e-07
  0.00000000e+00  0.00000000e+00  0.00000000e+00  5.47536067e-06]","[[-0.00105812  0.03199682]
 [-0.00086969 -0.01329568]]",[],0.0,0.0
1787560054.4743998,1.553832250193191,1.0268954674761184,1.9692850724676598,"[ 6.26637008e-05 -2.68934319e-06  0.00000000e+00  0.00000000e+00
  0.00000000e+00 -8.63589726e-06 -2.68934319e-06  5.17884387e-05
  0.00000000e+00  0.00000000e+00  0.00000000e+00 -8.59436148e-07
  0.00000000e+00  0.00000000e+00  0.00000000e+00  0.00000000e+00
  0.00000000e+00  0.00000000e+00  0.00000000e+00  0.00000000e+00
  0.00000000e+00  0.00000000e+00  0.00000000e+00  0.00000000e+00
  0.00000000e+00  0.00000000e+00  0.00000000e+00  0.00000000e+00
  0.00000000e+00  0.00000000e+00 -8.63589726e-06 -8.59436148e-07
  0.00000000e+00  0.00000000e+00  0.00000000e+00  5.47536067e-06]","[[-0.00105812  0.03199682]
 [-0.00086969 -0.01329568]]",[],0.0,0.0
1787560054.5242977,1.553832250193191,1.0268954674761184,1.9692850724676598,"[ 6.26637008e-05 -2.68934319e-06  0.00000000e+00  0.00000000e+00
  0.00000000e+00 -8.63589726e-06 -2.68934319e-06  5.17884387e-05
  0.00000000e+00  0.00000000e+00  0.00000000e+00 -8.59436148e-07
  0.00000000e+00  0.00000000e+00  0.00000000e+00  0.00000000e+00
  0.00000000e+00  0.00000000e+00  0.00000000e+00  0.00000000e+00
  0.00000000e+00  0.00000000e+00  0.00000000e+00  0.00000000e+00
  0.00000000e+00  0.00000000e+00  0.00000000e+00  0.00000000e+00
  0.00000000e+00  0.00000000e+00 -8.63589726e-06 -8.59436148e-07
  0.00000000e+00  0.00000000e+00  0.00000000e+00  5.47536067e-06]","[[-0.00105812  0.03199682]
 [-0.00086969 -0.01329568]]",[],0.0,0.0
1787560054.5783877,1.583633166154743,1.037733729120053,2.0220540565569607,"[ 3.16021249e-05 -7.30996679e-07  0.00000000e+00  0.00000000e+00
  0.00000000e+00 -3.95532588e-06 -7.30996679e-07  2.44276137e-05
  0.00000000e+00  0.00000000e+00  0.00000000e+00 -1.56696818e-06
  0.00000000e+00  0.00000000e+00  0.00000000e+00  0.00000000e+00
  0.00000000e+00  0.00000000e+00  0.00000000e+00  0.00000000e+00
  0.00000000e+00  0.00000000e+00  0.00000000e+00  0.00000000e+00
  0.00000000e+00  0.00000000e+00  0.00000000e+00  0.00000000e+00
  0.00000000e+00  0.00000000e+00 -3.95532588e-06 -1.56696818e-06
  0.00000000e+00  0.00000000e+00  0.00000000e+00  4.35398591e-06]","[[-0.00050306  0.01704903]
 [-0.0004499  -0.00453445]]",[],0.0,0.0
1787560054.6275835,1.583633166154743,1.037733729120053,2.0220540565569607,"[ 3.16021249e-05 -7.30996679e-07  0.00000000e+00  0.00000000e+00
  0.00000000e+00 -3.95532588e-06 -7.30996679e-07  2.44276137e-05
  0.00000000e+00  0.00000000e+00  0.00000000e+00 -1.56696818e-06
  0.00000000e+00  0.00000000e+00  0.00000000e+00  0.00000000e+00
  0.00000000e+00  0.00000000e+00  0.00000000e+00  0.00000000e+00
  0.00000000e+00  0.00000000e+00  0.00000000e+00  0.00000000e+00
  0.00000000e+00  0.00000000e+00  0.00000000e+00  0.00000000e+00
  0.00000000e+00  0.00000000e+00 -3.95532588e-06 -1.56696818e-06
  0.00000000e+00  0.00000000e+00  0.00000000e+00  4.35398591e-06]","[[-0.00050306  0.01704903]
 [-0.0004499  -0.00453445]]",[],0.0,0.0
1787560054.6752484,1.583633166154743,1.037733729120053,2.0220540565569607,"[ 3.16021249e-05 -7.30996679e-07  0.00000000e+00  0.00000000e+00
  0.00000000e+00 -3.95532588e-06 -7.30996679e-07  2.44276137e-05
  0.00000000e+00  0.00000000e+00  0.00000000e+00 -1.56696818e-06
  0.00000000e+00  0.00000000e+00  0.00000000e+00  0.00000000e+00
  0.00000000e+00  0.00000000e+00  0.00000000e+00  0.00000000e+00
  0.00000000e+00  0.00000000e+00  0.00000000e+00  0.00000000e+00
  0.00000000e+00  0.00000000e+00  0.00000000e+00  0.00000000e+00
  0.00000000e+00  0.00000000e+00 -3.95532588e-06 -1.56696818e-06
  0.00000000e+00  0.00000000e+00  0.00000000e+00  4.35398591e-06]","[[-0.00050306  0.01704903]
 [-0.0004499  -0.00453445]]",[],0.0,0.0
1787560054.7295105,1.583633166154743,1.037733729120053,2.0220540565569607,"[ 3.16021249e-05 -7.30996679e-07  0.00000000e+00  0.00000000e+00
  0.00000000e+00 -3.95532588e-06 -7.30996679e-07  2.44276137e-05
  0.00000000e+00  0.00000000e+00  0.00000000e+00 -1.56696818e-06
  0.00000000e+00  0.00000000e+00  0.00000000e+00  0.00000000e+00
  0.00000000e+00  0.00000000e+00  0.00000000e+00  0.00000000e+00
  0.00000000e+00  0.00000000e+00  0.00000000e+00  0.00000000e+00
  0.00000000e+00  0.00000000e+00  0.00000000e+00  0.00000000e+00
  0.00000000e+00  0.00000000e+00 -3.95532588e-06 -1.56696818e-06
  0.00000000e+00  0.00000000e+00  0.00000000e+00  4.35398591e-06]","[[-0.00050306  0.01704903]
 [-0.0004499  -0.00453445]]",[],0.0,0.0
1787560054.7739484,1.583633166154743,1.037733729120053,2.0220540565569607,"[ 3.16021249e-05 -7.30996679e-07  0.00000000e+00  0.00000000e+00
  0.00000000e+00 -3.95532588e-06 -7.30996679e-07  2.44276137e-05
  0.00000000e+00  0.00000000e+00  0.00000000e+00 -1.56696818e-06
  0.00000000e+00  0.00000000e+00  0.00000000e+00  0.00000000e+00
  0.00000000e+00  0.00000000e+00  0.00000000e+00  0.00000000e+00
  0.00000000e+00  0.00000000e+00  0.00000000e+00  0.00000000e+00
  0.00000000e+00  0.00000000e+00  0.00000000e+00  0.00000000e+00
  0.00000000e+00  0.00000000e+00 -3.95532588e-06 -1.56696818e-06
  0.00000000e+00  0.00000000e+00  0.00000000e+00  4.35398591e-06]","[[-0.00050306  0.01704903]
 [-0.0004499  -0.00453445]]",[],0.0,0.0
1787560054.8246348,1.583633166154743,1.037733729120053,2.0220540565569607,"[ 3.16021249e-05 -7.30996679e-07  0.00000000e+00  0.00000000e+00
  0.00000000e+00 -3.95532588e-06 -7.30996679e-07  2.44276137e-05
  0.00000000e+00  0.00000000e+00  0.00000000e+00 -1.56696818e-06
  0.00000000e+00  0.00000000e+00  0.00000000e+00  0.00000000e+00
  0.00000000e+00  0.00000000e+00  0.00000000e+00  0.00000000e+00
  0.00000000e+00  0.00000000e+00  0.00000000e+00  0.00000000e+00
  0.00000000e+00  0.00000000e+00  0.00000000e+00  0.00000000e+00
  0.00000000e+00  0.00000000e+00 -3.95532588e-06 -1.56696818e-06
  0.00000000e+00  0.00000000e+00  0.00000000e+00  4.35398591e-06]","[[-0.00050306  0.01704903]
 [-0.0004499  -0.00453445]]",[],0.0,0.0
1787560054.874167,1.583633166154743,1.037733729120053,2.0220540565569607,"[ 3.16021249e-05 -7.30996679e-07  0.00000000e+00  0.00000000e+00
  0.00000000e+00 -3.95532588e-06 -7.30996679e-07  2.44276137e-05
  0.00000000e+00  0.00000000e+00  0.00000000e+00 -1.56696818e-06
  0.00000000e+00  0.00000000e+00  0.00000000e+00  0.00000000e+00
  0.00000000e+00  0.00000000e+00  0.00000000e+00  0.00000000e+00
  0.00000000e+00  0.00000000e+00  0.00000000e+00  0.00000000e+00
  0.00000000e+00  0.00000000e+00  0.00000000e+00  0.00000000e+00
  0.00000000e+00  0.00000000e+00 -3.95532588e-06 -1.56696818e-06
  0.00000000e+00  0.00000000e+00  0.00000000e+00  4.35398591e-06]","[[-0.00050306  0.01704903]
 [-0.0004499  -0.00453445]]",[],0.0,0.0
1787560054.9326828,1.583633166154743,1.037733729120053,2.0220540565569607,"[ 3.16021249e-05 -7.30996679e-07  0.00000000e+00  0.00000000e+00
  0.00000000e+00 -3.95532588e-06 -7.30996679e-07  2.44276137e-05
  0.00000000e+00  0.00000000e+00  0.00000000e+00 -1.56696818e-06
  0.00000000e+00  0.00000000e+00  0.00000000e+00  0.00000000e+00
  0.00000000e+00  0.00000000e+00  0.00000000e+00  0.00000000e+00
  0.00000000e+00  0.00000000e+00  0.00000000e+00  0.00000000e+00
  0.00000000e+00  0.00000000e+00  0.00000000e+00  0.00000000e+00
  0.00000000e+00  0.00000000e+00 -3.95532588e-06 -1.56696818e-06
  0.00000000e+00  0.00000000e+00  0.00000000e+00  4.35398591e-06]","[[-0.00050306  0.01704903]
 [-0.0004499  -0.00453445]]",[],0.0,0.0
1787560054.985866,1.583633166154743,1.037733729120053,2.0220540565569607,"[ 3.16021249e-05 -7.30996679e-07  0.00000000e+00  0.00000000e+00
  0.00000000e+00 -3.95532588e-06 -7.30996679e-07  2.44276137e-05
  0.00000000e+00  0.00000000e+00  0.00000000e+00 -1.56696818e-06
  0.00000000e+00  0.00000000e+00  0.00000000e+00  0.00000000e+00
  0.00000000e+00  0.00000000e+00  0.00000000e+00  0.00000000e+00
  0.00000000e+00  0.00000000e+00  0.00000000e+00  0.00000000e+00
  0.00000000e+00  0.00000000e+00  0.00000000e+00  0.00000000e+00
  0.00000000e+00  0.00000000e+00 -3.95532588e-06 -1.56696818e-06
  0.00000000e+00  0.00000000e+00  0.00000000e+00  4.35398591e-06]","[[-0.00050306  0.01704903]
 [-0.0004499  -0.00453445]]",[],0.0,0.0
1787560055.0440505,1.583633166154743,1.037733729120053,2.0220540565569607,"[ 3.16021249e-05 -7.30996679e-07  0.00000000e+00  0.00000000e+00
  0.00000000e+00 -3.95532588e-06 -7.30996679e-07  2.44276137e-05
  0.00000000e+00  0.00000000e+00  0.00000000e+00 -1.56696818e-06
  0.00000000e+00  0.00000000e+00  0.00000000e+00  0.00000000e+00
  0.00000000e+00  0.00000000e+00  0.00000000e+00  0.00000000e+00
  0.00000000e+00  0.00000000e+00  0.00000000e+00  0.00000000e+00
  0.00000000e+00  0.00000000e+00  0.00000000e+00  0.00000000e+00
  0.00000000e+00  0.00000000e+00 -3.95532588e-06 -1.56696818e-06
  0.00000000e+00  0.00000000e+00  0.00000000e+00  4.35398591e-06]","[[-0.00050306  0.01704903]
 [-0.0004499  -0.00453445]]",[],0.0,0.0
1787560055.07647,1.583633166154743,1.037733729120053,2.0220540565569607,"[ 3.16021249e-05 -7.30996679e-07  0.00000000e+00  0.00000000e+00
  0.00000000e+00 -3.95532588e-06 -7.30996679e-07  2.44276137e-05
  0.00000000e+00  0.00000000e+00  0.00000000e+00 -1.56696818e-06
  0.00000000e+00  0.00000000e+00  0.00000000e+00  0.00000000e+00
  0.00000000e+00  0.00000000e+00  0.00000000e+00  0.00000000e+00
  0.00000000e+00  0.00000000e+00  0.00000000e+00  0.00000000e+00
  0.00000000e+00  0.00000000e+00  0.00000000e+00  0.00000000e+00
  0.00000000e+00  0.00000000e+00 -3.95532588e-06 -1.56696818e-06
  0.00000000e+00  0.00000000e+00  0.00000000e+00  4.35398591e-06]","[[-0.00050306  0.01704903]
 [-0.0004499  -0.00453445]]",[],0.0,0.0
1787560055.1324081,1.583633166154743,1.037733729120053,2.0220540565569607,"[ 3.16021249e-05 -7.30996679e-07  0.00000000e+00  0.00000000e+00
  0.00000000e+00 -3.95532588e-06 -7.30996679e-07  2.44276137e-05
  0.00000000e+00  0.00000000e+00  0.00000000e+00 -1.56696818e-06
  0.00000000e+00  0.00000000e+00  0.00000000e+00  0.00000000e+00
  0.00000000e+00  0.00000000e+00  0.00000000e+00  0.00000000e+00
  0.00000000e+00  0.00000000e+00  0.00000000e+00  0.00000000e+00
  0.00000000e+00  0.00000000e+00  0.00000000e+00  0.00000000e+00
  0.00000000e+00  0.00000000e+00 -3.95532588e-06 -1.56696818e-06
  0.00000000e+00  0.00000000e+00  0.00000000e+00  4.35398591e-06]","[[-0.00050306  0.01704903]
 [-0.0004499  -0.00453445]]",[],0.0,0.0
1787560055.1748736,1.583633166154743,1.037733729120053,2.0220540565569607,"[ 3.16021249e-05 -7.30996679e-07  0.00000000e+00  0.00000000e+00
  0.00000000e+00 -3.95532588e-06 -7.30996679e-07  2.44276137e-05
  0.00000000e+00  0.00000000e+00  0.00000000e+00 -1.56696818e-06
  0.00000000e+00  0.00000000e+00  0.00000000e+00  0.00000000e+00
  0.00000000e+00  0.00000000e+00  0.00000000e+00  0.00000000e+00
  0.00000000e+00  0.00000000e+00  0.00000000e+00  0.00000000e+00
  0.00000000e+00  0.00000000e+00  0.00000000e+00  0.00000000e+00
  0.00000000e+00  0.00000000e+00 -3.95532588e-06 -1.56696818e-06
  0.00000000e+00  0.00000000e+00  0.00000000e+00  4.35398591e-06]","[[-0.00050306  0.01704903]
 [-0.0004499  -0.00453445]]",[],0.0,0.0
1787560055.2251563,1.583633166154743,1.037733729120053,2.0220540565569607,"[ 3.16021249e-05 -7.30996679e-07  0.00000000e+00  0.00000000e+00
  0.00000000e+00 -3.95532588e-06 -7.30996679e-07  2.44276137e-05
  0.00000000e+00  0.00000000e+00  0.00000000e+00 -1.56696818e-06
  0.00000000e+00  0.00000000e+00  0.00000000e+00  0.00000000e+00
  0.00000000e+00  0.00000000e+00  0.00000000e+00  0.00000000e+00
  0.00000000e+00  0.00000000e+00  0.00000000e+00  0.00000000e+00
  0.00000000e+00  0.00000000e+00  0.00000000e+00  0.00000000e+00
  0.00000000e+00  0.00000000e+00 -3.95532588e-06 -1.56696818e-06
  0.00000000e+00  0.00000000e+00  0.00000000e+00  4.35398591e-06]","[[-0.00050306  0.01704903]
 [-0.0004499  -0.00453445]]",[],0.0,0.0
1787560055.2747333,1.583633166154743,1.037733729120053,2.0220540565569607,"[ 3.16021249e-05 -7.30996679e-07  0.00000000e+00  0.00000000e+00
  0.00000000e+00 -3.95532588e-06 -7.30996679e-07  2.44276137e-05
  0.00000000e+00  0.00000000e+00  0.00000000e+00 -1.56696818e-06
  0.00000000e+00  0.00000000e+00  0.00000000e+00  0.00000000e+00
  0.00000000e+00  0.00000000e+00  0.00000000e+00  0.00000000e+00
  0.00000000e+00  0.00000000e+00  0.00000000e+00  0.00000000e+00
  0.00000000e+00  0.00000000e+00  0.00000000e+00  0.00000000e+00
  0.00000000e+00  0.00000000e+00 -3.95532588e-06 -1.56696818e-06
  0.00000000e+00  0.00000000e+00  0.00000000e+00  4.35398591e-06]","[[-0.00050306  0.01704903]
 [-0.0004499  -0.00453445]]",[],0.0,0.0
1787560055.3304832,1.583633166154743,1.037733729120053,2.0220540565569607,"[ 3.16021249e-05 -7.30996679e-07  0.00000000e+00  0.00000000e+00
  0.00000000e+00 -3.95532588e-06 -7.30996679e-07  2.44276137e-05
  0.00000000e+00  0.00000000e+00  0.00000000e+00 -1.56696818e-06
  0.00000000e+00  0.00000000e+00  0.00000000e+00  0.00000000e+00
  0.00000000e+00  0.00000000e+00  0.00000000e+00  0.00000000e+00
  0.00000000e+00  0.00000000e+00  0.00000000e+00  0.00000000e+00
  0.00000000e+00  0.00000000e+00  0.00000000e+00  0.00000000e+00
  0.00000000e+00  0.00000000e+00 -3.95532588e-06 -1.56696818e-06
  0.00000000e+00  0.00000000e+00  0.00000000e+00  4.35398591e-06]","[[-0.00050306  0.01704903]
 [-0.0004499  -0.00453445]]",[],0.0,0.0
1787560055.3777003,1.583633166154743,1.037733729120053,2.0220540565569607,"[ 3.16021249e-05 -7.30996679e-07  0.00000000e+00  0.00000000e+00
  0.00000000e+00 -3.95532588e-06 -7.30996679e-07  2.44276137e-05
  0.00000000e+00  0.00000000e+00  0.00000000e+00 -1.56696818e-06
  0.00000000e+00  0.00000000e+00  0.00000000e+00  0.00000000e+00
  0.00000000e+00  0.00000000e+00  0.00000000e+00  0.00000000e+00
  0.00000000e+00  0.00000000e+00  0.00000000e+00  0.00000000e+00
  0.00000000e+00  0.00000000e+00  0.00000000e+00  0.00000000e+00
  0.00000000e+00  0.00000000e+00 -3.95532588e-06 -1.56696818e-06
  0.00000000e+00  0.00000000e+00  0.00000000e+00  4.35398591e-06]","[[-0.00050306  0.01704903]
 [-0.0004499  -0.00453445]]",[],0.0,0.0
1787560055.4236834,1.5911275413832786,1.0337580693222979,2.053975168232485,"[ 2.18008432e-05 -2.44456215e-07  0.00000000e+00  0.00000000e+00
  0.00000000e+00 -2.34134986e-06 -2.44456215e-07  1.63118523e-05
  0.00000000e+00  0.00000000e+00  0.00000000e+00 -1.35331359e-06
  0.00000000e+00  0.00000000e+00  0.00000000e+00  0.00000000e+00
  0.00000000e+00  0.00000000e+00  0.00000000e+00  0.00000000e+00
  0.00000000e+00  0.00000000e+00  0.00000000e+00  0.00000000e+00
  0.00000000e+00  0.00000000e+00  0.00000000e+00  0.00000000e+00
  0.00000000e+00  0.00000000e+00 -2.34134986e-06 -1.35331359e-06
  0.00000000e+00  0.00000000e+00  0.00000000e+00  4.20179908e-06]","[[-0.00050306  0.01704903]
 [-0.0004499  -0.00453445]]",[],0.0,0.0
1787560055.4782848,1.5911275413832786,1.0337580693222979,2.053975168232485,"[ 2.18008432e-05 -2.44456215e-07  0.00000000e+00  0.00000000e+00
  0.00000000e+00 -2.34134986e-06 -2.44456215e-07  1.63118523e-05
  0.00000000e+00  0.00000000e+00  0.00000000e+00 -1.35331359e-06
  0.00000000e+00  0.00000000e+00  0.00000000e+00  0.00000000e+00
  0.00000000e+00  0.00000000e+00  0.00000000e+00  0.00000000e+00
  0.00000000e+00  0.00000000e+00  0.00000000e+00  0.00000000e+00
  0.00000000e+00  0.00000000e+00  0.00000000e+00  0.00000000e+00
  0.00000000e+00  0.00000000e+00 -2.34134986e-06 -1.35331359e-06
  0.00000000e+00  0.00000000e+00  0.00000000e+00  4.20179908e-06]","[[-0.00035026  0.01112439]
 [-0.00030551 -0.00245332]]",[],0.0,0.0
1787560055.529069,1.5911275413832786,1.0337580693222979,2.053975168232485,"[ 2.18008432e-05 -2.44456215e-07  0.00000000e+00  0.00000000e+00
  0.00000000e+00 -2.34134986e-06 -2.44456215e-07  1.63118523e-05
  0.00000000e+00  0.00000000e+00  0.00000000e+00 -1.35331359e-06
  0.00000000e+00  0.00000000e+00  0.00000000e+00  0.00000000e+00
  0.00000000e+00  0.00000000e+00  0.00000000e+00  0.00000000e+00
  0.00000000e+00  0.00000000e+00  0.00000000e+00  0.00000000e+00
  0.00000000e+00  0.00000000e+00  0.00000000e+00  0.00000000e+00
  0.00000000e+00  0.00000000e+00 -2.34134986e-06 -1.35331359e-06
  0.00000000e+00  0.00000000e+00  0.00000000e+00  4.20179908e-06]","[[-0.00035026  0.01112439]
 [-0.00030551 -0.00245332]]",[],0.0,0.0
1787560055.57523,1.5911275413832786,1.0337580693222979,2.053975168232485,"[ 2.18008432e-05 -2.44456215e-07  0.00000000e+00  0.00000000e+00
  0.00000000e+00 -2.34134986e-06 -2.44456215e-07  1.63118523e-05
  0.00000000e+00  0.00000000e+00  0.00000000e+00 -1.35331359e-06
  0.00000000e+00  0.00000000e+00  0.00000000e+00  0.00000000e+00
  0.00000000e+00  0.00000000e+00  0.00000000e+00  0.00000000e+00
  0.00000000e+00  0.00000000e+00  0.00000000e+00  0.00000000e+00
  0.00000000e+00  0.00000000e+00  0.00000000e+00  0.00000000e+00
  0.00000000e+00  0.00000000e+00 -2.34134986e-06 -1.35331359e-06
  0.00000000e+00  0.00000000e+00  0.00000000e+00  4.20179908e-06]","[[-0.00035026  0.01112439]
 [-0.00030551 -0.00245332]]",[],0.0,0.0
1787560055.6338556,1.5911275413832786,1.0337580693222979,2.053975168232485,"[ 2.18008432e-05 -2.44456215e-07  0.00000000e+00  0.00000000e+00
  0.00000000e+00 -2.34134986e-06 -2.44456215e-07  1.63118523e-05
  0.00000000e+00  0.00000000e+00  0.00000000e+00 -1.35331359e-06
  0.00000000e+00  0.00000000e+00  0.00000000e+00  0.00000000e+00
  0.00000000e+00  0.00000000e+00  0.00000000e+00  0.00000000e+00
  0.00000000e+00  0.00000000e+00  0.00000000e+00  0.00000000e+00
  0.00000000e+00  0.00000000e+00  0.00000000e+00  0.00000000e+00
  0.00000000e+00  0.00000000e+00 -2.34134986e-06 -1.35331359e-06
  0.00000000e+00  0.00000000e+00  0.00000000e+00  4.20179908e-06]","[[-0.00035026  0.01112439]
 [-0.00030551 -0.00245332]]",[],0.0,0.0
1787560055.6737778,1.5911275413832786,1.0337580693222979,2.053975168232485,"[ 2.18008432e-05 -2.44456215e-07  0.00000000e+00  0.00000000e+00
  0.00000000e+00 -2.34134986e-06 -2.44456215e-07  1.63118523e-05
  0.00000000e+00  0.00000000e+00  0.00000000e+00 -1.35331359e-06
  0.00000000e+00  0.00000000e+00  0.00000000e+00  0.00000000e+00
  0.00000000e+00  0.00000000e+00  0.00000000e+00  0.00000000e+00
  0.00000000e+00  0.00000000e+00  0.00000000e+00  0.00000000e+00
  0.00000000e+00  0.00000000e+00  0.00000000e+00  0.00000000e+00
  0.00000000e+00  0.00000000e+00 -2.34134986e-06 -1.35331359e-06
  0.00000000e+00  0.00000000e+00  0.00000000e+00  4.20179908e-06]","[[-0.00035026  0.01112439]
 [-0.00030551 -0.00245332]]",[],0.0,0.0
1787560055.7253883,1.5911275413832786,1.0337580693222979,2.053975168232485,"[ 2.18008432e-05 -2.44456215e-07  0.00000000e+00  0.00000000e+00
  0.00000000e+00 -2.34134986e-06 -2.44456215e-07  1.63118523e-05
  0.00000000e+00  0.00000000e+00  0.00000000e+00 -1.35331359e-06
  0.00000000e+00  0.00000000e+00  0.00000000e+00  0.00000000e+00
  0.00000000e+00  0.00000000e+00  0.00000000e+00  0.00000000e+00
  0.00000000e+00  0.00000000e+00  0.00000000e+00  0.00000000e+00
  0.00000000e+00  0.00000000e+00  0.00000000e+00  0.00000000e+00
  0.00000000e+00  0.00000000e+00 -2.34134986e-06 -1.35331359e-06
  0.00000000e+00  0.00000000e+00  0.00000000e+00  4.20179908e-06]","[[-0.00035026  0.01112439]
 [-0.00030551 -0.00245332]]",[],0.0,0.0
1787560055.7816868,1.5911275413832786,1.0337580693222979,2.053975168232485,"[ 2.18008432e-05 -2.44456215e-07  0.00000000e+00  0.00000000e+00
  0.00000000e+00 -2.34134986e-06 -2.44456215e-07  1.63118523e-05
  0.00000000e+00  0.00000000e+00  0.00000000e+00 -1.35331359e-06
  0.00000000e+00  0.00000000e+00  0.00000000e+00  0.00000000e+00
  0.00000000e+00  0.00000000e+00  0.00000000e+00  0.00000000e+00
  0.00000000e+00  0.00000000e+00  0.00000000e+00  0.00000000e+00
  0.00000000e+00  0.00000000e+00  0.00000000e+00  0.00000000e+00
  0.00000000e+00  0.00000000e+00 -2.34134986e-06 -1.35331359e-06
  0.00000000e+00  0.00000000e+00  0.00000000e+00  4.20179908e-06]","[[-0.00035026  0.01112439]
 [-0.00030551 -0.00245332]]",[],0.0,0.0
1787560055.8238058,1.5911275413832786,1.0337580693222979,2.053975168232485,"[ 2.18008432e-05 -2.44456215e-07  0.00000000e+00  0.00000000e+00
  0.00000000e+00 -2.34134986e-06 -2.44456215e-07  1.63118523e-05
  0.00000000e+00  0.00000000e+00  0.00000000e+00 -1.35331359e-06
  0.00000000e+00  0.00000000e+00  0.00000000e+00  0.00000000e+00
  0.00000000e+00  0.00000000e+00  0.00000000e+00  0.00000000e+00
  0.00000000e+00  0.00000000e+00  0.00000000e+00  0.00000000e+00
  0.00000000e+00  0.00000000e+00  0.00000000e+00  0.00000000e+00
  0.00000000e+00  0.00000000e+00 -2.34134986e-06 -1.35331359e-06
  0.00000000e+00  0.00000000e+00  0.00000000e+00  4.20179908e-06]","[[-0.00035026  0.01112439]
 [-0.00030551 -0.00245332]]",[],0.0,0.0
1787560055.8745048,1.5911275413832786,1.0337580693222979,2.053975168232485,"[ 2.18008432e-05 -2.44456215e-07  0.00000000e+00  0.00000000e+00
  0.00000000e+00 -2.34134986e-06 -2.44456215e-07  1.63118523e-05
  0.00000000e+00  0.00000000e+00  0.00000000e+00 -1.35331359e-06
  0.00000000e+00  0.00000000e+00  0.00000000e+00  0.00000000e+00
  0.00000000e+00  0.00000000e+00  0.00000000e+00  0.00000000e+00
  0.00000000e+00  0.00000000e+00  0.00000000e+00  0.00000000e+00
  0.00000000e+00  0.00000000e+00  0.00000000e+00  0.00000000e+00
  0.00000000e+00  0.00000000e+00 -2.34134986e-06 -1.35331359e-06
  0.00000000e+00  0.00000000e+00  0.00000000e+00  4.20179908e-06]","[[-0.00035026  0.01112439]
 [-0.00030551 -0.00245332]]",[],0.0,0.0
1787560055.9266047,1.5911275413832786,1.0337580693222979,2.053975168232485,"[ 2.18008432e-05 -2.44456215e-07  0.00000000e+00  0.00000000e+00
  0.00000000e+00 -2.34134986e-06 -2.44456215e-07  1.63118523e-05
  0.00000000e+00  0.00000000e+00  0.00000000e+00 -1.35331359e-06
  0.00000000e+00  0.00000000e+00  0.00000000e+00  0.00000000e+00
  0.00000000e+00  0.00000000e+00  0.00000000e+00  0.00000000e+00
  0.00000000e+00  0.00000000e+00  0.00000000e+00  0.00000000e+00
  0.00000000e+00  0.00000000e+00  0.00000000e+00  0.00000000e+00
  0.00000000e+00  0.00000000e+00 -2.34134986e-06 -1.35331359e-06
  0.00000000e+00  0.00000000e+00  0.00000000e+00  4.20179908e-06]","[[-0.00035026  0.01112439]
 [-0.00030551 -0.00245332]]",[],0.0,0.0
1787560055.9858472,1.5911275413832786,1.0337580693222979,2.053975168232485,"[ 2.18008432e-05 -2.44456215e-07  0.00000000e+00  0.00000000e+00
  0.00000000e+00 -2.34134986e-06 -2.44456215e-07  1.63118523e-05
  0.00000000e+00  0.00000000e+00  0.00000000e+00 -1.35331359e-06
  0.00000000e+00  0.00000000e+00  0.00000000e+00  0.00000000e+00
  0.00000000e+00  0.00000000e+00  0.00000000e+00  0.00000000e+00
  0.00000000e+00  0.00000000e+00  0.00000000e+00  0.00000000e+00
  0.00000000e+00  0.00000000e+00  0.00000000e+00  0.00000000e+00
  0.00000000e+00  0.00000000e+00 -2.34134986e-06 -1.35331359e-06
  0.00000000e+00  0.00000000e+00  0.00000000e+00  4.20179908e-06]","[[-0.00035026  0.01112439]
 [-0.00030551 -0.00245332]]",[],0.0,0.0
1787560056.0253673,1.5911275413832786,1.0337580693222979,2.053975168232485,"[ 2.18008432e-05 -2.44456215e-07  0.00000000e+00  0.00000000e+00
  0.00000000e+00 -2.34134986e-06 -2.44456215e-07  1.63118523e-05
  0.00000000e+00  0.00000000e+00  0.00000000e+00 -1.35331359e-06
  0.00000000e+00  0.00000000e+00  0.00000000e+00  0.00000000e+00
  0.00000000e+00  0.00000000e+00  0.00000000e+00  0.00000000e+00
  0.00000000e+00  0.00000000e+00  0.00000000e+00  0.00000000e+00
  0.00000000e+00  0.00000000e+00  0.00000000e+00  0.00000000e+00
  0.00000000e+00  0.00000000e+00 -2.34134986e-06 -1.35331359e-06
  0.00000000e+00  0.00000000e+00  0.00000000e+00  4.20179908e-06]","[[-0.00035026  0.01112439]
 [-0.00030551 -0.00245332]]",[],0.0,0.0
1787560056.0745785,1.5911275413832786,1.0337580693222979,2.053975168232485,"[ 2.18008432e-05 -2.44456215e-07  0.00000000e+00  0.00000000e+00
  0.00000000e+00 -2.34134986e-06 -2.44456215e-07  1.63118523e-05
  0.00000000e+00  0.00000000e+00  0.00000000e+00 -1.35331359e-06
  0.00000000e+00  0.00000000e+00  0.00000000e+00  0.00000000e+00
  0.00000000e+00  0.00000000e+00  0.00000000e+00  0.00000000e+00
  0.00000000e+00  0.00000000e+00  0.00000000e+00  0.00000000e+00
  0.00000000e+00  0.00000000e+00  0.00000000e+00  0.00000000e+00
  0.00000000e+00  0.00000000e+00 -2.34134986e-06 -1.35331359e-06
  0.00000000e+00  0.00000000e+00  0.00000000e+00  4.20179908e-06]","[[-0.00035026  0.01112439]
 [-0.00030551 -0.00245332]]",[],0.0,0.0
1787560056.1244476,1.5911275413832786,1.0337580693222979,2.053975168232485,"[ 2.18008432e-05 -2.44456215e-07  0.00000000e+00  0.00000000e+00
  0.00000000e+00 -2.34134986e-06 -2.44456215e-07  1.63118523e-05
  0.00000000e+00  0.00000000e+00  0.00000000e+00 -1.35331359e-06
  0.00000000e+00  0.00000000e+00  0.00000000e+00  0.00000000e+00
  0.00000000e+00  0.00000000e+00  0.00000000e+00  0.00000000e+00
  0.00000000e+00  0.00000000e+00  0.00000000e+00  0.00000000e+00
  0.00000000e+00  0.00000000e+00  0.00000000e+00  0.00000000e+00
  0.00000000e+00  0.00000000e+00 -2.34134986e-06 -1.35331359e-06
  0.00000000e+00  0.00000000e+00  0.00000000e+00  4.20179908e-06]","[[-0.00035026  0.01112439]
 [-0.00030551 -0.00245332]]",[],0.0,0.0
1787560056.1741347,1.5911275413832786,1.0337580693222979,2.053975168232485,"[ 2.18008432e-05 -2.44456215e-07  0.00000000e+00  0.00000000e+00
  0.00000000e+00 -2.34134986e-06 -2.44456215e-07  1.63118523e-05
  0.00000000e+00  0.00000000e+00  0.00000000e+00 -1.35331359e-06
  0.00000000e+00  0.00000000e+00  0.00000000e+00  0.00000000e+00
  0.00000000e+00  0.00000000e+00  0.00000000e+00  0.00000000e+00
  0.00000000e+00  0.00000000e+00  0.00000000e+00  0.00000000e+00
  0.00000000e+00  0.00000000e+00  0.00000000e+00  0.00000000e+00
  0.00000000e+00  0.00000000e+00 -2.34134986e-06 -1.35331359e-06
  0.00000000e+00  0.00000000e+00  0.00000000e+00  4.20179908e-06]","[[-0.00035026  0.01112439]
 [-0.00030551 -0.00245332]]",[],0.0,0.0
1787560056.2304032,1.5911275413832786,1.0337580693222979,2.053975168232485,"[ 2.18008432e-05 -2.44456215e-07  0.00000000e+00  0.00000000e+00
  0.00000000e+00 -2.34134986e-06 -2.44456215e-07  1.63118523e-05
  0.00000000e+00  0.00000000e+00  0.00000000e+00 -1.35331359e-06
  0.00000000e+00  0.00000000e+00  0.00000000e+00  0.00000000e+00
  0.00000000e+00  0.00000000e+00  0.00000000e+00  0.00000000e+00
  0.00000000e+00  0.00000000e+00  0.00000000e+00  0.00000000e+00
  0.00000000e+00  0.00000000e+00  0.00000000e+00  0.00000000e+00
  0.00000000e+00  0.00000000e+00 -2.34134986e-06 -1.35331359e-06
  0.00000000e+00  0.00000000e+00  0.00000000e+00  4.20179908e-06]","[[-0.00035026  0.01112439]
 [-0.00030551 -0.00245332]]",[],0.0,0.0
1787560056.2754865,1.5911275413832786,1.0337580693222979,2.053975168232485,"[ 2.18008432e-05 -2.44456215e-07  0.00000000e+00  0.00000000e+00
  0.00000000e+00 -2.34134986e-06 -2.44456215e-07  1.63118523e-05
  0.00000000e+00  0.00000000e+00  0.00000000e+00 -1.35331359e-06
  0.00000000e+00  0.00000000e+00  0.00000000e+00  0.00000000e+00
  0.00000000e+00  0.00000000e+00  0.00000000e+00  0.00000000e+00
  0.00000000e+00  0.00000000e+00  0.00000000e+00  0.00000000e+00
  0.00000000e+00  0.00000000e+00  0.00000000e+00  0.00000000e+00
  0.00000000e+00  0.00000000e+00 -2.34134986e-06 -1.35331359e-06
  0.00000000e+00  0.00000000e+00  0.00000000e+00  4.20179908e-06]","[[-0.00035026  0.01112439]
 [-0.00030551 -0.00245332]]",[],0.0,0.0
1787560056.328459,1.5911275413832786,1.0337580693222979,2.053975168232485,"[ 2.18008432e-05 -2.44456215e-07  0.00000000e+00  0.00000000e+00
  0.00000000e+00 -2.34134986e-06 -2.44456215e-07  1.63118523e-05
  0.00000000e+00  0.00000000e+00  0.00000000e+00 -1.35331359e-06
  0.00000000e+00  0.00000000e+00  0.00000000e+00  0.00000000e+00
  0.00000000e+00  0.00000000e+00  0.00000000e+00  0.00000000e+00
  0.00000000e+00  0.00000000e+00  0.00000000e+00  0.00000000e+00
  0.00000000e+00  0.00000000e+00  0.00000000e+00  0.00000000e+00
  0.00000000e+00  0.00000000e+00 -2.34134986e-06 -1.35331359e-06
  0.00000000e+00  0.00000000e+00  0.00000000e+00  4.20179908e-06]","[[-0.00035026  0.01112439]
 [-0.00030551 -0.00245332]]",[],0.0,0.0
1787560056.3770869,1.5890918535939489,1.025020169706444,2.110046026217649,"[ 1.60658753e-05 -2.69096230e-07  0.00000000e+00  0.00000000e+00
  0.00000000e+00 -1.82486143e-06 -2.69096230e-07  1.22135571e-05
  0.00000000e+00  0.00000000e+00  0.00000000e+00 -7.32132754e-07
  0.00000000e+00  0.00000000e+00  0.00000000e+00  0.00000000e+00
  0.00000000e+00  0.00000000e+00  0.00000000e+00  0.00000000e+00
  0.00000000e+00  0.00000000e+00  0.00000000e+00  0.00000000e+00
  0.00000000e+00  0.00000000e+00  0.00000000e+00  0.00000000e+00
  0.00000000e+00  0.00000000e+00 -1.82486143e-06 -7.32132754e-07
  0.00000000e+00  0.00000000e+00  0.00000000e+00  3.93642886e-06]","[[-0.00025576  0.00839987]
 [-0.00022779 -0.00232346]]",[],0.0,0.0
1787560056.4343956,1.5890918535939489,1.025020169706444,2.110046026217649,"[ 1.60658753e-05 -2.69096230e-07  0.00000000e+00  0.00000000e+00
  0.00000000e+00 -1.82486143e-06 -2.69096230e-07  1.22135571e-05
  0.00000000e+00  0.00000000e+00  0.00000000e+00 -7.32132754e-07
  0.00000000e+00  0.00000000e+00  0.00000000e+00  0.00000000e+00
  0.00000000e+00  0.00000000e+00  0.00000000e+00  0.00000000e+00
  0.00000000e+00  0.00000000e+00  0.00000000e+00  0.00000000e+00
  0.00000000e+00  0.00000000e+00  0.00000000e+00  0.00000000e+00
  0.00000000e+00  0.00000000e+00 -1.82486143e-06 -7.32132754e-07
  0.00000000e+00  0.00000000e+00  0.00000000e+00  3.93642886e-06]","[[-0.00025576  0.00839987]
 [-0.00022779 -0.00232346]]",[],0.0,0.0
1787560056.478165,1.5890918535939489,1.025020169706444,2.110046026217649,"[ 1.60658753e-05 -2.69096230e-07  0.00000000e+00  0.00000000e+00
  0.00000000e+00 -1.82486143e-06 -2.69096230e-07  1.22135571e-05
  0.00000000e+00  0.00000000e+00  0.00000000e+00 -7.32132754e-07
  0.00000000e+00  0.00000000e+00  0.00000000e+00  0.00000000e+00
  0.00000000e+00  0.00000000e+00  0.00000000e+00  0.00000000e+00
  0.00000000e+00  0.00000000e+00  0.00000000e+00  0.00000000e+00
  0.00000000e+00  0.00000000e+00  0.00000000e+00  0.00000000e+00
  0.00000000e+00  0.00000000e+00 -1.82486143e-06 -7.32132754e-07
  0.00000000e+00  0.00000000e+00  0.00000000e+00  3.93642886e-06]","[[-0.00025576  0.00839987]
 [-0.00022779 -0.00232346]]",[],0.0,0.0
1787560056.5255504,1.5890918535939489,1.025020169706444,2.110046026217649,"[ 1.60658753e-05 -2.69096230e-07  0.00000000e+00  0.00000000e+00
  0.00000000e+00 -1.82486143e-06 -2.69096230e-07  1.22135571e-05
  0.00000000e+00  0.00000000e+00  0.00000000e+00 -7.32132754e-07
  0.00000000e+00  0.00000000e+00  0.00000000e+00  0.00000000e+00
  0.00000000e+00  0.00000000e+00  0.00000000e+00  0.00000000e+00
  0.00000000e+00  0.00000000e+00  0.00000000e+00  0.00000000e+00
  0.00000000e+00  0.00000000e+00  0.00000000e+00  0.00000000e+00
  0.00000000e+00  0.00000000e+00 -1.82486143e-06 -7.32132754e-07
  0.00000000e+00  0.00000000e+00  0.00000000e+00  3.93642886e-06]","[[-0.00025576  0.00839987]
 [-0.00022779 -0.00232346]]",[],0.0,0.0
1787560056.5824137,1.5890918535939489,1.025020169706444,2.110046026217649,"[ 1.60658753e-05 -2.69096230e-07  0.00000000e+00  0.00000000e+00
  0.00000000e+00 -1.82486143e-06 -2.69096230e-07  1.22135571e-05
  0.00000000e+00  0.00000000e+00  0.00000000e+00 -7.32132754e-07
  0.00000000e+00  0.00000000e+00  0.00000000e+00  0.00000000e+00
  0.00000000e+00  0.00000000e+00  0.00000000e+00  0.00000000e+00
  0.00000000e+00  0.00000000e+00  0.00000000e+00  0.00000000e+00
  0.00000000e+00  0.00000000e+00  0.00000000e+00  0.00000000e+00
  0.00000000e+00  0.00000000e+00 -1.82486143e-06 -7.32132754e-07
  0.00000000e+00  0.00000000e+00  0.00000000e+00  3.93642886e-06]","[[-0.00025576  0.00839987]
 [-0.00022779 -0.00232346]]",[],0.0,0.0
1787560056.6246397,1.5890918535939489,1.025020169706444,2.110046026217649,"[ 1.60658753e-05 -2.69096230e-07  0.00000000e+00  0.00000000e+00
  0.00000000e+00 -1.82486143e-06 -2.69096230e-07  1.22135571e-05
  0.00000000e+00  0.00000000e+00  0.00000000e+00 -7.32132754e-07
  0.00000000e+00  0.00000000e+00  0.00000000e+00  0.00000000e+00
  0.00000000e+00  0.00000000e+00  0.00000000e+00  0.00000000e+00
  0.00000000e+00  0.00000000e+00  0.00000000e+00  0.00000000e+00
  0.00000000e+00  0.00000000e+00  0.00000000e+00  0.00000000e+00
  0.00000000e+00  0.00000000e+00 -1.82486143e-06 -7.32132754e-07
  0.00000000e+00  0.00000000e+00  0.00000000e+00  3.93642886e-06]","[[-0.00025576  0.00839987]
 [-0.00022779 -0.00232346]]",[],0.0,0.0
1787560056.6756237,1.5890918535939489,1.025020169706444,2.110046026217649,"[ 1.60658753e-05 -2.69096230e-07  0.00000000e+00  0.00000000e+00
  0.00000000e+00 -1.82486143e-06 -2.69096230e-07  1.22135571e-05
  0.00000000e+00  0.00000000e+00  0.00000000e+00 -7.32132754e-07
  0.00000000e+00  0.00000000e+00  0.00000000e+00  0.00000000e+00
  0.00000000e+00  0.00000000e+00  0.00000000e+00  0.00000000e+00
  0.00000000e+00  0.00000000e+00  0.00000000e+00  0.00000000e+00
  0.00000000e+00  0.00000000e+00  0.00000000e+00  0.00000000e+00
  0.00000000e+00  0.00000000e+00 -1.82486143e-06 -7.32132754e-07
  0.00000000e+00  0.00000000e+00  0.00000000e+00  3.93642886e-06]","[[-0.00025576  0.00839987]
 [-0.00022779 -0.00232346]]",[],0.0,0.0
1787560056.7250571,1.5890918535939489,1.025020169706444,2.110046026217649,"[ 1.60658753e-05 -2.69096230e-07  0.00000000e+00  0.00000000e+00
  0.00000000e+00 -1.82486143e-06 -2.69096230e-07  1.22135571e-05
  0.00000000e+00  0.00000000e+00  0.00000000e+00 -7.32132754e-07
  0.00000000e+00  0.00000000e+00  0.00000000e+00  0.00000000e+00
  0.00000000e+00  0.00000000e+00  0.00000000e+00  0.00000000e+00
  0.00000000e+00  0.00000000e+00  0.00000000e+00  0.00000000e+00
  0.00000000e+00  0.00000000e+00  0.00000000e+00  0.00000000e+00
  0.00000000e+00  0.00000000e+00 -1.82486143e-06 -7.32132754e-07
  0.00000000e+00  0.00000000e+00  0.00000000e+00  3.93642886e-06]","[[-0.00025576  0.00839987]
 [-0.00022779 -0.00232346]]",[],0.0,0.0
1787560056.7754107,1.5890918535939489,1.025020169706444,2.110046026217649,"[ 1.60658753e-05 -2.69096230e-07  0.00000000e+00  0.00000000e+00
  0.00000000e+00 -1.82486143e-06 -2.69096230e-07  1.22135571e-05
  0.00000000e+00  0.00000000e+00  0.00000000e+00 -7.32132754e-07
  0.00000000e+00  0.00000000e+00  0.00000000e+00  0.00000000e+00
  0.00000000e+00  0.00000000e+00  0.00000000e+00  0.00000000e+00
  0.00000000e+00  0.00000000e+00  0.00000000e+00  0.00000000e+00
  0.00000000e+00  0.00000000e+00  0.00000000e+00  0.00000000e+00
  0.00000000e+00  0.00000000e+00 -1.82486143e-06 -7.32132754e-07
  0.00000000e+00  0.00000000e+00  0.00000000e+00  3.93642886e-06]","[[-0.00025576  0.00839987]
 [-0.00022779 -0.00232346]]",[],0.0,0.0
1787560056.8245888,1.5890918535939489,1.025020169706444,2.110046026217649,"[ 1.60658753e-05 -2.69096230e-07  0.00000000e+00  0.00000000e+00
  0.00000000e+00 -1.82486143e-06 -2.69096230e-07  1.22135571e-05
  0.00000000e+00  0.00000000e+00  0.00000000e+00 -7.32132754e-07
  0.00000000e+00  0.00000000e+00  0.00000000e+00  0.00000000e+00
  0.00000000e+00  0.00000000e+00  0.00000000e+00  0.00000000e+00
  0.00000000e+00  0.00000000e+00  0.00000000e+00  0.00000000e+00
  0.00000000e+00  0.00000000e+00  0.00000000e+00  0.00000000e+00
  0.00000000e+00  0.00000000e+00 -1.82486143e-06 -7.32132754e-07
  0.00000000e+00  0.00000000e+00  0.00000000e+00  3.93642886e-06]","[[-0.00025576  0.00839987]
 [-0.00022779 -0.00232346]]",[],0.0,0.0
1787560056.8829584,1.5890918535939489,1.025020169706444,2.110046026217649,"[ 1.60658753e-05 -2.69096230e-07  0.00000000e+00  0.00000000e+00
  0.00000000e+00 -1.82486143e-06 -2.69096230e-07  1.22135571e-05
  0.00000000e+00  0.00000000e+00  0.00000000e+00 -7.32132754e-07
  0.00000000e+00  0.00000000e+00  0.00000000e+00  0.00000000e+00
  0.00000000e+00  0.00000000e+00  0.00000000e+00  0.00000000e+00
  0.00000000e+00  0.00000000e+00  0.00000000e+00  0.00000000e+00
  0.00000000e+00  0.00000000e+00  0.00000000e+00  0.00000000e+00
  0.00000000e+00  0.00000000e+00 -1.82486143e-06 -7.32132754e-07
  0.00000000e+00  0.00000000e+00  0.00000000e+00  3.93642886e-06]","[[-0.00025576  0.00839987]
 [-0.00022779 -0.00232346]]",[],0.0,0.0
1787560056.9257755,1.5890918535939489,1.025020169706444,2.110046026217649,"[ 1.60658753e-05 -2.69096230e-07  0.00000000e+00  0.00000000e+00
  0.00000000e+00 -1.82486143e-06 -2.69096230e-07  1.22135571e-05
  0.00000000e+00  0.00000000e+00  0.00000000e+00 -7.32132754e-07
  0.00000000e+00  0.00000000e+00  0.00000000e+00  0.00000000e+00
  0.00000000e+00  0.00000000e+00  0.00000000e+00  0.00000000e+00
  0.00000000e+00  0.00000000e+00  0.00000000e+00  0.00000000e+00
  0.00000000e+00  0.00000000e+00  0.00000000e+00  0.00000000e+00
  0.00000000e+00  0.00000000e+00 -1.82486143e-06 -7.32132754e-07
  0.00000000e+00  0.00000000e+00  0.00000000e+00  3.93642886e-06]","[[-0.00025576  0.00839987]
 [-0.00022779 -0.00232346]]",[],0.0,0.0
1787560056.974422,1.5890918535939489,1.025020169706444,2.110046026217649,"[ 1.60658753e-05 -2.69096230e-07  0.00000000e+00  0.00000000e+00
  0.00000000e+00 -1.82486143e-06 -2.69096230e-07  1.22135571e-05
  0.00000000e+00  0.00000000e+00  0.00000000e+00 -7.32132754e-07
  0.00000000e+00  0.00000000e+00  0.00000000e+00  0.00000000e+00
  0.00000000e+00  0.00000000e+00  0.00000000e+00  0.00000000e+00
  0.00000000e+00  0.00000000e+00  0.00000000e+00  0.00000000e+00
  0.00000000e+00  0.00000000e+00  0.00000000e+00  0.00000000e+00
  0.00000000e+00  0.00000000e+00 -1.82486143e-06 -7.32132754e-07
  0.00000000e+00  0.00000000e+00  0.00000000e+00  3.93642886e-06]","[[-0.00025576  0.00839987]
 [-0.00022779 -0.00232346]]",[],0.0,0.0
1787560057.0275357,1.5890918535939489,1.025020169706444,2.110046026217649,"[ 1.60658753e-05 -2.69096230e-07  0.00000000e+00  0.00000000e+00
  0.00000000e+00 -1.82486143e-06 -2.69096230e-07  1.22135571e-05
  0.00000000e+00  0.00000000e+00  0.00000000e+00 -7.32132754e-07
  0.00000000e+00  0.00000000e+00  0.00000000e+00  0.00000000e+00
  0.00000000e+00  0.00000000e+00  0.00000000e+00  0.00000000e+00
  0.00000000e+00  0.00000000e+00  0.00000000e+00  0.00000000e+00
  0.00000000e+00  0.00000000e+00  0.00000000e+00  0.00000000e+00
  0.00000000e+00  0.00000000e+00 -1.82486143e-06 -7.32132754e-07
  0.00000000e+00  0.00000000e+00  0.00000000e+00  3.93642886e-06]","[[-0.00025576  0.00839987]
 [-0.00022779 -0.00232346]]",[],0.0,0.0
1787560057.0739505,1.5890918535939489,1.025020169706444,2.110046026217649,"[ 1.60658753e-05 -2.69096230e-07  0.00000000e+00  0.00000000e+00
  0.00000000e+00 -1.82486143e-06 -2.69096230e-07  1.22135571e-05
  0.00000000e+00  0.00000000e+00  0.00000000e+00 -7.32132754e-07
  0.00000000e+00  0.00000000e+00  0.00000000e+00  0.00000000e+00
  0.00000000e+00  0.00000000e+00  0.00000000e+00  0.00000000e+00
  0.00000000e+00  0.00000000e+00  0.00000000e+00  0.00000000e+00
  0.00000000e+00  0.00000000e+00  0.00000000e+00  0.00000000e+00
  0.00000000e+00  0.00000000e+00 -1.82486143e-06 -7.32132754e-07
  0.00000000e+00  0.00000000e+00  0.00000000e+00  3.93642886e-06]","[[-0.00025576  0.00839987]
 [-0.00022779 -0.00232346]]",[],0.0,0.0
1787560057.1327004,1.5890918535939489,1.025020169706444,2.110046026217649,"[ 1.60658753e-05 -2.69096230e-07  0.00000000e+00  0.00000000e+00
  0.00000000e+00 -1.82486143e-06 -2.69096230e-07  1.22135571e-05
  0.00000000e+00  0.00000000e+00  0.00000000e+00 -7.32132754e-07
  0.00000000e+00  0.00000000e+00  0.00000000e+00  0.00000000e+00
  0.00000000e+00  0.00000000e+00  0.00000000e+00  0.00000000e+00
  0.00000000e+00  0.00000000e+00  0.00000000e+00  0.00000000e+00
  0.00000000e+00  0.00000000e+00  0.00000000e+00  0.00000000e+00
  0.00000000e+00  0.00000000e+00 -1.82486143e-06 -7.32132754e-07
  0.00000000e+00  0.00000000e+00  0.00000000e+00  3.93642886e-06]","[[-0.00025576  0.00839987]
 [-0.00022779 -0.00232346]]",[],0.0,0.0
1787560057.175242,1.5890918535939489,1.025020169706444,2.110046026217649,"[ 1.60658753e-05 -2.69096230e-07  0.00000000e+00  0.00000000e+00
  0.00000000e+00 -1.82486143e-06 -2.69096230e-07  1.22135571e-05
  0.00000000e+00  0.00000000e+00  0.00000000e+00 -7.32132754e-07
  0.00000000e+00  0.00000000e+00  0.00000000e+00  0.00000000e+00
  0.00000000e+00  0.00000000e+00  0.00000000e+00  0.00000000e+00
  0.00000000e+00  0.00000000e+00  0.00000000e+00  0.00000000e+00
  0.00000000e+00  0.00000000e+00  0.00000000e+00  0.00000000e+00
  0.00000000e+00  0.00000000e+00 -1.82486143e-06 -7.32132754e-07
  0.00000000e+00  0.00000000e+00  0.00000000e+00  3.93642886e-06]","[[-0.00025576  0.00839987]
 [-0.00022779 -0.00232346]]",[],0.0,0.0
1787560057.2245836,1.5890918535939489,1.025020169706444,2.110046026217649,"[ 1.60658753e-05 -2.69096230e-07  0.00000000e+00  0.00000000e+00
  0.00000000e+00 -1.82486143e-06 -2.69096230e-07  1.22135571e-05
  0.00000000e+00  0.00000000e+00  0.00000000e+00 -7.32132754e-07
  0.00000000e+00  0.00000000e+00  0.00000000e+00  0.00000000e+00
  0.00000000e+00  0.00000000e+00  0.00000000e+00  0.00000000e+00
  0.00000000e+00  0.00000000e+00  0.00000000e+00  0.00000000e+00
  0.00000000e+00  0.00000000e+00  0.00000000e+00  0.00000000e+00
  0.00000000e+00  0.00000000e+00 -1.82486143e-06 -7.32132754e-07
  0.00000000e+00  0.00000000e+00  0.00000000e+00  3.93642886e-06]","[[-0.00025576  0.00839987]
 [-0.00022779 -0.00232346]]",[],0.0,0.0
1787560057.2789412,1.5890918535939489,1.025020169706444,2.110046026217649,"[ 1.60658753e-05 -2.69096230e-07  0.00000000e+00  0.00000000e+00
  0.00000000e+00 -1.82486143e-06 -2.69096230e-07  1.22135571e-05
  0.00000000e+00  0.00000000e+00  0.00000000e+00 -7.32132754e-07
  0.00000000e+00  0.00000000e+00  0.00000000e+00  0.00000000e+00
  0.00000000e+00  0.00000000e+00  0.00000000e+00  0.00000000e+00
  0.00000000e+00  0.00000000e+00  0.00000000e+00  0.00000000e+00
  0.00000000e+00  0.00000000e+00  0.00000000e+00  0.00000000e+00
  0.00000000e+00  0.00000000e+00 -1.82486143e-06 -7.32132754e-07
  0.00000000e+00  0.00000000e+00  0.00000000e+00  3.93642886e-06]","[[-0.00025576  0.00839987]
 [-0.00022779 -0.00232346]]",[],0.0,0.0
1787560057.3241692,1.5890918535939489,1.025020169706444,2.110046026217649,"[ 1.60658753e-05 -2.69096230e-07  0.00000000e+00  0.00000000e+00
  0.00000000e+00 -1.82486143e-06 -2.69096230e-07  1.22135571e-05
  0.00000000e+00  0.00000000e+00  0.00000000e+00 -7.32132754e-07
  0.00000000e+00  0.00000000e+00  0.00000000e+00  0.00000000e+00
  0.00000000e+00  0.00000000e+00  0.00000000e+00  0.00000000e+00
  0.00000000e+00  0.00000000e+00  0.00000000e+00  0.00000000e+00
  0.00000000e+00  0.00000000e+00  0.00000000e+00  0.00000000e+00
  0.00000000e+00  0.00000000e+00 -1.82486143e-06 -7.32132754e-07
  0.00000000e+00  0.00000000e+00  0.00000000e+00  3.93642886e-06]","[[-0.00025576  0.00839987]
 [-0.00022779 -0.00232346]]",[],0.0,0.0
1787560057.3809521,1.5890918535939489,1.025020169706444,2.110046026217649,"[ 1.60658753e-05 -2.69096230e-07  0.00000000e+00  0.00000000e+00
  0.00000000e+00 -1.82486143e-06 -2.69096230e-07  1.22135571e-05
  0.00000000e+00  0.00000000e+00  0.00000000e+00 -7.32132754e-07
  0.00000000e+00  0.00000000e+00  0.00000000e+00  0.00000000e+00
  0.00000000e+00  0.00000000e+00  0.00000000e+00  0.00000000e+00
  0.00000000e+00  0.00000000e+00  0.00000000e+00  0.00000000e+00
  0.00000000e+00  0.00000000e+00  0.00000000e+00  0.00000000e+00
  0.00000000e+00  0.00000000e+00 -1.82486143e-06 -7.32132754e-07
  0.00000000e+00  0.00000000e+00  0.00000000e+00  3.93642886e-06]","[[-0.00025576  0.00839987]
 [-0.00022779 -0.00232346]]",[],0.0,0.0
1787560057.4249144,1.5930754350979441,1.0199210121978721,2.16362948845995,"[ 1.30324275e-05 -2.39107642e-07  0.00000000e+00  0.00000000e+00
  0.00000000e+00 -1.37905218e-06 -2.39107642e-07  9.89200879e-06
  0.00000000e+00  0.00000000e+00  0.00000000e+00 -7.99034080e-07
  0.00000000e+00  0.00000000e+00  0.00000000e+00  0.00000000e+00
  0.00000000e+00  0.00000000e+00  0.00000000e+00  0.00000000e+00
  0.00000000e+00  0.00000000e+00  0.00000000e+00  0.00000000e+00
  0.00000000e+00  0.00000000e+00  0.00000000e+00  0.00000000e+00
  0.00000000e+00  0.00000000e+00 -1.37905218e-06 -7.99034080e-07
  0.00000000e+00  0.00000000e+00  0.00000000e+00  4.10673029e-06]","[[-0.00019166  0.00989434]
 [-0.0001937  -0.00312342]]",[],0.0,0.0
1787560057.4751356,1.5930754350979441,1.0199210121978721,2.16362948845995,"[ 1.30324275e-05 -2.39107642e-07  0.00000000e+00  0.00000000e+00
  0.00000000e+00 -1.37905218e-06 -2.39107642e-07  9.89200879e-06
  0.00000000e+00  0.00000000e+00  0.00000000e+00 -7.99034080e-07
  0.00000000e+00  0.00000000e+00  0.00000000e+00  0.00000000e+00
  0.00000000e+00  0.00000000e+00  0.00000000e+00  0.00000000e+00
  0.00000000e+00  0.00000000e+00  0.00000000e+00  0.00000000e+00
  0.00000000e+00  0.00000000e+00  0.00000000e+00  0.00000000e+00
  0.00000000e+00  0.00000000e+00 -1.37905218e-06 -7.99034080e-07
  0.00000000e+00  0.00000000e+00  0.00000000e+00  4.10673029e-06]","[[-0.00019166  0.00989434]
 [-0.0001937  -0.00312342]]",[],0.0,0.0
1787560057.529972,1.5930754350979441,1.0199210121978721,2.16362948845995,"[ 1.30324275e-05 -2.39107642e-07  0.00000000e+00  0.00000000e+00
  0.00000000e+00 -1.37905218e-06 -2.39107642e-07  9.89200879e-06
  0.00000000e+00  0.00000000e+00  0.00000000e+00 -7.99034080e-07
  0.00000000e+00  0.00000000e+00  0.00000000e+00  0.00000000e+00
  0.00000000e+00  0.00000000e+00  0.00000000e+00  0.00000000e+00
  0.00000000e+00  0.00000000e+00  0.00000000e+00  0.00000000e+00
  0.00000000e+00  0.00000000e+00  0.00000000e+00  0.00000000e+00
  0.00000000e+00  0.00000000e+00 -1.37905218e-06 -7.99034080e-07
  0.00000000e+00  0.00000000e+00  0.00000000e+00  4.10673029e-06]","[[-0.00019166  0.00989434]
 [-0.0001937  -0.00312342]]",[],0.0,0.0
1787560057.5778403,1.5930754350979441,1.0199210121978721,2.16362948845995,"[ 1.30324275e-05 -2.39107642e-07  0.00000000e+00  0.00000000e+00
  0.00000000e+00 -1.37905218e-06 -2.39107642e-07  9.89200879e-06
  0.00000000e+00  0.00000000e+00  0.00000000e+00 -7.99034080e-07
  0.00000000e+00  0.00000000e+00  0.00000000e+00  0.00000000e+00
  0.00000000e+00  0.00000000e+00  0.00000000e+00  0.00000000e+00
  0.00000000e+00  0.00000000e+00  0.00000000e+00  0.00000000e+00
  0.00000000e+00  0.00000000e+00  0.00000000e+00  0.00000000e+00
  0.00000000e+00  0.00000000e+00 -1.37905218e-06 -7.99034080e-07
  0.00000000e+00  0.00000000e+00  0.00000000e+00  4.10673029e-06]","[[-0.00019166  0.00989434]
 [-0.0001937  -0.00312342]]",[],0.0,0.0
1787560057.6255953,1.5930754350979441,1.0199210121978721,2.16362948845995,"[ 1.30324275e-05 -2.39107642e-07  0.00000000e+00  0.00000000e+00
  0.00000000e+00 -1.37905218e-06 -2.39107642e-07  9.89200879e-06
  0.00000000e+00  0.00000000e+00  0.00000000e+00 -7.99034080e-07
  0.00000000e+00  0.00000000e+00  0.00000000e+00  0.00000000e+00
  0.00000000e+00  0.00000000e+00  0.00000000e+00  0.00000000e+00
  0.00000000e+00  0.00000000e+00  0.00000000e+00  0.00000000e+00
  0.00000000e+00  0.00000000e+00  0.00000000e+00  0.00000000e+00
  0.00000000e+00  0.00000000e+00 -1.37905218e-06 -7.99034080e-07
  0.00000000e+00  0.00000000e+00  0.00000000e+00  4.10673029e-06]","[[-0.00019166  0.00989434]
 [-0.0001937  -0.00312342]]",[],0.0,0.0
1787560057.678359,1.5930754350979441,1.0199210121978721,2.16362948845995,"[ 1.30324275e-05 -2.39107642e-07  0.00000000e+00  0.00000000e+00
  0.00000000e+00 -1.37905218e-06 -2.39107642e-07  9.89200879e-06
  0.00000000e+00  0.00000000e+00  0.00000000e+00 -7.99034080e-07
  0.00000000e+00  0.00000000e+00  0.00000000e+00  0.00000000e+00
  0.00000000e+00  0.00000000e+00  0.00000000e+00  0.00000000e+00
  0.00000000e+00  0.00000000e+00  0.00000000e+00  0.00000000e+00
  0.00000000e+00  0.00000000e+00  0.00000000e+00  0.00000000e+00
  0.00000000e+00  0.00000000e+00 -1.37905218e-06 -7.99034080e-07
  0.00000000e+00  0.00000000e+00  0.00000000e+00  4.10673029e-06]","[[-0.00019166  0.00989434]
 [-0.0001937  -0.00312342]]",[],0.0,0.0
1787560057.7241902,1.5930754350979441,1.0199210121978721,2.16362948845995,"[ 1.30324275e-05 -2.39107642e-07  0.00000000e+00  0.00000000e+00
  0.00000000e+00 -1.37905218e-06 -2.39107642e-07  9.89200879e-06
  0.00000000e+00  0.00000000e+00  0.00000000e+00 -7.99034080e-07
  0.00000000e+00  0.00000000e+00  0.00000000e+00  0.00000000e+00
  0.00000000e+00  0.00000000e+00  0.00000000e+00  0.00000000e+00
  0.00000000e+00  0.00000000e+00  0.00000000e+00  0.00000000e+00
  0.00000000e+00  0.00000000e+00  0.00000000e+00  0.00000000e+00
  0.00000000e+00  0.00000000e+00 -1.37905218e-06 -7.99034080e-07
  0.00000000e+00  0.00000000e+00  0.00000000e+00  4.10673029e-06]","[[-0.00019166  0.00989434]
 [-0.0001937  -0.00312342]]",[],0.0,0.0
1787560057.7777183,1.5930754350979441,1.0199210121978721,2.16362948845995,"[ 1.30324275e-05 -2.39107642e-07  0.00000000e+00  0.00000000e+00
  0.00000000e+00 -1.37905218e-06 -2.39107642e-07  9.89200879e-06
  0.00000000e+00  0.00000000e+00  0.00000000e+00 -7.99034080e-07
  0.00000000e+00  0.00000000e+00  0.00000000e+00  0.00000000e+00
  0.00000000e+00  0.00000000e+00  0.00000000e+00  0.00000000e+00
  0.00000000e+00  0.00000000e+00  0.00000000e+00  0.00000000e+00
  0.00000000e+00  0.00000000e+00  0.00000000e+00  0.00000000e+00
  0.00000000e+00  0.00000000e+00 -1.37905218e-06 -7.99034080e-07
  0.00000000e+00  0.00000000e+00  0.00000000e+00  4.10673029e-06]","[[-0.00019166  0.00989434]
 [-0.0001937  -0.00312342]]",[],0.0,0.0
1787560057.8347206,1.5930754350979441,1.0199210121978721,2.16362948845995,"[ 1.30324275e-05 -2.39107642e-07  0.00000000e+00  0.00000000e+00
  0.00000000e+00 -1.37905218e-06 -2.39107642e-07  9.89200879e-06
  0.00000000e+00  0.00000000e+00  0.00000000e+00 -7.99034080e-07
  0.00000000e+00  0.00000000e+00  0.00000000e+00  0.00000000e+00
  0.00000000e+00  0.00000000e+00  0.00000000e+00  0.00000000e+00
  0.00000000e+00  0.00000000e+00  0.00000000e+00  0.00000000e+00
  0.00000000e+00  0.00000000e+00  0.00000000e+00  0.00000000e+00
  0.00000000e+00  0.00000000e+00 -1.37905218e-06 -7.99034080e-07
  0.00000000e+00  0.00000000e+00  0.00000000e+00  4.10673029e-06]","[[-0.00019166  0.00989434]
 [-0.0001937  -0.00312342]]",[],0.0,0.0
1787560057.8791451,1.5930754350979441,1.0199210121978721,2.16362948845995,"[ 1.30324275e-05 -2.39107642e-07  0.00000000e+00  0.00000000e+00
  0.00000000e+00 -1.37905218e-06 -2.39107642e-07  9.89200879e-06
  0.00000000e+00  0.00000000e+00  0.00000000e+00 -7.99034080e-07
  0.00000000e+00  0.00000000e+00  0.00000000e+00  0.00000000e+00
  0.00000000e+00  0.00000000e+00  0.00000000e+00  0.00000000e+00
  0.00000000e+00  0.00000000e+00  0.00000000e+00  0.00000000e+00
  0.00000000e+00  0.00000000e+00  0.00000000e+00  0.00000000e+00
  0.00000000e+00  0.00000000e+00 -1.37905218e-06 -7.99034080e-07
  0.00000000e+00  0.00000000e+00  0.00000000e+00  4.10673029e-06]","[[-0.00019166  0.00989434]
 [-0.0001937  -0.00312342]]",[],0.0,0.0
1787560057.9274604,1.5930754350979441,1.0199210121978721,2.16362948845995,"[ 1.30324275e-05 -2.39107642e-07  0.00000000e+00  0.00000000e+00
  0.00000000e+00 -1.37905218e-06 -2.39107642e-07  9.89200879e-06
  0.00000000e+00  0.00000000e+00  0.00000000e+00 -7.99034080e-07
  0.00000000e+00  0.00000000e+00  0.00000000e+00  0.00000000e+00
  0.00000000e+00  0.00000000e+00  0.00000000e+00  0.00000000e+00
  0.00000000e+00  0.00000000e+00  0.00000000e+00  0.00000000e+00
  0.00000000e+00  0.00000000e+00  0.00000000e+00  0.00000000e+00
  0.00000000e+00  0.00000000e+00 -1.37905218e-06 -7.99034080e-07
  0.00000000e+00  0.00000000e+00  0.00000000e+00  4.10673029e-06]","[[-0.00019166  0.00989434]
 [-0.0001937  -0.00312342]]",[],0.0,0.0
1787560057.9755073,1.5930754350979441,1.0199210121978721,2.16362948845995,"[ 1.30324275e-05 -2.39107642e-07  0.00000000e+00  0.00000000e+00
  0.00000000e+00 -1.37905218e-06 -2.39107642e-07  9.89200879e-06
  0.00000000e+00  0.00000000e+00  0.00000000e+00 -7.99034080e-07
  0.00000000e+00  0.00000000e+00  0.00000000e+00  0.00000000e+00
  0.00000000e+00  0.00000000e+00  0.00000000e+00  0.00000000e+00
  0.00000000e+00  0.00000000e+00  0.00000000e+00  0.00000000e+00
  0.00000000e+00  0.00000000e+00  0.00000000e+00  0.00000000e+00
  0.00000000e+00  0.00000000e+00 -1.37905218e-06 -7.99034080e-07
  0.00000000e+00  0.00000000e+00  0.00000000e+00  4.10673029e-06]","[[-0.00019166  0.00989434]
 [-0.0001937  -0.00312342]]",[],0.0,0.0
1787560058.0288272,1.5930754350979441,1.0199210121978721,2.16362948845995,"[ 1.30324275e-05 -2.39107642e-07  0.00000000e+00  0.00000000e+00
  0.00000000e+00 -1.37905218e-06 -2.39107642e-07  9.89200879e-06
  0.00000000e+00  0.00000000e+00  0.00000000e+00 -7.99034080e-07
  0.00000000e+00  0.00000000e+00  0.00000000e+00  0.00000000e+00
  0.00000000e+00  0.00000000e+00  0.00000000e+00  0.00000000e+00
  0.00000000e+00  0.00000000e+00  0.00000000e+00  0.00000000e+00
  0.00000000e+00  0.00000000e+00  0.00000000e+00  0.00000000e+00
  0.00000000e+00  0.00000000e+00 -1.37905218e-06 -7.99034080e-07
  0.00000000e+00  0.00000000e+00  0.00000000e+00  4.10673029e-06]","[[-0.00019166  0.00989434]
 [-0.0001937  -0.00312342]]",[],0.0,0.0
1787560058.0832765,1.5930754350979441,1.0199210121978721,2.16362948845995,"[ 1.30324275e-05 -2.39107642e-07  0.00000000e+00  0.00000000e+00
  0.00000000e+00 -1.37905218e-06 -2.39107642e-07  9.89200879e-06
  0.00000000e+00  0.00000000e+00  0.00000000e+00 -7.99034080e-07
  0.00000000e+00  0.00000000e+00  0.00000000e+00  0.00000000e+00
  0.00000000e+00  0.00000000e+00  0.00000000e+00  0.00000000e+00
  0.00000000e+00  0.00000000e+00  0.00000000e+00  0.00000000e+00
  0.00000000e+00  0.00000000e+00  0.00000000e+00  0.00000000e+00
  0.00000000e+00  0.00000000e+00 -1.37905218e-06 -7.99034080e-07
  0.00000000e+00  0.00000000e+00  0.00000000e+00  4.10673029e-06]","[[-0.00019166  0.00989434]
 [-0.0001937  -0.00312342]]",[],0.0,0.0
1787560058.124045,1.5930754350979441,1.0199210121978721,2.16362948845995,"[ 1.30324275e-05 -2.39107642e-07  0.00000000e+00  0.00000000e+00
  0.00000000e+00 -1.37905218e-06 -2.39107642e-07  9.89200879e-06
  0.00000000e+00  0.00000000e+00  0.00000000e+00 -7.99034080e-07
  0.00000000e+00  0.00000000e+00  0.00000000e+00  0.00000000e+00
  0.00000000e+00  0.00000000e+00  0.00000000e+00  0.00000000e+00
  0.00000000e+00  0.00000000e+00  0.00000000e+00  0.00000000e+00
  0.00000000e+00  0.00000000e+00  0.00000000e+00  0.00000000e+00
  0.00000000e+00  0.00000000e+00 -1.37905218e-06 -7.99034080e-07
  0.00000000e+00  0.00000000e+00  0.00000000e+00  4.10673029e-06]","[[-0.00019166  0.00989434]
 [-0.0001937  -0.00312342]]",[],0.0,0.0
1787560058.1747413,1.5930754350979441,1.0199210121978721,2.16362948845995,"[ 1.30324275e-05 -2.39107642e-07  0.00000000e+00  0.00000000e+00
  0.00000000e+00 -1.37905218e-06 -2.39107642e-07  9.89200879e-06
  0.00000000e+00  0.00000000e+00  0.00000000e+00 -7.99034080e-07
  0.00000000e+00  0.00000000e+00  0.00000000e+00  0.00000000e+00
  0.00000000e+00  0.00000000e+00  0.00000000e+00  0.00000000e+00
  0.00000000e+00  0.00000000e+00  0.00000000e+00  0.00000000e+00
  0.00000000e+00  0.00000000e+00  0.00000000e+00  0.00000000e+00
  0.00000000e+00  0.00000000e+00 -1.37905218e-06 -7.99034080e-07
  0.00000000e+00  0.00000000e+00  0.00000000e+00  4.10673029e-06]","[[-0.00019166  0.00989434]
 [-0.0001937  -0.00312342]]",[],0.0,0.0
1787560058.2242558,1.5930754350979441,1.0199210121978721,2.16362948845995,"[ 1.30324275e-05 -2.39107642e-07  0.00000000e+00  0.00000000e+00
  0.00000000e+00 -1.37905218e-06 -2.39107642e-07  9.89200879e-06
  0.00000000e+00  0.00000000e+00  0.00000000e+00 -7.99034080e-07
  0.00000000e+00  0.00000000e+00  0.00000000e+00  0.00000000e+00
  0.00000000e+00  0.00000000e+00  0.00000000e+00  0.00000000e+00
  0.00000000e+00  0.00000000e+00  0.00000000e+00  0.00000000e+00
  0.00000000e+00  0.00000000e+00  0.00000000e+00  0.00000000e+00
  0.00000000e+00  0.00000000e+00 -1.37905218e-06 -7.99034080e-07
  0.00000000e+00  0.00000000e+00  0.00000000e+00  4.10673029e-06]","[[-0.00019166  0.00989434]
 [-0.0001937  -0.00312342]]",[],0.0,0.0
1787560058.2762425,1.5930754350979441,1.0199210121978721,2.16362948845995,"[ 1.30324275e-05 -2.39107642e-07  0.00000000e+00  0.00000000e+00
  0.00000000e+00 -1.37905218e-06 -2.39107642e-07  9.89200879e-06
  0.00000000e+00  0.00000000e+00  0.00000000e+00 -7.99034080e-07
  0.00000000e+00  0.00000000e+00  0.00000000e+00  0.00000000e+00
  0.00000000e+00  0.00000000e+00  0.00000000e+00  0.00000000e+00
  0.00000000e+00  0.00000000e+00  0.00000000e+00  0.00000000e+00
  0.00000000e+00  0.00000000e+00  0.00000000e+00  0.00000000e+00
  0.00000000e+00  0.00000000e+00 -1.37905218e-06 -7.99034080e-07
  0.00000000e+00  0.00000000e+00  0.00000000e+00  4.10673029e-06]","[[-0.00019166  0.00989434]
 [-0.0001937  -0.00312342]]",[],0.0,0.0
1787560058.334799,1.6055087830118455,1.0128947531288233,2.2125574644359975,"[ 1.10059142e-05 -2.57424569e-07  0.00000000e+00  0.00000000e+00
  0.00000000e+00 -1.01175622e-06 -2.57424569e-07  8.40450021e-06
  0.00000000e+00  0.00000000e+00  0.00000000e+00 -4.84011204e-07
  0.00000000e+00  0.00000000e+00  0.00000000e+00  0.00000000e+00
  0.00000000e+00  0.00000000e+00  0.00000000e+00  0.00000000e+00
  0.00000000e+00  0.00000000e+00  0.00000000e+00  0.00000000e+00
  0.00000000e+00  0.00000000e+00  0.00000000e+00  0.00000000e+00
  0.00000000e+00  0.00000000e+00 -1.01175622e-06 -4.84011204e-07
  0.00000000e+00  0.00000000e+00  0.00000000e+00  3.92226253e-06]","[[-0.00016014  0.00813505]
 [-0.00016411 -0.00299162]]",[],0.0,0.0
1787560058.3743994,1.6055087830118455,1.0128947531288233,2.2125574644359975,"[ 1.10059142e-05 -2.57424569e-07  0.00000000e+00  0.00000000e+00
  0.00000000e+00 -1.01175622e-06 -2.57424569e-07  8.40450021e-06
  0.00000000e+00  0.00000000e+00  0.00000000e+00 -4.84011204e-07
  0.00000000e+00  0.00000000e+00  0.00000000e+00  0.00000000e+00
  0.00000000e+00  0.00000000e+00  0.00000000e+00  0.00000000e+00
  0.00000000e+00  0.00000000e+00  0.00000000e+00  0.00000000e+00
  0.00000000e+00  0.00000000e+00  0.00000000e+00  0.00000000e+00
  0.00000000e+00  0.00000000e+00 -1.01175622e-06 -4.84011204e-07
  0.00000000e+00  0.00000000e+00  0.00000000e+00  3.92226253e-06]","[[-0.00016014  0.00813505]
 [-0.00016411 -0.00299162]]",[],0.0,0.0
1787560058.4264119,1.6055087830118455,1.0128947531288233,2.2125574644359975,"[ 1.10059142e-05 -2.57424569e-07  0.00000000e+00  0.00000000e+00
  0.00000000e+00 -1.01175622e-06 -2.57424569e-07  8.40450021e-06
  0.00000000e+00  0.00000000e+00  0.00000000e+00 -4.84011204e-07
  0.00000000e+00  0.00000000e+00  0.00000000e+00  0.00000000e+00
  0.00000000e+00  0.00000000e+00  0.00000000e+00  0.00000000e+00
  0.00000000e+00  0.00000000e+00  0.00000000e+00  0.00000000e+00
  0.00000000e+00  0.00000000e+00  0.00000000e+00  0.00000000e+00
  0.00000000e+00  0.00000000e+00 -1.01175622e-06 -4.84011204e-07
  0.00000000e+00  0.00000000e+00  0.00000000e+00  3.92226253e-06]","[[-0.00016014  0.00813505]
 [-0.00016411 -0.00299162]]",[],0.0,0.0
1787560058.475242,1.6055087830118455,1.0128947531288233,2.2125574644359975,"[ 1.10059142e-05 -2.57424569e-07  0.00000000e+00  0.00000000e+00
  0.00000000e+00 -1.01175622e-06 -2.57424569e-07  8.40450021e-06
  0.00000000e+00  0.00000000e+00  0.00000000e+00 -4.84011204e-07
  0.00000000e+00  0.00000000e+00  0.00000000e+00  0.00000000e+00
  0.00000000e+00  0.00000000e+00  0.00000000e+00  0.00000000e+00
  0.00000000e+00  0.00000000e+00  0.00000000e+00  0.00000000e+00
  0.00000000e+00  0.00000000e+00  0.00000000e+00  0.00000000e+00
  0.00000000e+00  0.00000000e+00 -1.01175622e-06 -4.84011204e-07
  0.00000000e+00  0.00000000e+00  0.00000000e+00  3.92226253e-06]","[[-0.00016014  0.00813505]
 [-0.00016411 -0.00299162]]",[],0.0,0.0
1787560058.5331366,1.6055087830118455,1.0128947531288233,2.2125574644359975,"[ 1.10059142e-05 -2.57424569e-07  0.00000000e+00  0.00000000e+00
  0.00000000e+00 -1.01175622e-06 -2.57424569e-07  8.40450021e-06
  0.00000000e+00  0.00000000e+00  0.00000000e+00 -4.84011204e-07
  0.00000000e+00  0.00000000e+00  0.00000000e+00  0.00000000e+00
  0.00000000e+00  0.00000000e+00  0.00000000e+00  0.00000000e+00
  0.00000000e+00  0.00000000e+00  0.00000000e+00  0.00000000e+00
  0.00000000e+00  0.00000000e+00  0.00000000e+00  0.00000000e+00
  0.00000000e+00  0.00000000e+00 -1.01175622e-06 -4.84011204e-07
  0.00000000e+00  0.00000000e+00  0.00000000e+00  3.92226253e-06]","[[-0.00016014  0.00813505]
 [-0.00016411 -0.00299162]]",[],0.0,0.0
1787560058.574223,1.6055087830118455,1.0128947531288233,2.2125574644359975,"[ 1.10059142e-05 -2.57424569e-07  0.00000000e+00  0.00000000e+00
  0.00000000e+00 -1.01175622e-06 -2.57424569e-07  8.40450021e-06
  0.00000000e+00  0.00000000e+00  0.00000000e+00 -4.84011204e-07
  0.00000000e+00  0.00000000e+00  0.00000000e+00  0.00000000e+00
  0.00000000e+00  0.00000000e+00  0.00000000e+00  0.00000000e+00
  0.00000000e+00  0.00000000e+00  0.00000000e+00  0.00000000e+00
  0.00000000e+00  0.00000000e+00  0.00000000e+00  0.00000000e+00
  0.00000000e+00  0.00000000e+00 -1.01175622e-06 -4.84011204e-07
  0.00000000e+00  0.00000000e+00  0.00000000e+00  3.92226253e-06]","[[-0.00016014  0.00813505]
 [-0.00016411 -0.00299162]]",[],0.0,0.0
1787560058.6320944,1.6055087830118455,1.0128947531288233,2.2125574644359975,"[ 1.10059142e-05 -2.57424569e-07  0.00000000e+00  0.00000000e+00
  0.00000000e+00 -1.01175622e-06 -2.57424569e-07  8.40450021e-06
  0.00000000e+00  0.00000000e+00  0.00000000e+00 -4.84011204e-07
  0.00000000e+00  0.00000000e+00  0.00000000e+00  0.00000000e+00
  0.00000000e+00  0.00000000e+00  0.00000000e+00  0.00000000e+00
  0.00000000e+00  0.00000000e+00  0.00000000e+00  0.00000000e+00
  0.00000000e+00  0.00000000e+00  0.00000000e+00  0.00000000e+00
  0.00000000e+00  0.00000000e+00 -1.01175622e-06 -4.84011204e-07
  0.00000000e+00  0.00000000e+00  0.00000000e+00  3.92226253e-06]","[[-0.00016014  0.00813505]
 [-0.00016411 -0.00299162]]",[],0.0,0.0
1787560058.6746902,1.6055087830118455,1.0128947531288233,2.2125574644359975,"[ 1.10059142e-05 -2.57424569e-07  0.00000000e+00  0.00000000e+00
  0.00000000e+00 -1.01175622e-06 -2.57424569e-07  8.40450021e-06
  0.00000000e+00  0.00000000e+00  0.00000000e+00 -4.84011204e-07
  0.00000000e+00  0.00000000e+00  0.00000000e+00  0.00000000e+00
  0.00000000e+00  0.00000000e+00  0.00000000e+00  0.00000000e+00
  0.00000000e+00  0.00000000e+00  0.00000000e+00  0.00000000e+00
  0.00000000e+00  0.00000000e+00  0.00000000e+00  0.00000000e+00
  0.00000000e+00  0.00000000e+00 -1.01175622e-06 -4.84011204e-07
  0.00000000e+00  0.00000000e+00  0.00000000e+00  3.92226253e-06]","[[-0.00016014  0.00813505]
 [-0.00016411 -0.00299162]]",[],0.0,0.0
1787560058.728127,1.6055087830118455,1.0128947531288233,2.2125574644359975,"[ 1.10059142e-05 -2.57424569e-07  0.00000000e+00  0.00000000e+00
  0.00000000e+00 -1.01175622e-06 -2.57424569e-07  8.40450021e-06
  0.00000000e+00  0.00000000e+00  0.00000000e+00 -4.84011204e-07
  0.00000000e+00  0.00000000e+00  0.00000000e+00  0.00000000e+00
  0.00000000e+00  0.00000000e+00  0.00000000e+00  0.00000000e+00
  0.00000000e+00  0.00000000e+00  0.00000000e+00  0.00000000e+00
  0.00000000e+00  0.00000000e+00  0.00000000e+00  0.00000000e+00
  0.00000000e+00  0.00000000e+00 -1.01175622e-06 -4.84011204e-07
  0.00000000e+00  0.00000000e+00  0.00000000e+00  3.92226253e-06]","[[-0.00016014  0.00813505]
 [-0.00016411 -0.00299162]]",[],0.0,0.0
1787560058.7740808,1.6055087830118455,1.0128947531288233,2.2125574644359975,"[ 1.10059142e-05 -2.57424569e-07  0.00000000e+00  0.00000000e+00
  0.00000000e+00 -1.01175622e-06 -2.57424569e-07  8.40450021e-06
  0.00000000e+00  0.00000000e+00  0.00000000e+00 -4.84011204e-07
  0.00000000e+00  0.00000000e+00  0.00000000e+00  0.00000000e+00
  0.00000000e+00  0.00000000e+00  0.00000000e+00  0.00000000e+00
  0.00000000e+00  0.00000000e+00  0.00000000e+00  0.00000000e+00
  0.00000000e+00  0.00000000e+00  0.00000000e+00  0.00000000e+00
  0.00000000e+00  0.00000000e+00 -1.01175622e-06 -4.84011204e-07
  0.00000000e+00  0.00000000e+00  0.00000000e+00  3.92226253e-06]","[[-0.00016014  0.00813505]
 [-0.00016411 -0.00299162]]",[],0.0,0.0
1787560058.8243022,1.6055087830118455,1.0128947531288233,2.2125574644359975,"[ 1.10059142e-05 -2.57424569e-07  0.00000000e+00  0.00000000e+00
  0.00000000e+00 -1.01175622e-06 -2.57424569e-07  8.40450021e-06
  0.00000000e+00  0.00000000e+00  0.00000000e+00 -4.84011204e-07
  0.00000000e+00  0.00000000e+00  0.00000000e+00  0.00000000e+00
  0.00000000e+00  0.00000000e+00  0.00000000e+00  0.00000000e+00
  0.00000000e+00  0.00000000e+00  0.00000000e+00  0.00000000e+00
  0.00000000e+00  0.00000000e+00  0.00000000e+00  0.00000000e+00
  0.00000000e+00  0.00000000e+00 -1.01175622e-06 -4.84011204e-07
  0.00000000e+00  0.00000000e+00  0.00000000e+00  3.92226253e-06]","[[-0.00016014  0.00813505]
 [-0.00016411 -0.00299162]]",[],0.0,0.0
1787560058.874451,1.6055087830118455,1.0128947531288233,2.2125574644359975,"[ 1.10059142e-05 -2.57424569e-07  0.00000000e+00  0.00000000e+00
  0.00000000e+00 -1.01175622e-06 -2.57424569e-07  8.40450021e-06
  0.00000000e+00  0.00000000e+00  0.00000000e+00 -4.84011204e-07
  0.00000000e+00  0.00000000e+00  0.00000000e+00  0.00000000e+00
  0.00000000e+00  0.00000000e+00  0.00000000e+00  0.00000000e+00
  0.00000000e+00  0.00000000e+00  0.00000000e+00  0.00000000e+00
  0.00000000e+00  0.00000000e+00  0.00000000e+00  0.00000000e+00
  0.00000000e+00  0.00000000e+00 -1.01175622e-06 -4.84011204e-07
  0.00000000e+00  0.00000000e+00  0.00000000e+00  3.92226253e-06]","[[-0.00016014  0.00813505]
 [-0.00016411 -0.00299162]]",[],0.0,0.0
1787560058.9241793,1.6055087830118455,1.0128947531288233,2.2125574644359975,"[ 1.10059142e-05 -2.57424569e-07  0.00000000e+00  0.00000000e+00
  0.00000000e+00 -1.01175622e-06 -2.57424569e-07  8.40450021e-06
  0.00000000e+00  0.00000000e+00  0.00000000e+00 -4.84011204e-07
  0.00000000e+00  0.00000000e+00  0.00000000e+00  0.00000000e+00
  0.00000000e+00  0.00000000e+00  0.00000000e+00  0.00000000e+00
  0.00000000e+00  0.00000000e+00  0.00000000e+00  0.00000000e+00
  0.00000000e+00  0.00000000e+00  0.00000000e+00  0.00000000e+00
  0.00000000e+00  0.00000000e+00 -1.01175622e-06 -4.84011204e-07
  0.00000000e+00  0.00000000e+00  0.00000000e+00  3.92226253e-06]","[[-0.00016014  0.00813505]
 [-0.00016411 -0.00299162]]",[],0.0,0.0
1787560058.9804552,1.6055087830118455,1.0128947531288233,2.2125574644359975,"[ 1.10059142e-05 -2.57424569e-07  0.00000000e+00  0.00000000e+00
  0.00000000e+00 -1.01175622e-06 -2.57424569e-07  8.40450021e-06
  0.00000000e+00  0.00000000e+00  0.00000000e+00 -4.84011204e-07
  0.00000000e+00  0.00000000e+00  0.00000000e+00  0.00000000e+00
  0.00000000e+00  0.00000000e+00  0.00000000e+00  0.00000000e+00
  0.00000000e+00  0.00000000e+00  0.00000000e+00  0.00000000e+00
  0.00000000e+00  0.00000000e+00  0.00000000e+00  0.00000000e+00
  0.00000000e+00  0.00000000e+00 -1.01175622e-06 -4.84011204e-07
  0.00000000e+00  0.00000000e+00  0.00000000e+00  3.92226253e-06]","[[-0.00016014  0.00813505]
 [-0.00016411 -0.00299162]]",[],0.0,0.0
1787560059.0256658,1.6055087830118455,1.0128947531288233,2.2125574644359975,"[ 1.10059142e-05 -2.57424569e-07  0.00000000e+00  0.00000000e+00
  0.00000000e+00 -1.01175622e-06 -2.57424569e-07  8.40450021e-06
  0.00000000e+00  0.00000000e+00  0.00000000e+00 -4.84011204e-07
  0.00000000e+00  0.00000000e+00  0.00000000e+00  0.00000000e+00
  0.00000000e+00  0.00000000e+00  0.00000000e+00  0.00000000e+00
  0.00000000e+00  0.00000000e+00  0.00000000e+00  0.00000000e+00
  0.00000000e+00  0.00000000e+00  0.00000000e+00  0.00000000e+00
  0.00000000e+00  0.00000000e+00 -1.01175622e-06 -4.84011204e-07
  0.00000000e+00  0.00000000e+00  0.00000000e+00  3.92226253e-06]","[[-0.00016014  0.00813505]
 [-0.00016411 -0.00299162]]",[],0.0,0.0
1787560059.077891,1.6055087830118455,1.0128947531288233,2.2125574644359975,"[ 1.10059142e-05 -2.57424569e-07  0.00000000e+00  0.00000000e+00
  0.00000000e+00 -1.01175622e-06 -2.57424569e-07  8.40450021e-06
  0.00000000e+00  0.00000000e+00  0.00000000e+00 -4.84011204e-07
  0.00000000e+00  0.00000000e+00  0.00000000e+00  0.00000000e+00
  0.00000000e+00  0.00000000e+00  0.00000000e+00  0.00000000e+00
  0.00000000e+00  0.00000000e+00  0.00000000e+00  0.00000000e+00
  0.00000000e+00  0.00000000e+00  0.00000000e+00  0.00000000e+00
  0.00000000e+00  0.00000000e+00 -1.01175622e-06 -4.84011204e-07
  0.00000000e+00  0.00000000e+00  0.00000000e+00  3.92226253e-06]","[[-0.00016014  0.00813505]
 [-0.00016411 -0.00299162]]",[],0.0,0.0
1787560059.1264267,1.6055087830118455,1.0128947531288233,2.2125574644359975,"[ 1.10059142e-05 -2.57424569e-07  0.00000000e+00  0.00000000e+00
  0.00000000e+00 -1.01175622e-06 -2.57424569e-07  8.40450021e-06
  0.00000000e+00  0.00000000e+00  0.00000000e+00 -4.84011204e-07
  0.00000000e+00  0.00000000e+00  0.00000000e+00  0.00000000e+00
  0.00000000e+00  0.00000000e+00  0.00000000e+00  0.00000000e+00
  0.00000000e+00  0.00000000e+00  0.00000000e+00  0.00000000e+00
  0.00000000e+00  0.00000000e+00  0.00000000e+00  0.00000000e+00
  0.00000000e+00  0.00000000e+00 -1.01175622e-06 -4.84011204e-07
  0.00000000e+00  0.00000000e+00  0.00000000e+00  3.92226253e-06]","[[-0.00016014  0.00813505]
 [-0.00016411 -0.00299162]]",[],0.0,0.0
1787560059.1747081,1.6055087830118455,1.0128947531288233,2.2125574644359975,"[ 1.10059142e-05 -2.57424569e-07  0.00000000e+00  0.00000000e+00
  0.00000000e+00 -1.01175622e-06 -2.57424569e-07  8.40450021e-06
  0.00000000e+00  0.00000000e+00  0.00000000e+00 -4.84011204e-07
  0.00000000e+00  0.00000000e+00  0.00000000e+00  0.00000000e+00
  0.00000000e+00  0.00000000e+00  0.00000000e+00  0.00000000e+00
  0.00000000e+00  0.00000000e+00  0.00000000e+00  0.00000000e+00
  0.00000000e+00  0.00000000e+00  0.00000000e+00  0.00000000e+00
  0.00000000e+00  0.00000000e+00 -1.01175622e-06 -4.84011204e-07
  0.00000000e+00  0.00000000e+00  0.00000000e+00  3.92226253e-06]","[[-0.00016014  0.00813505]
 [-0.00016411 -0.00299162]]",[],0.0,0.0
1787560059.2244911,1.6055087830118455,1.0128947531288233,2.2125574644359975,"[ 1.10059142e-05 -2.57424569e-07  0.00000000e+00  0.00000000e+00
  0.00000000e+00 -1.01175622e-06 -2.57424569e-07  8.40450021e-06
  0.00000000e+00  0.00000000e+00  0.00000000e+00 -4.84011204e-07
  0.00000000e+00  0.00000000e+00  0.00000000e+00  0.00000000e+00
  0.00000000e+00  0.00000000e+00  0.00000000e+00  0.00000000e+00
  0.00000000e+00  0.00000000e+00  0.00000000e+00  0.00000000e+00
  0.00000000e+00  0.00000000e+00  0.00000000e+00  0.00000000e+00
  0.00000000e+00  0.00000000e+00 -1.01175622e-06 -4.84011204e-07
  0.00000000e+00  0.00000000e+00  0.00000000e+00  3.92226253e-06]","[[-0.00016014  0.00813505]
 [-0.00016411 -0.00299162]]",[],0.0,0.0
1787560059.2783642,1.6195697260064201,1.008907369900123,2.275762455577361,"[ 9.37510882e-06 -3.14615987e-07  0.00000000e+00  0.00000000e+00
  0.00000000e+00 -8.73418734e-07 -3.14615987e-07  7.19425715e-06
  0.00000000e+00  0.00000000e+00  0.00000000e+00 -4.22868373e-07
  0.00000000e+00  0.00000000e+00  0.00000000e+00  0.00000000e+00
  0.00000000e+00  0.00000000e+00  0.00000000e+00  0.00000000e+00
  0.00000000e+00  0.00000000e+00  0.00000000e+00  0.00000000e+00
  0.00000000e+00  0.00000000e+00  0.00000000e+00  0.00000000e+00
  0.00000000e+00  0.00000000e+00 -8.73418734e-07 -4.22868373e-07
  0.00000000e+00  0.00000000e+00  0.00000000e+00  3.66818985e-06]","[[-0.00013282  0.00704452]
 [-0.00014006 -0.00257773]]",[],0.0,0.0
1787560059.3243597,1.6195697260064201,1.008907369900123,2.275762455577361,"[ 9.37510882e-06 -3.14615987e-07  0.00000000e+00  0.00000000e+00
  0.00000000e+00 -8.73418734e-07 -3.14615987e-07  7.19425715e-06
  0.00000000e+00  0.00000000e+00  0.00000000e+00 -4.22868373e-07
  0.00000000e+00  0.00000000e+00  0.00000000e+00  0.00000000e+00
  0.00000000e+00  0.00000000e+00  0.00000000e+00  0.00000000e+00
  0.00000000e+00  0.00000000e+00  0.00000000e+00  0.00000000e+00
  0.00000000e+00  0.00000000e+00  0.00000000e+00  0.00000000e+00
  0.00000000e+00  0.00000000e+00 -8.73418734e-07 -4.22868373e-07
  0.00000000e+00  0.00000000e+00  0.00000000e+00  3.66818985e-06]","[[-0.00013282  0.00704452]
 [-0.00014006 -0.00257773]]",[],0.0,0.0
1787560059.3744173,1.6195697260064201,1.008907369900123,2.275762455577361,"[ 9.37510882e-06 -3.14615987e-07  0.00000000e+00  0.00000000e+00
  0.00000000e+00 -8.73418734e-07 -3.14615987e-07  7.19425715e-06
  0.00000000e+00  0.00000000e+00  0.00000000e+00 -4.22868373e-07
  0.00000000e+00  0.00000000e+00  0.00000000e+00  0.00000000e+00
  0.00000000e+00  0.00000000e+00  0.00000000e+00  0.00000000e+00
  0.00000000e+00  0.00000000e+00  0.00000000e+00  0.00000000e+00
  0.00000000e+00  0.00000000e+00  0.00000000e+00  0.00000000e+00
  0.00000000e+00  0.00000000e+00 -8.73418734e-07 -4.22868373e-07
  0.00000000e+00  0.00000000e+00  0.00000000e+00  3.66818985e-06]","[[-0.00013282  0.00704452]
 [-0.00014006 -0.00257773]]",[],0.0,0.0
1787560059.4248161,1.6195697260064201,1.008907369900123,2.275762455577361,"[ 9.37510882e-06 -3.14615987e-07  0.00000000e+00  0.00000000e+00
  0.00000000e+00 -8.73418734e-07 -3.14615987e-07  7.19425715e-06
  0.00000000e+00  0.00000000e+00  0.00000000e+00 -4.22868373e-07
  0.00000000e+00  0.00000000e+00  0.00000000e+00  0.00000000e+00
  0.00000000e+00  0.00000000e+00  0.00000000e+00  0.00000000e+00
  0.00000000e+00  0.00000000e+00  0.00000000e+00  0.00000000e+00
  0.00000000e+00  0.00000000e+00  0.00000000e+00  0.00000000e+00
  0.00000000e+00  0.00000000e+00 -8.73418734e-07 -4.22868373e-07
  0.00000000e+00  0.00000000e+00  0.00000000e+00  3.66818985e-06]","[[-0.00013282  0.00704452]
 [-0.00014006 -0.00257773]]",[],0.0,0.0
1787560059.4754035,1.6195697260064201,1.008907369900123,2.275762455577361,"[ 9.37510882e-06 -3.14615987e-07  0.00000000e+00  0.00000000e+00
  0.00000000e+00 -8.73418734e-07 -3.14615987e-07  7.19425715e-06
  0.00000000e+00  0.00000000e+00  0.00000000e+00 -4.22868373e-07
  0.00000000e+00  0.00000000e+00  0.00000000e+00  0.00000000e+00
  0.00000000e+00  0.00000000e+00  0.00000000e+00  0.00000000e+00
  0.00000000e+00  0.00000000e+00  0.00000000e+00  0.00000000e+00
  0.00000000e+00  0.00000000e+00  0.00000000e+00  0.00000000e+00
  0.00000000e+00  0.00000000e+00 -8.73418734e-07 -4.22868373e-07
  0.00000000e+00  0.00000000e+00  0.00000000e+00  3.66818985e-06]","[[-0.00013282  0.00704452]
 [-0.00014006 -0.00257773]]",[],0.0,0.0
1787560059.5370615,1.6195697260064201,1.008907369900123,2.275762455577361,"[ 9.37510882e-06 -3.14615987e-07  0.00000000e+00  0.00000000e+00
  0.00000000e+00 -8.73418734e-07 -3.14615987e-07  7.19425715e-06
  0.00000000e+00  0.00000000e+00  0.00000000e+00 -4.22868373e-07
  0.00000000e+00  0.00000000e+00  0.00000000e+00  0.00000000e+00
  0.00000000e+00  0.00000000e+00  0.00000000e+00  0.00000000e+00
  0.00000000e+00  0.00000000e+00  0.00000000e+00  0.00000000e+00
  0.00000000e+00  0.00000000e+00  0.00000000e+00  0.00000000e+00
  0.00000000e+00  0.00000000e+00 -8.73418734e-07 -4.22868373e-07
  0.00000000e+00  0.00000000e+00  0.00000000e+00  3.66818985e-06]","[[-0.00013282  0.00704452]
 [-0.00014006 -0.00257773]]",[],0.0,0.0
1787560059.5744839,1.6195697260064201,1.008907369900123,2.275762455577361,"[ 9.37510882e-06 -3.14615987e-07  0.00000000e+00  0.00000000e+00
  0.00000000e+00 -8.73418734e-07 -3.14615987e-07  7.19425715e-06
  0.00000000e+00  0.00000000e+00  0.00000000e+00 -4.22868373e-07
  0.00000000e+00  0.00000000e+00  0.00000000e+00  0.00000000e+00
  0.00000000e+00  0.00000000e+00  0.00000000e+00  0.00000000e+00
  0.00000000e+00  0.00000000e+00  0.00000000e+00  0.00000000e+00
  0.00000000e+00  0.00000000e+00  0.00000000e+00  0.00000000e+00
  0.00000000e+00  0.00000000e+00 -8.73418734e-07 -4.22868373e-07
  0.00000000e+00  0.00000000e+00  0.00000000e+00  3.66818985e-06]","[[-0.00013282  0.00704452]
 [-0.00014006 -0.00257773]]",[],0.0,0.0
1787560059.6257522,1.6195697260064201,1.008907369900123,2.275762455577361,"[ 9.37510882e-06 -3.14615987e-07  0.00000000e+00  0.00000000e+00
  0.00000000e+00 -8.73418734e-07 -3.14615987e-07  7.19425715e-06
  0.00000000e+00  0.00000000e+00  0.00000000e+00 -4.22868373e-07
  0.00000000e+00  0.00000000e+00  0.00000000e+00  0.00000000e+00
  0.00000000e+00  0.00000000e+00  0.00000000e+00  0.00000000e+00
  0.00000000e+00  0.00000000e+00  0.00000000e+00  0.00000000e+00
  0.00000000e+00  0.00000000e+00  0.00000000e+00  0.00000000e+00
  0.00000000e+00  0.00000000e+00 -8.73418734e-07 -4.22868373e-07
  0.00000000e+00  0.00000000e+00  0.00000000e+00  3.66818985e-06]","[[-0.00013282  0.00704452]
 [-0.00014006 -0.00257773]]",[],0.0,0.0
1787560059.674381,1.6195697260064201,1.008907369900123,2.275762455577361,"[ 9.37510882e-06 -3.14615987e-07  0.00000000e+00  0.00000000e+00
  0.00000000e+00 -8.73418734e-07 -3.14615987e-07  7.19425715e-06
  0.00000000e+00  0.00000000e+00  0.00000000e+00 -4.22868373e-07
  0.00000000e+00  0.00000000e+00  0.00000000e+00  0.00000000e+00
  0.00000000e+00  0.00000000e+00  0.00000000e+00  0.00000000e+00
  0.00000000e+00  0.00000000e+00  0.00000000e+00  0.00000000e+00
  0.00000000e+00  0.00000000e+00  0.00000000e+00  0.00000000e+00
  0.00000000e+00  0.00000000e+00 -8.73418734e-07 -4.22868373e-07
  0.00000000e+00  0.00000000e+00  0.00000000e+00  3.66818985e-06]","[[-0.00013282  0.00704452]
 [-0.00014006 -0.00257773]]",[],0.0,0.0
1787560059.7254777,1.6195697260064201,1.008907369900123,2.275762455577361,"[ 9.37510882e-06 -3.14615987e-07  0.00000000e+00  0.00000000e+00
  0.00000000e+00 -8.73418734e-07 -3.14615987e-07  7.19425715e-06
  0.00000000e+00  0.00000000e+00  0.00000000e+00 -4.22868373e-07
  0.00000000e+00  0.00000000e+00  0.00000000e+00  0.00000000e+00
  0.00000000e+00  0.00000000e+00  0.00000000e+00  0.00000000e+00
  0.00000000e+00  0.00000000e+00  0.00000000e+00  0.00000000e+00
  0.00000000e+00  0.00000000e+00  0.00000000e+00  0.00000000e+00
  0.00000000e+00  0.00000000e+00 -8.73418734e-07 -4.22868373e-07
  0.00000000e+00  0.00000000e+00  0.00000000e+00  3.66818985e-06]","[[-0.00013282  0.00704452]
 [-0.00014006 -0.00257773]]",[],0.0,0.0
1787560059.7742436,1.6195697260064201,1.008907369900123,2.275762455577361,"[ 9.37510882e-06 -3.14615987e-07  0.00000000e+00  0.00000000e+00
  0.00000000e+00 -8.73418734e-07 -3.14615987e-07  7.19425715e-06
  0.00000000e+00  0.00000000e+00  0.00000000e+00 -4.22868373e-07
  0.00000000e+00  0.00000000e+00  0.00000000e+00  0.00000000e+00
  0.00000000e+00  0.00000000e+00  0.00000000e+00  0.00000000e+00
  0.00000000e+00  0.00000000e+00  0.00000000e+00  0.00000000e+00
  0.00000000e+00  0.00000000e+00  0.00000000e+00  0.00000000e+00
  0.00000000e+00  0.00000000e+00 -8.73418734e-07 -4.22868373e-07
  0.00000000e+00  0.00000000e+00  0.00000000e+00  3.66818985e-06]","[[-0.00013282  0.00704452]
 [-0.00014006 -0.00257773]]",[],0.0,0.0
1787560059.8275821,1.6195697260064201,1.008907369900123,2.275762455577361,"[ 9.37510882e-06 -3.14615987e-07  0.00000000e+00  0.00000000e+00
  0.00000000e+00 -8.73418734e-07 -3.14615987e-07  7.19425715e-06
  0.00000000e+00  0.00000000e+00  0.00000000e+00 -4.22868373e-07
  0.00000000e+00  0.00000000e+00  0.00000000e+00  0.00000000e+00
  0.00000000e+00  0.00000000e+00  0.00000000e+00  0.00000000e+00
  0.00000000e+00  0.00000000e+00  0.00000000e+00  0.00000000e+00
  0.00000000e+00  0.00000000e+00  0.00000000e+00  0.00000000e+00
  0.00000000e+00  0.00000000e+00 -8.73418734e-07 -4.22868373e-07
  0.00000000e+00  0.00000000e+00  0.00000000e+00  3.66818985e-06]","[[-0.00013282  0.00704452]
 [-0.00014006 -0.00257773]]",[],0.0,0.0
1787560059.874548,1.6195697260064201,1.008907369900123,2.275762455577361,"[ 9.37510882e-06 -3.14615987e-07  0.00000000e+00  0.00000000e+00
  0.00000000e+00 -8.73418734e-07 -3.14615987e-07  7.19425715e-06
  0.00000000e+00  0.00000000e+00  0.00000000e+00 -4.22868373e-07
  0.00000000e+00  0.00000000e+00  0.00000000e+00  0.00000000e+00
  0.00000000e+00  0.00000000e+00  0.00000000e+00  0.00000000e+00
  0.00000000e+00  0.00000000e+00  0.00000000e+00  0.00000000e+00
  0.00000000e+00  0.00000000e+00  0.00000000e+00  0.00000000e+00
  0.00000000e+00  0.00000000e+00 -8.73418734e-07 -4.22868373e-07
  0.00000000e+00  0.00000000e+00  0.00000000e+00  3.66818985e-06]","[[-0.00013282  0.00704452]
 [-0.00014006 -0.00257773]]",[],0.0,0.0
1787560059.929025,1.6195697260064201,1.008907369900123,2.275762455577361,"[ 9.37510882e-06 -3.14615987e-07  0.00000000e+00  0.00000000e+00
  0.00000000e+00 -8.73418734e-07 -3.14615987e-07  7.19425715e-06
  0.00000000e+00  0.00000000e+00  0.00000000e+00 -4.22868373e-07
  0.00000000e+00  0.00000000e+00  0.00000000e+00  0.00000000e+00
  0.00000000e+00  0.00000000e+00  0.00000000e+00  0.00000000e+00
  0.00000000e+00  0.00000000e+00  0.00000000e+00  0.00000000e+00
  0.00000000e+00  0.00000000e+00  0.00000000e+00  0.00000000e+00
  0.00000000e+00  0.00000000e+00 -8.73418734e-07 -4.22868373e-07
  0.00000000e+00  0.00000000e+00  0.00000000e+00  3.66818985e-06]","[[-0.00013282  0.00704452]
 [-0.00014006 -0.00257773]]",[],0.0,0.0
1787560059.9809575,1.6195697260064201,1.008907369900123,2.275762455577361,"[ 9.37510882e-06 -3.14615987e-07  0.00000000e+00  0.00000000e+00
  0.00000000e+00 -8.73418734e-07 -3.14615987e-07  7.19425715e-06
  0.00000000e+00  0.00000000e+00  0.00000000e+00 -4.22868373e-07
  0.00000000e+00  0.00000000e+00  0.00000000e+00  0.00000000e+00
  0.00000000e+00  0.00000000e+00  0.00000000e+00  0.00000000e+00
  0.00000000e+00  0.00000000e+00  0.00000000e+00  0.00000000e+00
  0.00000000e+00  0.00000000e+00  0.00000000e+00  0.00000000e+00
  0.00000000e+00  0.00000000e+00 -8.73418734e-07 -4.22868373e-07
  0.00000000e+00  0.00000000e+00  0.00000000e+00  3.66818985e-06]","[[-0.00013282  0.00704452]
 [-0.00014006 -0.00257773]]",[],0.0,0.0
1787560060.034164,1.6195697260064201,1.008907369900123,2.275762455577361,"[ 9.37510882e-06 -3.14615987e-07  0.00000000e+00  0.00000000e+00
  0.00000000e+00 -8.73418734e-07 -3.14615987e-07  7.19425715e-06
  0.00000000e+00  0.00000000e+00  0.00000000e+00 -4.22868373e-07
  0.00000000e+00  0.00000000e+00  0.00000000e+00  0.00000000e+00
  0.00000000e+00  0.00000000e+00  0.00000000e+00  0.00000000e+00
  0.00000000e+00  0.00000000e+00  0.00000000e+00  0.00000000e+00
  0.00000000e+00  0.00000000e+00  0.00000000e+00  0.00000000e+00
  0.00000000e+00  0.00000000e+00 -8.73418734e-07 -4.22868373e-07
  0.00000000e+00  0.00000000e+00  0.00000000e+00  3.66818985e-06]","[[-0.00013282  0.00704452]
 [-0.00014006 -0.00257773]]",[],0.0,0.0
1787560060.0746272,1.6195697260064201,1.008907369900123,2.275762455577361,"[ 9.37510882e-06 -3.14615987e-07  0.00000000e+00  0.00000000e+00
  0.00000000e+00 -8.73418734e-07 -3.14615987e-07  7.19425715e-06
  0.00000000e+00  0.00000000e+00  0.00000000e+00 -4.22868373e-07
  0.00000000e+00  0.00000000e+00  0.00000000e+00  0.00000000e+00
  0.00000000e+00  0.00000000e+00  0.00000000e+00  0.00000000e+00
  0.00000000e+00  0.00000000e+00  0.00000000e+00  0.00000000e+00
  0.00000000e+00  0.00000000e+00  0.00000000e+00  0.00000000e+00
  0.00000000e+00  0.00000000e+00 -8.73418734e-07 -4.22868373e-07
  0.00000000e+00  0.00000000e+00  0.00000000e+00  3.66818985e-06]","[[-0.00013282  0.00704452]
 [-0.00014006 -0.00257773]]",[],0.0,0.0
1787560060.1247003,1.6195697260064201,1.008907369900123,2.275762455577361,"[ 9.37510882e-06 -3.14615987e-07  0.00000000e+00  0.00000000e+00
  0.00000000e+00 -8.73418734e-07 -3.14615987e-07  7.19425715e-06
  0.00000000e+00  0.00000000e+00  0.00000000e+00 -4.22868373e-07
  0.00000000e+00  0.00000000e+00  0.00000000e+00  0.00000000e+00
  0.00000000e+00  0.00000000e+00  0.00000000e+00  0.00000000e+00
  0.00000000e+00  0.00000000e+00  0.00000000e+00  0.00000000e+00
  0.00000000e+00  0.00000000e+00  0.00000000e+00  0.00000000e+00
  0.00000000e+00  0.00000000e+00 -8.73418734e-07 -4.22868373e-07
  0.00000000e+00  0.00000000e+00  0.00000000e+00  3.66818985e-06]","[[-0.00013282  0.00704452]
 [-0.00014006 -0.00257773]]",[],0.0,0.0
1787560060.1746871,1.6195697260064201,1.008907369900123,2.275762455577361,"[ 9.37510882e-06 -3.14615987e-07  0.00000000e+00  0.00000000e+00
  0.00000000e+00 -8.73418734e-07 -3.14615987e-07  7.19425715e-06
  0.00000000e+00  0.00000000e+00  0.00000000e+00 -4.22868373e-07
  0.00000000e+00  0.00000000e+00  0.00000000e+00  0.00000000e+00
  0.00000000e+00  0.00000000e+00  0.00000000e+00  0.00000000e+00
  0.00000000e+00  0.00000000e+00  0.00000000e+00  0.00000000e+00
  0.00000000e+00  0.00000000e+00  0.00000000e+00  0.00000000e+00
  0.00000000e+00  0.00000000e+00 -8.73418734e-07 -4.22868373e-07
  0.00000000e+00  0.00000000e+00  0.00000000e+00  3.66818985e-06]","[[-0.00013282  0.00704452]
 [-0.00014006 -0.00257773]]",[],0.0,0.0
1787560060.2243264,1.6281540711706164,1.0013675279141716,2.3348579547344164,"[ 8.13802012e-06 -3.43796275e-07  0.00000000e+00  0.00000000e+00
  0.00000000e+00 -7.60015588e-07 -3.43796275e-07  6.36632143e-06
  0.00000000e+00  0.00000000e+00  0.00000000e+00 -2.99701163e-07
  0.00000000e+00  0.00000000e+00  0.00000000e+00  0.00000000e+00
  0.00000000e+00  0.00000000e+00  0.00000000e+00  0.00000000e+00
  0.00000000e+00  0.00000000e+00  0.00000000e+00  0.00000000e+00
  0.00000000e+00  0.00000000e+00  0.00000000e+00  0.00000000e+00
  0.00000000e+00  0.00000000e+00 -7.60015588e-07 -2.99701163e-07
  0.00000000e+00  0.00000000e+00  0.00000000e+00  3.69878923e-06]","[[ 1.71579315e-04  3.58074247e-03]
 [-9.83383187e-05  3.15359358e-03]]",[],0.0,0.0
1787560060.2827737,1.6281540711706164,1.0013675279141716,2.3348579547344164,"[ 8.13802012e-06 -3.43796275e-07  0.00000000e+00  0.00000000e+00
  0.00000000e+00 -7.60015588e-07 -3.43796275e-07  6.36632143e-06
  0.00000000e+00  0.00000000e+00  0.00000000e+00 -2.99701163e-07
  0.00000000e+00  0.00000000e+00  0.00000000e+00  0.00000000e+00
  0.00000000e+00  0.00000000e+00  0.00000000e+00  0.00000000e+00
  0.00000000e+00  0.00000000e+00  0.00000000e+00  0.00000000e+00
  0.00000000e+00  0.00000000e+00  0.00000000e+00  0.00000000e+00
  0.00000000e+00  0.00000000e+00 -7.60015588e-07 -2.99701163e-07
  0.00000000e+00  0.00000000e+00  0.00000000e+00  3.69878923e-06]","[[ 1.71579315e-04  3.58074247e-03]
 [-9.83383187e-05  3.15359358e-03]]",[],0.0,0.0
1787560060.32555,1.6281540711706164,1.0013675279141716,2.3348579547344164,"[ 8.13802012e-06 -3.43796275e-07  0.00000000e+00  0.00000000e+00
  0.00000000e+00 -7.60015588e-07 -3.43796275e-07  6.36632143e-06
  0.00000000e+00  0.00000000e+00  0.00000000e+00 -2.99701163e-07
  0.00000000e+00  0.00000000e+00  0.00000000e+00  0.00000000e+00
  0.00000000e+00  0.00000000e+00  0.00000000e+00  0.00000000e+00
  0.00000000e+00  0.00000000e+00  0.00000000e+00  0.00000000e+00
  0.00000000e+00  0.00000000e+00  0.00000000e+00  0.00000000e+00
  0.00000000e+00  0.00000000e+00 -7.60015588e-07 -2.99701163e-07
  0.00000000e+00  0.00000000e+00  0.00000000e+00  3.69878923e-06]","[[ 1.71579315e-04  3.58074247e-03]
 [-9.83383187e-05  3.15359358e-03]]",[],0.0,0.0
1787560060.382049,1.6281540711706164,1.0013675279141716,2.3348579547344164,"[ 8.13802012e-06 -3.43796275e-07  0.00000000e+00  0.00000000e+00
  0.00000000e+00 -7.60015588e-07 -3.43796275e-07  6.36632143e-06
  0.00000000e+00  0.00000000e+00  0.00000000e+00 -2.99701163e-07
  0.00000000e+00  0.00000000e+00  0.00000000e+00  0.00000000e+00
  0.00000000e+00  0.00000000e+00  0.00000000e+00  0.00000000e+00
  0.00000000e+00  0.00000000e+00  0.00000000e+00  0.00000000e+00
  0.00000000e+00  0.00000000e+00  0.00000000e+00  0.00000000e+00
  0.00000000e+00  0.00000000e+00 -7.60015588e-07 -2.99701163e-07
  0.00000000e+00  0.00000000e+00  0.00000000e+00  3.69878923e-06]","[[ 1.71579315e-04  3.58074247e-03]
 [-9.83383187e-05  3.15359358e-03]]",[],0.0,0.0
1787560060.4261246,1.6281540711706164,1.0013675279141716,2.3348579547344164,"[ 8.13802012e-06 -3.43796275e-07  0.00000000e+00  0.00000000e+00
  0.00000000e+00 -7.60015588e-07 -3.43796275e-07  6.36632143e-06
  0.00000000e+00  0.00000000e+00  0.00000000e+00 -2.99701163e-07
  0.00000000e+00  0.00000000e+00  0.00000000e+00  0.00000000e+00
  0.00000000e+00  0.00000000e+00  0.00000000e+00  0.00000000e+00
  0.00000000e+00  0.00000000e+00  0.00000000e+00  0.00000000e+00
  0.00000000e+00  0.00000000e+00  0.00000000e+00  0.00000000e+00
  0.00000000e+00  0.00000000e+00 -7.60015588e-07 -2.99701163e-07
  0.00000000e+00  0.00000000e+00  0.00000000e+00  3.69878923e-06]","[[ 1.71579315e-04  3.58074247e-03]
 [-9.83383187e-05  3.15359358e-03]]",[],0.0,0.0
1787560060.47576,1.6281540711706164,1.0013675279141716,2.3348579547344164,"[ 8.13802012e-06 -3.43796275e-07  0.00000000e+00  0.00000000e+00
  0.00000000e+00 -7.60015588e-07 -3.43796275e-07  6.36632143e-06
  0.00000000e+00  0.00000000e+00  0.00000000e+00 -2.99701163e-07
  0.00000000e+00  0.00000000e+00  0.00000000e+00  0.00000000e+00
  0.00000000e+00  0.00000000e+00  0.00000000e+00  0.00000000e+00
  0.00000000e+00  0.00000000e+00  0.00000000e+00  0.00000000e+00
  0.00000000e+00  0.00000000e+00  0.00000000e+00  0.00000000e+00
  0.00000000e+00  0.00000000e+00 -7.60015588e-07 -2.99701163e-07
  0.00000000e+00  0.00000000e+00  0.00000000e+00  3.69878923e-06]","[[ 1.71579315e-04  3.58074247e-03]
 [-9.83383187e-05  3.15359358e-03]]",[],0.0,0.0
1787560060.5247097,1.6281540711706164,1.0013675279141716,2.3348579547344164,"[ 8.13802012e-06 -3.43796275e-07  0.00000000e+00  0.00000000e+00
  0.00000000e+00 -7.60015588e-07 -3.43796275e-07  6.36632143e-06
  0.00000000e+00  0.00000000e+00  0.00000000e+00 -2.99701163e-07
  0.00000000e+00  0.00000000e+00  0.00000000e+00  0.00000000e+00
  0.00000000e+00  0.00000000e+00  0.00000000e+00  0.00000000e+00
  0.00000000e+00  0.00000000e+00  0.00000000e+00  0.00000000e+00
  0.00000000e+00  0.00000000e+00  0.00000000e+00  0.00000000e+00
  0.00000000e+00  0.00000000e+00 -7.60015588e-07 -2.99701163e-07
  0.00000000e+00  0.00000000e+00  0.00000000e+00  3.69878923e-06]","[[ 1.71579315e-04  3.58074247e-03]
 [-9.83383187e-05  3.15359358e-03]]",[],0.0,0.0
1787560060.574029,1.6281540711706164,1.0013675279141716,2.3348579547344164,"[ 8.13802012e-06 -3.43796275e-07  0.00000000e+00  0.00000000e+00
  0.00000000e+00 -7.60015588e-07 -3.43796275e-07  6.36632143e-06
  0.00000000e+00  0.00000000e+00  0.00000000e+00 -2.99701163e-07
  0.00000000e+00  0.00000000e+00  0.00000000e+00  0.00000000e+00
  0.00000000e+00  0.00000000e+00  0.00000000e+00  0.00000000e+00
  0.00000000e+00  0.00000000e+00  0.00000000e+00  0.00000000e+00
  0.00000000e+00  0.00000000e+00  0.00000000e+00  0.00000000e+00
  0.00000000e+00  0.00000000e+00 -7.60015588e-07 -2.99701163e-07
  0.00000000e+00  0.00000000e+00  0.00000000e+00  3.69878923e-06]","[[ 1.71579315e-04  3.58074247e-03]
 [-9.83383187e-05  3.15359358e-03]]",[],0.0,0.0
1787560060.6239123,1.6281540711706164,1.0013675279141716,2.3348579547344164,"[ 8.13802012e-06 -3.43796275e-07  0.00000000e+00  0.00000000e+00
  0.00000000e+00 -7.60015588e-07 -3.43796275e-07  6.36632143e-06
  0.00000000e+00  0.00000000e+00  0.00000000e+00 -2.99701163e-07
  0.00000000e+00  0.00000000e+00  0.00000000e+00  0.00000000e+00
  0.00000000e+00  0.00000000e+00  0.00000000e+00  0.00000000e+00
  0.00000000e+00  0.00000000e+00  0.00000000e+00  0.00000000e+00
  0.00000000e+00  0.00000000e+00  0.00000000e+00  0.00000000e+00
  0.00000000e+00  0.00000000e+00 -7.60015588e-07 -2.99701163e-07
  0.00000000e+00  0.00000000e+00  0.00000000e+00  3.69878923e-06]","[[ 1.71579315e-04  3.58074247e-03]
 [-9.83383187e-05  3.15359358e-03]]",[],0.0,0.0
1787560060.674039,1.6281540711706164,1.0013675279141716,2.3348579547344164,"[ 8.13802012e-06 -3.43796275e-07  0.00000000e+00  0.00000000e+00
  0.00000000e+00 -7.60015588e-07 -3.43796275e-07  6.36632143e-06
  0.00000000e+00  0.00000000e+00  0.00000000e+00 -2.99701163e-07
  0.00000000e+00  0.00000000e+00  0.00000000e+00  0.00000000e+00
  0.00000000e+00  0.00000000e+00  0.00000000e+00  0.00000000e+00
  0.00000000e+00  0.00000000e+00  0.00000000e+00  0.00000000e+00
  0.00000000e+00  0.00000000e+00  0.00000000e+00  0.00000000e+00
  0.00000000e+00  0.00000000e+00 -7.60015588e-07 -2.99701163e-07
  0.00000000e+00  0.00000000e+00  0.00000000e+00  3.69878923e-06]","[[ 1.71579315e-04  3.58074247e-03]
 [-9.83383187e-05  3.15359358e-03]]",[],0.0,0.0
1787560060.7241154,1.6281540711706164,1.0013675279141716,2.3348579547344164,"[ 8.13802012e-06 -3.43796275e-07  0.00000000e+00  0.00000000e+00
  0.00000000e+00 -7.60015588e-07 -3.43796275e-07  6.36632143e-06
  0.00000000e+00  0.00000000e+00  0.00000000e+00 -2.99701163e-07
  0.00000000e+00  0.00000000e+00  0.00000000e+00  0.00000000e+00
  0.00000000e+00  0.00000000e+00  0.00000000e+00  0.00000000e+00
  0.00000000e+00  0.00000000e+00  0.00000000e+00  0.00000000e+00
  0.00000000e+00  0.00000000e+00  0.00000000e+00  0.00000000e+00
  0.00000000e+00  0.00000000e+00 -7.60015588e-07 -2.99701163e-07
  0.00000000e+00  0.00000000e+00  0.00000000e+00  3.69878923e-06]","[[ 1.71579315e-04  3.58074247e-03]
 [-9.83383187e-05  3.15359358e-03]]",[],0.0,0.0
1787560060.775219,1.6281540711706164,1.0013675279141716,2.3348579547344164,"[ 8.13802012e-06 -3.43796275e-07  0.00000000e+00  0.00000000e+00
  0.00000000e+00 -7.60015588e-07 -3.43796275e-07  6.36632143e-06
  0.00000000e+00  0.00000000e+00  0.00000000e+00 -2.99701163e-07
  0.00000000e+00  0.00000000e+00  0.00000000e+00  0.00000000e+00
  0.00000000e+00  0.00000000e+00  0.00000000e+00  0.00000000e+00
  0.00000000e+00  0.00000000e+00  0.00000000e+00  0.00000000e+00
  0.00000000e+00  0.00000000e+00  0.00000000e+00  0.00000000e+00
  0.00000000e+00  0.00000000e+00 -7.60015588e-07 -2.99701163e-07
  0.00000000e+00  0.00000000e+00  0.00000000e+00  3.69878923e-06]","[[ 1.71579315e-04  3.58074247e-03]
 [-9.83383187e-05  3.15359358e-03]]",[],0.0,0.0
1787560060.8258548,1.6281540711706164,1.0013675279141716,2.3348579547344164,"[ 8.13802012e-06 -3.43796275e-07  0.00000000e+00  0.00000000e+00
  0.00000000e+00 -7.60015588e-07 -3.43796275e-07  6.36632143e-06
  0.00000000e+00  0.00000000e+00  0.00000000e+00 -2.99701163e-07
  0.00000000e+00  0.00000000e+00  0.00000000e+00  0.00000000e+00
  0.00000000e+00  0.00000000e+00  0.00000000e+00  0.00000000e+00
  0.00000000e+00  0.00000000e+00  0.00000000e+00  0.00000000e+00
  0.00000000e+00  0.00000000e+00  0.00000000e+00  0.00000000e+00
  0.00000000e+00  0.00000000e+00 -7.60015588e-07 -2.99701163e-07
  0.00000000e+00  0.00000000e+00  0.00000000e+00  3.69878923e-06]","[[ 1.71579315e-04  3.58074247e-03]
 [-9.83383187e-05  3.15359358e-03]]",[],0.0,0.0
1787560060.8736813,1.6393250336260625,0.9949281503355896,2.355972019282617,"[ 7.19153616e-06 -3.59577213e-07  0.00000000e+00  0.00000000e+00
  0.00000000e+00 -5.78655850e-07 -3.59577213e-07  5.63162106e-06
  0.00000000e+00  0.00000000e+00  0.00000000e+00 -2.39809548e-07
  0.00000000e+00  0.00000000e+00  0.00000000e+00  0.00000000e+00
  0.00000000e+00  0.00000000e+00  0.00000000e+00  0.00000000e+00
  0.00000000e+00  0.00000000e+00  0.00000000e+00  0.00000000e+00
  0.00000000e+00  0.00000000e+00  0.00000000e+00  0.00000000e+00
  0.00000000e+00  0.00000000e+00 -5.78655850e-07 -2.39809548e-07
  0.00000000e+00  0.00000000e+00  0.00000000e+00  3.31754565e-06]","[[ 1.52385421e-04  2.98025616e-03]
 [-8.81692877e-05  2.72174734e-03]]",[],0.0,0.0
1787560060.9309819,1.6393250336260625,0.9949281503355896,2.355972019282617,"[ 7.19153616e-06 -3.59577213e-07  0.00000000e+00  0.00000000e+00
  0.00000000e+00 -5.78655850e-07 -3.59577213e-07  5.63162106e-06
  0.00000000e+00  0.00000000e+00  0.00000000e+00 -2.39809548e-07
  0.00000000e+00  0.00000000e+00  0.00000000e+00  0.00000000e+00
  0.00000000e+00  0.00000000e+00  0.00000000e+00  0.00000000e+00
  0.00000000e+00  0.00000000e+00  0.00000000e+00  0.00000000e+00
  0.00000000e+00  0.00000000e+00  0.00000000e+00  0.00000000e+00
  0.00000000e+00  0.00000000e+00 -5.78655850e-07 -2.39809548e-07
  0.00000000e+00  0.00000000e+00  0.00000000e+00  3.31754565e-06]","[[ 1.52385421e-04  2.98025616e-03]
 [-8.81692877e-05  2.72174734e-03]]",[],0.0,0.0
1787560060.9753869,1.6393250336260625,0.9949281503355896,2.355972019282617,"[ 7.19153616e-06 -3.59577213e-07  0.00000000e+00  0.00000000e+00
  0.00000000e+00 -5.78655850e-07 -3.59577213e-07  5.63162106e-06
  0.00000000e+00  0.00000000e+00  0.00000000e+00 -2.39809548e-07
  0.00000000e+00  0.00000000e+00  0.00000000e+00  0.00000000e+00
  0.00000000e+00  0.00000000e+00  0.00000000e+00  0.00000000e+00
  0.00000000e+00  0.00000000e+00  0.00000000e+00  0.00000000e+00
  0.00000000e+00  0.00000000e+00  0.00000000e+00  0.00000000e+00
  0.00000000e+00  0.00000000e+00 -5.78655850e-07 -2.39809548e-07
  0.00000000e+00  0.00000000e+00  0.00000000e+00  3.31754565e-06]","[[ 1.52385421e-04  2.98025616e-03]
 [-8.81692877e-05  2.72174734e-03]]",[],0.0,0.0
1787560061.0261812,1.6393250336260625,0.9949281503355896,2.355972019282617,"[ 7.19153616e-06 -3.59577213e-07  0.00000000e+00  0.00000000e+00
  0.00000000e+00 -5.78655850e-07 -3.59577213e-07  5.63162106e-06
  0.00000000e+00  0.00000000e+00  0.00000000e+00 -2.39809548e-07
  0.00000000e+00  0.00000000e+00  0.00000000e+00  0.00000000e+00
  0.00000000e+00  0.00000000e+00  0.00000000e+00  0.00000000e+00
  0.00000000e+00  0.00000000e+00  0.00000000e+00  0.00000000e+00
  0.00000000e+00  0.00000000e+00  0.00000000e+00  0.00000000e+00
  0.00000000e+00  0.00000000e+00 -5.78655850e-07 -2.39809548e-07
  0.00000000e+00  0.00000000e+00  0.00000000e+00  3.31754565e-06]","[[ 1.52385421e-04  2.98025616e-03]
 [-8.81692877e-05  2.72174734e-03]]",[],0.0,0.0
1787560061.0778615,1.6393250336260625,0.9949281503355896,2.355972019282617,"[ 7.19153616e-06 -3.59577213e-07  0.00000000e+00  0.00000000e+00
  0.00000000e+00 -5.78655850e-07 -3.59577213e-07  5.63162106e-06
  0.00000000e+00  0.00000000e+00  0.00000000e+00 -2.39809548e-07
  0.00000000e+00  0.00000000e+00  0.00000000e+00  0.00000000e+00
  0.00000000e+00  0.00000000e+00  0.00000000e+00  0.00000000e+00
  0.00000000e+00  0.00000000e+00  0.00000000e+00  0.00000000e+00
  0.00000000e+00  0.00000000e+00  0.00000000e+00  0.00000000e+00
  0.00000000e+00  0.00000000e+00 -5.78655850e-07 -2.39809548e-07
  0.00000000e+00  0.00000000e+00  0.00000000e+00  3.31754565e-06]","[[ 1.52385421e-04  2.98025616e-03]
 [-8.81692877e-05  2.72174734e-03]]",[],0.0,0.0
1787560061.1259437,1.6393250336260625,0.9949281503355896,2.355972019282617,"[ 7.19153616e-06 -3.59577213e-07  0.00000000e+00  0.00000000e+00
  0.00000000e+00 -5.78655850e-07 -3.59577213e-07  5.63162106e-06
  0.00000000e+00  0.00000000e+00  0.00000000e+00 -2.39809548e-07
  0.00000000e+00  0.00000000e+00  0.00000000e+00  0.00000000e+00
  0.00000000e+00  0.00000000e+00  0.00000000e+00  0.00000000e+00
  0.00000000e+00  0.00000000e+00  0.00000000e+00  0.00000000e+00
  0.00000000e+00  0.00000000e+00  0.00000000e+00  0.00000000e+00
  0.00000000e+00  0.00000000e+00 -5.78655850e-07 -2.39809548e-07
  0.00000000e+00  0.00000000e+00  0.00000000e+00  3.31754565e-06]","[[ 1.52385421e-04  2.98025616e-03]
 [-8.81692877e-05  2.72174734e-03]]",[],0.0,0.0
1787560061.1742945,1.6393250336260625,0.9949281503355896,2.355972019282617,"[ 7.19153616e-06 -3.59577213e-07  0.00000000e+00  0.00000000e+00
  0.00000000e+00 -5.78655850e-07 -3.59577213e-07  5.63162106e-06
  0.00000000e+00  0.00000000e+00  0.00000000e+00 -2.39809548e-07
  0.00000000e+00  0.00000000e+00  0.00000000e+00  0.00000000e+00
  0.00000000e+00  0.00000000e+00  0.00000000e+00  0.00000000e+00
  0.00000000e+00  0.00000000e+00  0.00000000e+00  0.00000000e+00
  0.00000000e+00  0.00000000e+00  0.00000000e+00  0.00000000e+00
  0.00000000e+00  0.00000000e+00 -5.78655850e-07 -2.39809548e-07
  0.00000000e+00  0.00000000e+00  0.00000000e+00  3.31754565e-06]","[[ 1.52385421e-04  2.98025616e-03]
 [-8.81692877e-05  2.72174734e-03]]",[],0.0,0.0
1787560061.2361753,1.6393250336260625,0.9949281503355896,2.355972019282617,"[ 7.19153616e-06 -3.59577213e-07  0.00000000e+00  0.00000000e+00
  0.00000000e+00 -5.78655850e-07 -3.59577213e-07  5.63162106e-06
  0.00000000e+00  0.00000000e+00  0.00000000e+00 -2.39809548e-07
  0.00000000e+00  0.00000000e+00  0.00000000e+00  0.00000000e+00
  0.00000000e+00  0.00000000e+00  0.00000000e+00  0.00000000e+00
  0.00000000e+00  0.00000000e+00  0.00000000e+00  0.00000000e+00
  0.00000000e+00  0.00000000e+00  0.00000000e+00  0.00000000e+00
  0.00000000e+00  0.00000000e+00 -5.78655850e-07 -2.39809548e-07
  0.00000000e+00  0.00000000e+00  0.00000000e+00  3.31754565e-06]","[[ 1.52385421e-04  2.98025616e-03]
 [-8.81692877e-05  2.72174734e-03]]",[],0.0,0.0
1787560061.2794108,1.6393250336260625,0.9949281503355896,2.355972019282617,"[ 7.19153616e-06 -3.59577213e-07  0.00000000e+00  0.00000000e+00
  0.00000000e+00 -5.78655850e-07 -3.59577213e-07  5.63162106e-06
  0.00000000e+00  0.00000000e+00  0.00000000e+00 -2.39809548e-07
  0.00000000e+00  0.00000000e+00  0.00000000e+00  0.00000000e+00
  0.00000000e+00  0.00000000e+00  0.00000000e+00  0.00000000e+00
  0.00000000e+00  0.00000000e+00  0.00000000e+00  0.00000000e+00
  0.00000000e+00  0.00000000e+00  0.00000000e+00  0.00000000e+00
  0.00000000e+00  0.00000000e+00 -5.78655850e-07 -2.39809548e-07
  0.00000000e+00  0.00000000e+00  0.00000000e+00  3.31754565e-06]","[[ 1.52385421e-04  2.98025616e-03]
 [-8.81692877e-05  2.72174734e-03]]",[],0.0,0.0
1787560061.3246171,1.6393250336260625,0.9949281503355896,2.355972019282617,"[ 7.19153616e-06 -3.59577213e-07  0.00000000e+00  0.00000000e+00
  0.00000000e+00 -5.78655850e-07 -3.59577213e-07  5.63162106e-06
  0.00000000e+00  0.00000000e+00  0.00000000e+00 -2.39809548e-07
  0.00000000e+00  0.00000000e+00  0.00000000e+00  0.00000000e+00
  0.00000000e+00  0.00000000e+00  0.00000000e+00  0.00000000e+00
  0.00000000e+00  0.00000000e+00  0.00000000e+00  0.00000000e+00
  0.00000000e+00  0.00000000e+00  0.00000000e+00  0.00000000e+00
  0.00000000e+00  0.00000000e+00 -5.78655850e-07 -2.39809548e-07
  0.00000000e+00  0.00000000e+00  0.00000000e+00  3.31754565e-06]","[[ 1.52385421e-04  2.98025616e-03]
 [-8.81692877e-05  2.72174734e-03]]",[],0.0,0.0
1787560061.375154,1.6393250336260625,0.9949281503355896,2.355972019282617,"[ 7.19153616e-06 -3.59577213e-07  0.00000000e+00  0.00000000e+00
  0.00000000e+00 -5.78655850e-07 -3.59577213e-07  5.63162106e-06
  0.00000000e+00  0.00000000e+00  0.00000000e+00 -2.39809548e-07
  0.00000000e+00  0.00000000e+00  0.00000000e+00  0.00000000e+00
  0.00000000e+00  0.00000000e+00  0.00000000e+00  0.00000000e+00
  0.00000000e+00  0.00000000e+00  0.00000000e+00  0.00000000e+00
  0.00000000e+00  0.00000000e+00  0.00000000e+00  0.00000000e+00
  0.00000000e+00  0.00000000e+00 -5.78655850e-07 -2.39809548e-07
  0.00000000e+00  0.00000000e+00  0.00000000e+00  3.31754565e-06]","[[ 1.52385421e-04  2.98025616e-03]
 [-8.81692877e-05  2.72174734e-03]]",[],0.0,0.0
1787560061.4251704,1.6393250336260625,0.9949281503355896,2.355972019282617,"[ 7.19153616e-06 -3.59577213e-07  0.00000000e+00  0.00000000e+00
  0.00000000e+00 -5.78655850e-07 -3.59577213e-07  5.63162106e-06
  0.00000000e+00  0.00000000e+00  0.00000000e+00 -2.39809548e-07
  0.00000000e+00  0.00000000e+00  0.00000000e+00  0.00000000e+00
  0.00000000e+00  0.00000000e+00  0.00000000e+00  0.00000000e+00
  0.00000000e+00  0.00000000e+00  0.00000000e+00  0.00000000e+00
  0.00000000e+00  0.00000000e+00  0.00000000e+00  0.00000000e+00
  0.00000000e+00  0.00000000e+00 -5.78655850e-07 -2.39809548e-07
  0.00000000e+00  0.00000000e+00  0.00000000e+00  3.31754565e-06]","[[ 1.52385421e-04  2.98025616e-03]
 [-8.81692877e-05  2.72174734e-03]]",[],0.0,0.0
1787560061.4781077,1.6393250336260625,0.9949281503355896,2.355972019282617,"[ 7.19153616e-06 -3.59577213e-07  0.00000000e+00  0.00000000e+00
  0.00000000e+00 -5.78655850e-07 -3.59577213e-07  5.63162106e-06
  0.00000000e+00  0.00000000e+00  0.00000000e+00 -2.39809548e-07
  0.00000000e+00  0.00000000e+00  0.00000000e+00  0.00000000e+00
  0.00000000e+00  0.00000000e+00  0.00000000e+00  0.00000000e+00
  0.00000000e+00  0.00000000e+00  0.00000000e+00  0.00000000e+00
  0.00000000e+00  0.00000000e+00  0.00000000e+00  0.00000000e+00
  0.00000000e+00  0.00000000e+00 -5.78655850e-07 -2.39809548e-07
  0.00000000e+00  0.00000000e+00  0.00000000e+00  3.31754565e-06]","[[ 1.52385421e-04  2.98025616e-03]
 [-8.81692877e-05  2.72174734e-03]]",[],0.0,0.0
1787560061.5246203,1.6393250336260625,0.9949281503355896,2.355972019282617,"[ 7.19153616e-06 -3.59577213e-07  0.00000000e+00  0.00000000e+00
  0.00000000e+00 -5.78655850e-07 -3.59577213e-07  5.63162106e-06
  0.00000000e+00  0.00000000e+00  0.00000000e+00 -2.39809548e-07
  0.00000000e+00  0.00000000e+00  0.00000000e+00  0.00000000e+00
  0.00000000e+00  0.00000000e+00  0.00000000e+00  0.00000000e+00
  0.00000000e+00  0.00000000e+00  0.00000000e+00  0.00000000e+00
  0.00000000e+00  0.00000000e+00  0.00000000e+00  0.00000000e+00
  0.00000000e+00  0.00000000e+00 -5.78655850e-07 -2.39809548e-07
  0.00000000e+00  0.00000000e+00  0.00000000e+00  3.31754565e-06]","[[ 1.52385421e-04  2.98025616e-03]
 [-8.81692877e-05  2.72174734e-03]]",[],0.0,0.0
1787560061.5758576,1.6393250336260625,0.9949281503355896,2.355972019282617,"[ 7.19153616e-06 -3.59577213e-07  0.00000000e+00  0.00000000e+00
  0.00000000e+00 -5.78655850e-07 -3.59577213e-07  5.63162106e-06
  0.00000000e+00  0.00000000e+00  0.00000000e+00 -2.39809548e-07
  0.00000000e+00  0.00000000e+00  0.00000000e+00  0.00000000e+00
  0.00000000e+00  0.00000000e+00  0.00000000e+00  0.00000000e+00
  0.00000000e+00  0.00000000e+00  0.00000000e+00  0.00000000e+00
  0.00000000e+00  0.00000000e+00  0.00000000e+00  0.00000000e+00
  0.00000000e+00  0.00000000e+00 -5.78655850e-07 -2.39809548e-07
  0.00000000e+00  0.00000000e+00  0.00000000e+00  3.31754565e-06]","[[ 1.52385421e-04  2.98025616e-03]
 [-8.81692877e-05  2.72174734e-03]]",[],0.0,0.0
1787560061.6343577,1.6393250336260625,0.9949281503355896,2.355972019282617,"[ 7.19153616e-06 -3.59577213e-07  0.00000000e+00  0.00000000e+00
  0.00000000e+00 -5.78655850e-07 -3.59577213e-07  5.63162106e-06
  0.00000000e+00  0.00000000e+00  0.00000000e+00 -2.39809548e-07
  0.00000000e+00  0.00000000e+00  0.00000000e+00  0.00000000e+00
  0.00000000e+00  0.00000000e+00  0.00000000e+00  0.00000000e+00
  0.00000000e+00  0.00000000e+00  0.00000000e+00  0.00000000e+00
  0.00000000e+00  0.00000000e+00  0.00000000e+00  0.00000000e+00
  0.00000000e+00  0.00000000e+00 -5.78655850e-07 -2.39809548e-07
  0.00000000e+00  0.00000000e+00  0.00000000e+00  3.31754565e-06]","[[ 1.52385421e-04  2.98025616e-03]
 [-8.81692877e-05  2.72174734e-03]]",[],0.0,0.0
1787560061.679101,1.6393250336260625,0.9949281503355896,2.355972019282617,"[ 7.19153616e-06 -3.59577213e-07  0.00000000e+00  0.00000000e+00
  0.00000000e+00 -5.78655850e-07 -3.59577213e-07  5.63162106e-06
  0.00000000e+00  0.00000000e+00  0.00000000e+00 -2.39809548e-07
  0.00000000e+00  0.00000000e+00  0.00000000e+00  0.00000000e+00
  0.00000000e+00  0.00000000e+00  0.00000000e+00  0.00000000e+00
  0.00000000e+00  0.00000000e+00  0.00000000e+00  0.00000000e+00
  0.00000000e+00  0.00000000e+00  0.00000000e+00  0.00000000e+00
  0.00000000e+00  0.00000000e+00 -5.78655850e-07 -2.39809548e-07
  0.00000000e+00  0.00000000e+00  0.00000000e+00  3.31754565e-06]","[[ 1.52385421e-04  2.98025616e-03]
 [-8.81692877e-05  2.72174734e-03]]",[],0.0,0.0
1787560061.7259135,1.6393250336260625,0.9949281503355896,2.355972019282617,"[ 7.19153616e-06 -3.59577213e-07  0.00000000e+00  0.00000000e+00
  0.00000000e+00 -5.78655850e-07 -3.59577213e-07  5.63162106e-06
  0.00000000e+00  0.00000000e+00  0.00000000e+00 -2.39809548e-07
  0.00000000e+00  0.00000000e+00  0.00000000e+00  0.00000000e+00
  0.00000000e+00  0.00000000e+00  0.00000000e+00  0.00000000e+00
  0.00000000e+00  0.00000000e+00  0.00000000e+00  0.00000000e+00
  0.00000000e+00  0.00000000e+00  0.00000000e+00  0.00000000e+00
  0.00000000e+00  0.00000000e+00 -5.78655850e-07 -2.39809548e-07
  0.00000000e+00  0.00000000e+00  0.00000000e+00  3.31754565e-06]","[[ 1.52385421e-04  2.98025616e-03]
 [-8.81692877e-05  2.72174734e-03]]",[],0.0,0.0
1787560061.7751784,1.6393250336260625,0.9949281503355896,2.355972019282617,"[ 7.19153616e-06 -3.59577213e-07  0.00000000e+00  0.00000000e+00
  0.00000000e+00 -5.78655850e-07 -3.59577213e-07  5.63162106e-06
  0.00000000e+00  0.00000000e+00  0.00000000e+00 -2.39809548e-07
  0.00000000e+00  0.00000000e+00  0.00000000e+00  0.00000000e+00
  0.00000000e+00  0.00000000e+00  0.00000000e+00  0.00000000e+00
  0.00000000e+00  0.00000000e+00  0.00000000e+00  0.00000000e+00
  0.00000000e+00  0.00000000e+00  0.00000000e+00  0.00000000e+00
  0.00000000e+00  0.00000000e+00 -5.78655850e-07 -2.39809548e-07
  0.00000000e+00  0.00000000e+00  0.00000000e+00  3.31754565e-06]","[[ 1.52385421e-04  2.98025616e-03]
 [-8.81692877e-05  2.72174734e-03]]",[],0.0,0.0
1787560061.8262467,1.648036832650575,0.9889048479297574,2.377269424976711,"[ 6.52284699e-06 -4.02314156e-07  0.00000000e+00  0.00000000e+00
