time,x,y,yaw,cov_prop,K_gain,innovation,v_ekf,omega_ekf
1787561676.4422567,1.608229205537563,1.041233776467288,1.9958582540409093,"[ 6.56948936e-05 -4.46090330e-06  0.00000000e+00  0.00000000e+00
  0.00000000e+00 -7.10968927e-06 -4.46090330e-06  5.09835930e-05
  0.00000000e+00  0.00000000e+00  0.00000000e+00 -1.09989046e-06
  0.00000000e+00  0.00000000e+00  0.00000000e+00  0.00000000e+00
  0.00000000e+00  0.00000000e+00  0.00000000e+00  0.00000000e+00
  0.00000000e+00  0.00000000e+00  0.00000000e+00  0.00000000e+00
  0.00000000e+00  0.00000000e+00  0.00000000e+00  0.00000000e+00
  0.00000000e+00  0.00000000e+00 -7.10968927e-06 -1.09989046e-06
  0.00000000e+00  0.00000000e+00  0.00000000e+00  4.98677559e-06]","[[-0.00063342  0.05721113]
 [-0.00109074 -0.01818774]]",[],0.0,0.0
1787561676.4933012,1.608229205537563,1.041233776467288,1.9958582540409093,"[ 6.56948936e-05 -4.46090330e-06  0.00000000e+00  0.00000000e+00
  0.00000000e+00 -7.10968927e-06 -4.46090330e-06  5.09835930e-05
  0.00000000e+00  0.00000000e+00  0.00000000e+00 -1.09989046e-06
  0.00000000e+00  0.00000000e+00  0.00000000e+00  0.00000000e+00
  0.00000000e+00  0.00000000e+00  0.00000000e+00  0.00000000e+00
  0.00000000e+00  0.00000000e+00  0.00000000e+00  0.00000000e+00
  0.00000000e+00  0.00000000e+00  0.00000000e+00  0.00000000e+00
  0.00000000e+00  0.00000000e+00 -7.10968927e-06 -1.09989046e-06
  0.00000000e+00  0.00000000e+00  0.00000000e+00  4.98677559e-06]","[[-0.00063342  0.05721113]
 [-0.00109074 -0.01818774]]",[],0.0,0.0
1787561676.5431418,1.608229205537563,1.041233776467288,1.9958582540409093,"[ 6.56948936e-05 -4.46090330e-06  0.00000000e+00  0.00000000e+00
  0.00000000e+00 -7.10968927e-06 -4.46090330e-06  5.09835930e-05
  0.00000000e+00  0.00000000e+00  0.00000000e+00 -1.09989046e-06
  0.00000000e+00  0.00000000e+00  0.00000000e+00  0.00000000e+00
  0.00000000e+00  0.00000000e+00  0.00000000e+00  0.00000000e+00
  0.00000000e+00  0.00000000e+00  0.00000000e+00  0.00000000e+00
  0.00000000e+00  0.00000000e+00  0.00000000e+00  0.00000000e+00
  0.00000000e+00  0.00000000e+00 -7.10968927e-06 -1.09989046e-06
  0.00000000e+00  0.00000000e+00  0.00000000e+00  4.98677559e-06]","[[-0.00063342  0.05721113]
 [-0.00109074 -0.01818774]]",[],0.0,0.0
1787561676.5940187,1.608229205537563,1.041233776467288,1.9958582540409093,"[ 6.56948936e-05 -4.46090330e-06  0.00000000e+00  0.00000000e+00
  0.00000000e+00 -7.10968927e-06 -4.46090330e-06  5.09835930e-05
  0.00000000e+00  0.00000000e+00  0.00000000e+00 -1.09989046e-06
  0.00000000e+00  0.00000000e+00  0.00000000e+00  0.00000000e+00
  0.00000000e+00  0.00000000e+00  0.00000000e+00  0.00000000e+00
  0.00000000e+00  0.00000000e+00  0.00000000e+00  0.00000000e+00
  0.00000000e+00  0.00000000e+00  0.00000000e+00  0.00000000e+00
  0.00000000e+00  0.00000000e+00 -7.10968927e-06 -1.09989046e-06
  0.00000000e+00  0.00000000e+00  0.00000000e+00  4.98677559e-06]","[[-0.00063342  0.05721113]
 [-0.00109074 -0.01818774]]",[],0.0,0.0
1787561676.6502562,1.608229205537563,1.041233776467288,1.9958582540409093,"[ 6.56948936e-05 -4.46090330e-06  0.00000000e+00  0.00000000e+00
  0.00000000e+00 -7.10968927e-06 -4.46090330e-06  5.09835930e-05
  0.00000000e+00  0.00000000e+00  0.00000000e+00 -1.09989046e-06
  0.00000000e+00  0.00000000e+00  0.00000000e+00  0.00000000e+00
  0.00000000e+00  0.00000000e+00  0.00000000e+00  0.00000000e+00
  0.00000000e+00  0.00000000e+00  0.00000000e+00  0.00000000e+00
  0.00000000e+00  0.00000000e+00  0.00000000e+00  0.00000000e+00
  0.00000000e+00  0.00000000e+00 -7.10968927e-06 -1.09989046e-06
  0.00000000e+00  0.00000000e+00  0.00000000e+00  4.98677559e-06]","[[-0.00063342  0.05721113]
 [-0.00109074 -0.01818774]]",[],0.0,0.0
1787561676.693727,1.608229205537563,1.041233776467288,1.9958582540409093,"[ 6.56948936e-05 -4.46090330e-06  0.00000000e+00  0.00000000e+00
  0.00000000e+00 -7.10968927e-06 -4.46090330e-06  5.09835930e-05
  0.00000000e+00  0.00000000e+00  0.00000000e+00 -1.09989046e-06
  0.00000000e+00  0.00000000e+00  0.00000000e+00  0.00000000e+00
  0.00000000e+00  0.00000000e+00  0.00000000e+00  0.00000000e+00
  0.00000000e+00  0.00000000e+00  0.00000000e+00  0.00000000e+00
  0.00000000e+00  0.00000000e+00  0.00000000e+00  0.00000000e+00
  0.00000000e+00  0.00000000e+00 -7.10968927e-06 -1.09989046e-06
  0.00000000e+00  0.00000000e+00  0.00000000e+00  4.98677559e-06]","[[-0.00063342  0.05721113]
 [-0.00109074 -0.01818774]]",[],0.0,0.0
1787561676.7425838,1.608229205537563,1.041233776467288,1.9958582540409093,"[ 6.56948936e-05 -4.46090330e-06  0.00000000e+00  0.00000000e+00
  0.00000000e+00 -7.10968927e-06 -4.46090330e-06  5.09835930e-05
  0.00000000e+00  0.00000000e+00  0.00000000e+00 -1.09989046e-06
  0.00000000e+00  0.00000000e+00  0.00000000e+00  0.00000000e+00
  0.00000000e+00  0.00000000e+00  0.00000000e+00  0.00000000e+00
  0.00000000e+00  0.00000000e+00  0.00000000e+00  0.00000000e+00
  0.00000000e+00  0.00000000e+00  0.00000000e+00  0.00000000e+00
  0.00000000e+00  0.00000000e+00 -7.10968927e-06 -1.09989046e-06
  0.00000000e+00  0.00000000e+00  0.00000000e+00  4.98677559e-06]","[[-0.00063342  0.05721113]
 [-0.00109074 -0.01818774]]",[],0.0,0.0
1787561676.7974825,1.608229205537563,1.041233776467288,1.9958582540409093,"[ 6.56948936e-05 -4.46090330e-06  0.00000000e+00  0.00000000e+00
  0.00000000e+00 -7.10968927e-06 -4.46090330e-06  5.09835930e-05
  0.00000000e+00  0.00000000e+00  0.00000000e+00 -1.09989046e-06
  0.00000000e+00  0.00000000e+00  0.00000000e+00  0.00000000e+00
  0.00000000e+00  0.00000000e+00  0.00000000e+00  0.00000000e+00
  0.00000000e+00  0.00000000e+00  0.00000000e+00  0.00000000e+00
  0.00000000e+00  0.00000000e+00  0.00000000e+00  0.00000000e+00
  0.00000000e+00  0.00000000e+00 -7.10968927e-06 -1.09989046e-06
  0.00000000e+00  0.00000000e+00  0.00000000e+00  4.98677559e-06]","[[-0.00063342  0.05721113]
 [-0.00109074 -0.01818774]]",[],0.0,0.0
1787561676.8535435,1.608229205537563,1.041233776467288,1.9958582540409093,"[ 6.56948936e-05 -4.46090330e-06  0.00000000e+00  0.00000000e+00
  0.00000000e+00 -7.10968927e-06 -4.46090330e-06  5.09835930e-05
  0.00000000e+00  0.00000000e+00  0.00000000e+00 -1.09989046e-06
  0.00000000e+00  0.00000000e+00  0.00000000e+00  0.00000000e+00
  0.00000000e+00  0.00000000e+00  0.00000000e+00  0.00000000e+00
  0.00000000e+00  0.00000000e+00  0.00000000e+00  0.00000000e+00
  0.00000000e+00  0.00000000e+00  0.00000000e+00  0.00000000e+00
  0.00000000e+00  0.00000000e+00 -7.10968927e-06 -1.09989046e-06
  0.00000000e+00  0.00000000e+00  0.00000000e+00  4.98677559e-06]","[[-0.00063342  0.05721113]
 [-0.00109074 -0.01818774]]",[],0.0,0.0
1787561676.9049115,1.608229205537563,1.041233776467288,1.9958582540409093,"[ 6.56948936e-05 -4.46090330e-06  0.00000000e+00  0.00000000e+00
  0.00000000e+00 -7.10968927e-06 -4.46090330e-06  5.09835930e-05
  0.00000000e+00  0.00000000e+00  0.00000000e+00 -1.09989046e-06
  0.00000000e+00  0.00000000e+00  0.00000000e+00  0.00000000e+00
  0.00000000e+00  0.00000000e+00  0.00000000e+00  0.00000000e+00
  0.00000000e+00  0.00000000e+00  0.00000000e+00  0.00000000e+00
  0.00000000e+00  0.00000000e+00  0.00000000e+00  0.00000000e+00
  0.00000000e+00  0.00000000e+00 -7.10968927e-06 -1.09989046e-06
  0.00000000e+00  0.00000000e+00  0.00000000e+00  4.98677559e-06]","[[-0.00063342  0.05721113]
 [-0.00109074 -0.01818774]]",[],0.0,0.0
1787561676.9428961,1.608229205537563,1.041233776467288,1.9958582540409093,"[ 6.56948936e-05 -4.46090330e-06  0.00000000e+00  0.00000000e+00
  0.00000000e+00 -7.10968927e-06 -4.46090330e-06  5.09835930e-05
  0.00000000e+00  0.00000000e+00  0.00000000e+00 -1.09989046e-06
  0.00000000e+00  0.00000000e+00  0.00000000e+00  0.00000000e+00
  0.00000000e+00  0.00000000e+00  0.00000000e+00  0.00000000e+00
  0.00000000e+00  0.00000000e+00  0.00000000e+00  0.00000000e+00
  0.00000000e+00  0.00000000e+00  0.00000000e+00  0.00000000e+00
  0.00000000e+00  0.00000000e+00 -7.10968927e-06 -1.09989046e-06
  0.00000000e+00  0.00000000e+00  0.00000000e+00  4.98677559e-06]","[[-0.00063342  0.05721113]
 [-0.00109074 -0.01818774]]",[],0.0,0.0
1787561676.9955695,1.608229205537563,1.041233776467288,1.9958582540409093,"[ 6.56948936e-05 -4.46090330e-06  0.00000000e+00  0.00000000e+00
  0.00000000e+00 -7.10968927e-06 -4.46090330e-06  5.09835930e-05
  0.00000000e+00  0.00000000e+00  0.00000000e+00 -1.09989046e-06
  0.00000000e+00  0.00000000e+00  0.00000000e+00  0.00000000e+00
  0.00000000e+00  0.00000000e+00  0.00000000e+00  0.00000000e+00
  0.00000000e+00  0.00000000e+00  0.00000000e+00  0.00000000e+00
  0.00000000e+00  0.00000000e+00  0.00000000e+00  0.00000000e+00
  0.00000000e+00  0.00000000e+00 -7.10968927e-06 -1.09989046e-06
  0.00000000e+00  0.00000000e+00  0.00000000e+00  4.98677559e-06]","[[-0.00063342  0.05721113]
 [-0.00109074 -0.01818774]]",[],0.0,0.0
1787561677.0429196,1.608229205537563,1.041233776467288,1.9958582540409093,"[ 6.56948936e-05 -4.46090330e-06  0.00000000e+00  0.00000000e+00
  0.00000000e+00 -7.10968927e-06 -4.46090330e-06  5.09835930e-05
  0.00000000e+00  0.00000000e+00  0.00000000e+00 -1.09989046e-06
  0.00000000e+00  0.00000000e+00  0.00000000e+00  0.00000000e+00
  0.00000000e+00  0.00000000e+00  0.00000000e+00  0.00000000e+00
  0.00000000e+00  0.00000000e+00  0.00000000e+00  0.00000000e+00
  0.00000000e+00  0.00000000e+00  0.00000000e+00  0.00000000e+00
  0.00000000e+00  0.00000000e+00 -7.10968927e-06 -1.09989046e-06
  0.00000000e+00  0.00000000e+00  0.00000000e+00  4.98677559e-06]","[[-0.00063342  0.05721113]
 [-0.00109074 -0.01818774]]",[],0.0,0.0
1787561677.0983143,1.608229205537563,1.041233776467288,1.9958582540409093,"[ 6.56948936e-05 -4.46090330e-06  0.00000000e+00  0.00000000e+00
  0.00000000e+00 -7.10968927e-06 -4.46090330e-06  5.09835930e-05
  0.00000000e+00  0.00000000e+00  0.00000000e+00 -1.09989046e-06
  0.00000000e+00  0.00000000e+00  0.00000000e+00  0.00000000e+00
  0.00000000e+00  0.00000000e+00  0.00000000e+00  0.00000000e+00
  0.00000000e+00  0.00000000e+00  0.00000000e+00  0.00000000e+00
  0.00000000e+00  0.00000000e+00  0.00000000e+00  0.00000000e+00
  0.00000000e+00  0.00000000e+00 -7.10968927e-06 -1.09989046e-06
  0.00000000e+00  0.00000000e+00  0.00000000e+00  4.98677559e-06]","[[-0.00063342  0.05721113]
 [-0.00109074 -0.01818774]]",[],0.0,0.0
1787561677.1428123,1.608229205537563,1.041233776467288,1.9958582540409093,"[ 6.56948936e-05 -4.46090330e-06  0.00000000e+00  0.00000000e+00
  0.00000000e+00 -7.10968927e-06 -4.46090330e-06  5.09835930e-05
  0.00000000e+00  0.00000000e+00  0.00000000e+00 -1.09989046e-06
  0.00000000e+00  0.00000000e+00  0.00000000e+00  0.00000000e+00
  0.00000000e+00  0.00000000e+00  0.00000000e+00  0.00000000e+00
  0.00000000e+00  0.00000000e+00  0.00000000e+00  0.00000000e+00
  0.00000000e+00  0.00000000e+00  0.00000000e+00  0.00000000e+00
  0.00000000e+00  0.00000000e+00 -7.10968927e-06 -1.09989046e-06
  0.00000000e+00  0.00000000e+00  0.00000000e+00  4.98677559e-06]","[[-0.00063342  0.05721113]
 [-0.00109074 -0.01818774]]",[],0.0,0.0
1787561677.195533,1.608229205537563,1.041233776467288,1.9958582540409093,"[ 6.56948936e-05 -4.46090330e-06  0.00000000e+00  0.00000000e+00
  0.00000000e+00 -7.10968927e-06 -4.46090330e-06  5.09835930e-05
  0.00000000e+00  0.00000000e+00  0.00000000e+00 -1.09989046e-06
  0.00000000e+00  0.00000000e+00  0.00000000e+00  0.00000000e+00
  0.00000000e+00  0.00000000e+00  0.00000000e+00  0.00000000e+00
  0.00000000e+00  0.00000000e+00  0.00000000e+00  0.00000000e+00
  0.00000000e+00  0.00000000e+00  0.00000000e+00  0.00000000e+00
  0.00000000e+00  0.00000000e+00 -7.10968927e-06 -1.09989046e-06
  0.00000000e+00  0.00000000e+00  0.00000000e+00  4.98677559e-06]","[[-0.00063342  0.05721113]
 [-0.00109074 -0.01818774]]",[],0.0,0.0
1787561677.242945,1.608229205537563,1.041233776467288,1.9958582540409093,"[ 6.56948936e-05 -4.46090330e-06  0.00000000e+00  0.00000000e+00
  0.00000000e+00 -7.10968927e-06 -4.46090330e-06  5.09835930e-05
  0.00000000e+00  0.00000000e+00  0.00000000e+00 -1.09989046e-06
  0.00000000e+00  0.00000000e+00  0.00000000e+00  0.00000000e+00
  0.00000000e+00  0.00000000e+00  0.00000000e+00  0.00000000e+00
  0.00000000e+00  0.00000000e+00  0.00000000e+00  0.00000000e+00
  0.00000000e+00  0.00000000e+00  0.00000000e+00  0.00000000e+00
  0.00000000e+00  0.00000000e+00 -7.10968927e-06 -1.09989046e-06
  0.00000000e+00  0.00000000e+00  0.00000000e+00  4.98677559e-06]","[[-0.00063342  0.05721113]
 [-0.00109074 -0.01818774]]",[],0.0,0.0
1787561677.2930512,1.608229205537563,1.041233776467288,1.9958582540409093,"[ 6.56948936e-05 -4.46090330e-06  0.00000000e+00  0.00000000e+00
  0.00000000e+00 -7.10968927e-06 -4.46090330e-06  5.09835930e-05
  0.00000000e+00  0.00000000e+00  0.00000000e+00 -1.09989046e-06
  0.00000000e+00  0.00000000e+00  0.00000000e+00  0.00000000e+00
  0.00000000e+00  0.00000000e+00  0.00000000e+00  0.00000000e+00
  0.00000000e+00  0.00000000e+00  0.00000000e+00  0.00000000e+00
  0.00000000e+00  0.00000000e+00  0.00000000e+00  0.00000000e+00
  0.00000000e+00  0.00000000e+00 -7.10968927e-06 -1.09989046e-06
  0.00000000e+00  0.00000000e+00  0.00000000e+00  4.98677559e-06]","[[-0.00063342  0.05721113]
 [-0.00109074 -0.01818774]]",[],0.0,0.0
1787561677.342846,1.608229205537563,1.041233776467288,1.9958582540409093,"[ 6.56948936e-05 -4.46090330e-06  0.00000000e+00  0.00000000e+00
  0.00000000e+00 -7.10968927e-06 -4.46090330e-06  5.09835930e-05
  0.00000000e+00  0.00000000e+00  0.00000000e+00 -1.09989046e-06
  0.00000000e+00  0.00000000e+00  0.00000000e+00  0.00000000e+00
  0.00000000e+00  0.00000000e+00  0.00000000e+00  0.00000000e+00
  0.00000000e+00  0.00000000e+00  0.00000000e+00  0.00000000e+00
  0.00000000e+00  0.00000000e+00  0.00000000e+00  0.00000000e+00
  0.00000000e+00  0.00000000e+00 -7.10968927e-06 -1.09989046e-06
  0.00000000e+00  0.00000000e+00  0.00000000e+00  4.98677559e-06]","[[-0.00063342  0.05721113]
 [-0.00109074 -0.01818774]]",[],0.0,0.0
1787561677.4076388,1.608229205537563,1.041233776467288,1.9958582540409093,"[ 6.56948936e-05 -4.46090330e-06  0.00000000e+00  0.00000000e+00
  0.00000000e+00 -7.10968927e-06 -4.46090330e-06  5.09835930e-05
  0.00000000e+00  0.00000000e+00  0.00000000e+00 -1.09989046e-06
  0.00000000e+00  0.00000000e+00  0.00000000e+00  0.00000000e+00
  0.00000000e+00  0.00000000e+00  0.00000000e+00  0.00000000e+00
  0.00000000e+00  0.00000000e+00  0.00000000e+00  0.00000000e+00
  0.00000000e+00  0.00000000e+00  0.00000000e+00  0.00000000e+00
  0.00000000e+00  0.00000000e+00 -7.10968927e-06 -1.09989046e-06
  0.00000000e+00  0.00000000e+00  0.00000000e+00  4.98677559e-06]","[[-0.00063342  0.05721113]
 [-0.00109074 -0.01818774]]",[],0.0,0.0
1787561677.4434304,1.608229205537563,1.041233776467288,1.9958582540409093,"[ 6.56948936e-05 -4.46090330e-06  0.00000000e+00  0.00000000e+00
  0.00000000e+00 -7.10968927e-06 -4.46090330e-06  5.09835930e-05
  0.00000000e+00  0.00000000e+00  0.00000000e+00 -1.09989046e-06
  0.00000000e+00  0.00000000e+00  0.00000000e+00  0.00000000e+00
  0.00000000e+00  0.00000000e+00  0.00000000e+00  0.00000000e+00
  0.00000000e+00  0.00000000e+00  0.00000000e+00  0.00000000e+00
  0.00000000e+00  0.00000000e+00  0.00000000e+00  0.00000000e+00
  0.00000000e+00  0.00000000e+00 -7.10968927e-06 -1.09989046e-06
  0.00000000e+00  0.00000000e+00  0.00000000e+00  4.98677559e-06]","[[-0.00063342  0.05721113]
 [-0.00109074 -0.01818774]]",[],0.0,0.0
1787561677.5007682,1.608229205537563,1.041233776467288,1.9958582540409093,"[ 6.56948936e-05 -4.46090330e-06  0.00000000e+00  0.00000000e+00
  0.00000000e+00 -7.10968927e-06 -4.46090330e-06  5.09835930e-05
  0.00000000e+00  0.00000000e+00  0.00000000e+00 -1.09989046e-06
  0.00000000e+00  0.00000000e+00  0.00000000e+00  0.00000000e+00
  0.00000000e+00  0.00000000e+00  0.00000000e+00  0.00000000e+00
  0.00000000e+00  0.00000000e+00  0.00000000e+00  0.00000000e+00
  0.00000000e+00  0.00000000e+00  0.00000000e+00  0.00000000e+00
  0.00000000e+00  0.00000000e+00 -7.10968927e-06 -1.09989046e-06
  0.00000000e+00  0.00000000e+00  0.00000000e+00  4.98677559e-06]","[[-0.00063342  0.05721113]
 [-0.00109074 -0.01818774]]",[],0.0,0.0
1787561677.542762,1.608229205537563,1.041233776467288,1.9958582540409093,"[ 6.56948936e-05 -4.46090330e-06  0.00000000e+00  0.00000000e+00
  0.00000000e+00 -7.10968927e-06 -4.46090330e-06  5.09835930e-05
  0.00000000e+00  0.00000000e+00  0.00000000e+00 -1.09989046e-06
  0.00000000e+00  0.00000000e+00  0.00000000e+00  0.00000000e+00
  0.00000000e+00  0.00000000e+00  0.00000000e+00  0.00000000e+00
  0.00000000e+00  0.00000000e+00  0.00000000e+00  0.00000000e+00
  0.00000000e+00  0.00000000e+00  0.00000000e+00  0.00000000e+00
  0.00000000e+00  0.00000000e+00 -7.10968927e-06 -1.09989046e-06
  0.00000000e+00  0.00000000e+00  0.00000000e+00  4.98677559e-06]","[[-0.00063342  0.05721113]
 [-0.00109074 -0.01818774]]",[],0.0,0.0
1787561677.5991247,1.608229205537563,1.041233776467288,1.9958582540409093,"[ 6.56948936e-05 -4.46090330e-06  0.00000000e+00  0.00000000e+00
  0.00000000e+00 -7.10968927e-06 -4.46090330e-06  5.09835930e-05
  0.00000000e+00  0.00000000e+00  0.00000000e+00 -1.09989046e-06
  0.00000000e+00  0.00000000e+00  0.00000000e+00  0.00000000e+00
  0.00000000e+00  0.00000000e+00  0.00000000e+00  0.00000000e+00
  0.00000000e+00  0.00000000e+00  0.00000000e+00  0.00000000e+00
  0.00000000e+00  0.00000000e+00  0.00000000e+00  0.00000000e+00
  0.00000000e+00  0.00000000e+00 -7.10968927e-06 -1.09989046e-06
  0.00000000e+00  0.00000000e+00  0.00000000e+00  4.98677559e-06]","[[-0.00063342  0.05721113]
 [-0.00109074 -0.01818774]]",[],0.0,0.0
1787561677.645105,1.608229205537563,1.041233776467288,1.9958582540409093,"[ 6.56948936e-05 -4.46090330e-06  0.00000000e+00  0.00000000e+00
  0.00000000e+00 -7.10968927e-06 -4.46090330e-06  5.09835930e-05
  0.00000000e+00  0.00000000e+00  0.00000000e+00 -1.09989046e-06
  0.00000000e+00  0.00000000e+00  0.00000000e+00  0.00000000e+00
  0.00000000e+00  0.00000000e+00  0.00000000e+00  0.00000000e+00
  0.00000000e+00  0.00000000e+00  0.00000000e+00  0.00000000e+00
  0.00000000e+00  0.00000000e+00  0.00000000e+00  0.00000000e+00
  0.00000000e+00  0.00000000e+00 -7.10968927e-06 -1.09989046e-06
  0.00000000e+00  0.00000000e+00  0.00000000e+00  4.98677559e-06]","[[-0.00063342  0.05721113]
 [-0.00109074 -0.01818774]]",[],0.0,0.0
1787561677.697352,1.608229205537563,1.041233776467288,1.9958582540409093,"[ 6.56948936e-05 -4.46090330e-06  0.00000000e+00  0.00000000e+00
  0.00000000e+00 -7.10968927e-06 -4.46090330e-06  5.09835930e-05
  0.00000000e+00  0.00000000e+00  0.00000000e+00 -1.09989046e-06
  0.00000000e+00  0.00000000e+00  0.00000000e+00  0.00000000e+00
  0.00000000e+00  0.00000000e+00  0.00000000e+00  0.00000000e+00
  0.00000000e+00  0.00000000e+00  0.00000000e+00  0.00000000e+00
  0.00000000e+00  0.00000000e+00  0.00000000e+00  0.00000000e+00
  0.00000000e+00  0.00000000e+00 -7.10968927e-06 -1.09989046e-06
  0.00000000e+00  0.00000000e+00  0.00000000e+00  4.98677559e-06]","[[-0.00063342  0.05721113]
 [-0.00109074 -0.01818774]]",[],0.0,0.0
1787561677.7425284,1.632801112375186,1.0422733253503325,2.046707798051024,"[ 3.21603739e-05 -5.12138133e-07  0.00000000e+00  0.00000000e+00
  0.00000000e+00 -3.55385843e-06 -5.12138133e-07  2.50110467e-05
  0.00000000e+00  0.00000000e+00  0.00000000e+00 -1.41399142e-06
  0.00000000e+00  0.00000000e+00  0.00000000e+00  0.00000000e+00
  0.00000000e+00  0.00000000e+00  0.00000000e+00  0.00000000e+00
  0.00000000e+00  0.00000000e+00  0.00000000e+00  0.00000000e+00
  0.00000000e+00  0.00000000e+00  0.00000000e+00  0.00000000e+00
  0.00000000e+00  0.00000000e+00 -3.55385843e-06 -1.41399142e-06
  0.00000000e+00  0.00000000e+00  0.00000000e+00  4.39798637e-06]","[[-0.00051115  0.01671014]
 [-0.000468   -0.00490066]]",[],0.0,0.0
1787561677.7943013,1.632801112375186,1.0422733253503325,2.046707798051024,"[ 3.21603739e-05 -5.12138133e-07  0.00000000e+00  0.00000000e+00
  0.00000000e+00 -3.55385843e-06 -5.12138133e-07  2.50110467e-05
  0.00000000e+00  0.00000000e+00  0.00000000e+00 -1.41399142e-06
  0.00000000e+00  0.00000000e+00  0.00000000e+00  0.00000000e+00
  0.00000000e+00  0.00000000e+00  0.00000000e+00  0.00000000e+00
  0.00000000e+00  0.00000000e+00  0.00000000e+00  0.00000000e+00
  0.00000000e+00  0.00000000e+00  0.00000000e+00  0.00000000e+00
  0.00000000e+00  0.00000000e+00 -3.55385843e-06 -1.41399142e-06
  0.00000000e+00  0.00000000e+00  0.00000000e+00  4.39798637e-06]","[[-0.00051115  0.01671014]
 [-0.000468   -0.00490066]]",[],0.0,0.0
1787561677.8475945,1.632801112375186,1.0422733253503325,2.046707798051024,"[ 3.21603739e-05 -5.12138133e-07  0.00000000e+00  0.00000000e+00
  0.00000000e+00 -3.55385843e-06 -5.12138133e-07  2.50110467e-05
  0.00000000e+00  0.00000000e+00  0.00000000e+00 -1.41399142e-06
  0.00000000e+00  0.00000000e+00  0.00000000e+00  0.00000000e+00
  0.00000000e+00  0.00000000e+00  0.00000000e+00  0.00000000e+00
  0.00000000e+00  0.00000000e+00  0.00000000e+00  0.00000000e+00
  0.00000000e+00  0.00000000e+00  0.00000000e+00  0.00000000e+00
  0.00000000e+00  0.00000000e+00 -3.55385843e-06 -1.41399142e-06
  0.00000000e+00  0.00000000e+00  0.00000000e+00  4.39798637e-06]","[[-0.00051115  0.01671014]
 [-0.000468   -0.00490066]]",[],0.0,0.0
1787561677.8991358,1.632801112375186,1.0422733253503325,2.046707798051024,"[ 3.21603739e-05 -5.12138133e-07  0.00000000e+00  0.00000000e+00
  0.00000000e+00 -3.55385843e-06 -5.12138133e-07  2.50110467e-05
  0.00000000e+00  0.00000000e+00  0.00000000e+00 -1.41399142e-06
  0.00000000e+00  0.00000000e+00  0.00000000e+00  0.00000000e+00
  0.00000000e+00  0.00000000e+00  0.00000000e+00  0.00000000e+00
  0.00000000e+00  0.00000000e+00  0.00000000e+00  0.00000000e+00
  0.00000000e+00  0.00000000e+00  0.00000000e+00  0.00000000e+00
  0.00000000e+00  0.00000000e+00 -3.55385843e-06 -1.41399142e-06
  0.00000000e+00  0.00000000e+00  0.00000000e+00  4.39798637e-06]","[[-0.00051115  0.01671014]
 [-0.000468   -0.00490066]]",[],0.0,0.0
1787561677.9424314,1.632801112375186,1.0422733253503325,2.046707798051024,"[ 3.21603739e-05 -5.12138133e-07  0.00000000e+00  0.00000000e+00
  0.00000000e+00 -3.55385843e-06 -5.12138133e-07  2.50110467e-05
  0.00000000e+00  0.00000000e+00  0.00000000e+00 -1.41399142e-06
  0.00000000e+00  0.00000000e+00  0.00000000e+00  0.00000000e+00
  0.00000000e+00  0.00000000e+00  0.00000000e+00  0.00000000e+00
  0.00000000e+00  0.00000000e+00  0.00000000e+00  0.00000000e+00
  0.00000000e+00  0.00000000e+00  0.00000000e+00  0.00000000e+00
  0.00000000e+00  0.00000000e+00 -3.55385843e-06 -1.41399142e-06
  0.00000000e+00  0.00000000e+00  0.00000000e+00  4.39798637e-06]","[[-0.00051115  0.01671014]
 [-0.000468   -0.00490066]]",[],0.0,0.0
1787561677.992222,1.632801112375186,1.0422733253503325,2.046707798051024,"[ 3.21603739e-05 -5.12138133e-07  0.00000000e+00  0.00000000e+00
  0.00000000e+00 -3.55385843e-06 -5.12138133e-07  2.50110467e-05
  0.00000000e+00  0.00000000e+00  0.00000000e+00 -1.41399142e-06
  0.00000000e+00  0.00000000e+00  0.00000000e+00  0.00000000e+00
  0.00000000e+00  0.00000000e+00  0.00000000e+00  0.00000000e+00
  0.00000000e+00  0.00000000e+00  0.00000000e+00  0.00000000e+00
  0.00000000e+00  0.00000000e+00  0.00000000e+00  0.00000000e+00
  0.00000000e+00  0.00000000e+00 -3.55385843e-06 -1.41399142e-06
  0.00000000e+00  0.00000000e+00  0.00000000e+00  4.39798637e-06]","[[-0.00051115  0.01671014]
 [-0.000468   -0.00490066]]",[],0.0,0.0
1787561678.047287,1.632801112375186,1.0422733253503325,2.046707798051024,"[ 3.21603739e-05 -5.12138133e-07  0.00000000e+00  0.00000000e+00
  0.00000000e+00 -3.55385843e-06 -5.12138133e-07  2.50110467e-05
  0.00000000e+00  0.00000000e+00  0.00000000e+00 -1.41399142e-06
  0.00000000e+00  0.00000000e+00  0.00000000e+00  0.00000000e+00
  0.00000000e+00  0.00000000e+00  0.00000000e+00  0.00000000e+00
  0.00000000e+00  0.00000000e+00  0.00000000e+00  0.00000000e+00
  0.00000000e+00  0.00000000e+00  0.00000000e+00  0.00000000e+00
  0.00000000e+00  0.00000000e+00 -3.55385843e-06 -1.41399142e-06
  0.00000000e+00  0.00000000e+00  0.00000000e+00  4.39798637e-06]","[[-0.00051115  0.01671014]
 [-0.000468   -0.00490066]]",[],0.0,0.0
1787561678.0927668,1.632801112375186,1.0422733253503325,2.046707798051024,"[ 3.21603739e-05 -5.12138133e-07  0.00000000e+00  0.00000000e+00
  0.00000000e+00 -3.55385843e-06 -5.12138133e-07  2.50110467e-05
  0.00000000e+00  0.00000000e+00  0.00000000e+00 -1.41399142e-06
  0.00000000e+00  0.00000000e+00  0.00000000e+00  0.00000000e+00
  0.00000000e+00  0.00000000e+00  0.00000000e+00  0.00000000e+00
  0.00000000e+00  0.00000000e+00  0.00000000e+00  0.00000000e+00
  0.00000000e+00  0.00000000e+00  0.00000000e+00  0.00000000e+00
  0.00000000e+00  0.00000000e+00 -3.55385843e-06 -1.41399142e-06
  0.00000000e+00  0.00000000e+00  0.00000000e+00  4.39798637e-06]","[[-0.00051115  0.01671014]
 [-0.000468   -0.00490066]]",[],0.0,0.0
1787561678.1422582,1.632801112375186,1.0422733253503325,2.046707798051024,"[ 3.21603739e-05 -5.12138133e-07  0.00000000e+00  0.00000000e+00
  0.00000000e+00 -3.55385843e-06 -5.12138133e-07  2.50110467e-05
  0.00000000e+00  0.00000000e+00  0.00000000e+00 -1.41399142e-06
  0.00000000e+00  0.00000000e+00  0.00000000e+00  0.00000000e+00
  0.00000000e+00  0.00000000e+00  0.00000000e+00  0.00000000e+00
  0.00000000e+00  0.00000000e+00  0.00000000e+00  0.00000000e+00
  0.00000000e+00  0.00000000e+00  0.00000000e+00  0.00000000e+00
  0.00000000e+00  0.00000000e+00 -3.55385843e-06 -1.41399142e-06
  0.00000000e+00  0.00000000e+00  0.00000000e+00  4.39798637e-06]","[[-0.00051115  0.01671014]
 [-0.000468   -0.00490066]]",[],0.0,0.0
1787561678.193424,1.632801112375186,1.0422733253503325,2.046707798051024,"[ 3.21603739e-05 -5.12138133e-07  0.00000000e+00  0.00000000e+00
  0.00000000e+00 -3.55385843e-06 -5.12138133e-07  2.50110467e-05
  0.00000000e+00  0.00000000e+00  0.00000000e+00 -1.41399142e-06
  0.00000000e+00  0.00000000e+00  0.00000000e+00  0.00000000e+00
  0.00000000e+00  0.00000000e+00  0.00000000e+00  0.00000000e+00
  0.00000000e+00  0.00000000e+00  0.00000000e+00  0.00000000e+00
  0.00000000e+00  0.00000000e+00  0.00000000e+00  0.00000000e+00
  0.00000000e+00  0.00000000e+00 -3.55385843e-06 -1.41399142e-06
  0.00000000e+00  0.00000000e+00  0.00000000e+00  4.39798637e-06]","[[-0.00051115  0.01671014]
 [-0.000468   -0.00490066]]",[],0.0,0.0
1787561678.2424953,1.632801112375186,1.0422733253503325,2.046707798051024,"[ 3.21603739e-05 -5.12138133e-07  0.00000000e+00  0.00000000e+00
  0.00000000e+00 -3.55385843e-06 -5.12138133e-07  2.50110467e-05
  0.00000000e+00  0.00000000e+00  0.00000000e+00 -1.41399142e-06
  0.00000000e+00  0.00000000e+00  0.00000000e+00  0.00000000e+00
  0.00000000e+00  0.00000000e+00  0.00000000e+00  0.00000000e+00
  0.00000000e+00  0.00000000e+00  0.00000000e+00  0.00000000e+00
  0.00000000e+00  0.00000000e+00  0.00000000e+00  0.00000000e+00
  0.00000000e+00  0.00000000e+00 -3.55385843e-06 -1.41399142e-06
  0.00000000e+00  0.00000000e+00  0.00000000e+00  4.39798637e-06]","[[-0.00051115  0.01671014]
 [-0.000468   -0.00490066]]",[],0.0,0.0
1787561678.2926707,1.632801112375186,1.0422733253503325,2.046707798051024,"[ 3.21603739e-05 -5.12138133e-07  0.00000000e+00  0.00000000e+00
  0.00000000e+00 -3.55385843e-06 -5.12138133e-07  2.50110467e-05
  0.00000000e+00  0.00000000e+00  0.00000000e+00 -1.41399142e-06
  0.00000000e+00  0.00000000e+00  0.00000000e+00  0.00000000e+00
  0.00000000e+00  0.00000000e+00  0.00000000e+00  0.00000000e+00
  0.00000000e+00  0.00000000e+00  0.00000000e+00  0.00000000e+00
  0.00000000e+00  0.00000000e+00  0.00000000e+00  0.00000000e+00
  0.00000000e+00  0.00000000e+00 -3.55385843e-06 -1.41399142e-06
  0.00000000e+00  0.00000000e+00  0.00000000e+00  4.39798637e-06]","[[-0.00051115  0.01671014]
 [-0.000468   -0.00490066]]",[],0.0,0.0
1787561678.342578,1.632801112375186,1.0422733253503325,2.046707798051024,"[ 3.21603739e-05 -5.12138133e-07  0.00000000e+00  0.00000000e+00
  0.00000000e+00 -3.55385843e-06 -5.12138133e-07  2.50110467e-05
  0.00000000e+00  0.00000000e+00  0.00000000e+00 -1.41399142e-06
  0.00000000e+00  0.00000000e+00  0.00000000e+00  0.00000000e+00
  0.00000000e+00  0.00000000e+00  0.00000000e+00  0.00000000e+00
  0.00000000e+00  0.00000000e+00  0.00000000e+00  0.00000000e+00
  0.00000000e+00  0.00000000e+00  0.00000000e+00  0.00000000e+00
  0.00000000e+00  0.00000000e+00 -3.55385843e-06 -1.41399142e-06
  0.00000000e+00  0.00000000e+00  0.00000000e+00  4.39798637e-06]","[[-0.00051115  0.01671014]
 [-0.000468   -0.00490066]]",[],0.0,0.0
1787561678.3925161,1.632801112375186,1.0422733253503325,2.046707798051024,"[ 3.21603739e-05 -5.12138133e-07  0.00000000e+00  0.00000000e+00
  0.00000000e+00 -3.55385843e-06 -5.12138133e-07  2.50110467e-05
  0.00000000e+00  0.00000000e+00  0.00000000e+00 -1.41399142e-06
  0.00000000e+00  0.00000000e+00  0.00000000e+00  0.00000000e+00
  0.00000000e+00  0.00000000e+00  0.00000000e+00  0.00000000e+00
  0.00000000e+00  0.00000000e+00  0.00000000e+00  0.00000000e+00
  0.00000000e+00  0.00000000e+00  0.00000000e+00  0.00000000e+00
  0.00000000e+00  0.00000000e+00 -3.55385843e-06 -1.41399142e-06
  0.00000000e+00  0.00000000e+00  0.00000000e+00  4.39798637e-06]","[[-0.00051115  0.01671014]
 [-0.000468   -0.00490066]]",[],0.0,0.0
1787561678.4423761,1.632801112375186,1.0422733253503325,2.046707798051024,"[ 3.21603739e-05 -5.12138133e-07  0.00000000e+00  0.00000000e+00
  0.00000000e+00 -3.55385843e-06 -5.12138133e-07  2.50110467e-05
  0.00000000e+00  0.00000000e+00  0.00000000e+00 -1.41399142e-06
  0.00000000e+00  0.00000000e+00  0.00000000e+00  0.00000000e+00
  0.00000000e+00  0.00000000e+00  0.00000000e+00  0.00000000e+00
  0.00000000e+00  0.00000000e+00  0.00000000e+00  0.00000000e+00
  0.00000000e+00  0.00000000e+00  0.00000000e+00  0.00000000e+00
  0.00000000e+00  0.00000000e+00 -3.55385843e-06 -1.41399142e-06
  0.00000000e+00  0.00000000e+00  0.00000000e+00  4.39798637e-06]","[[-0.00051115  0.01671014]
 [-0.000468   -0.00490066]]",[],0.0,0.0
1787561678.492995,1.632801112375186,1.0422733253503325,2.046707798051024,"[ 3.21603739e-05 -5.12138133e-07  0.00000000e+00  0.00000000e+00
  0.00000000e+00 -3.55385843e-06 -5.12138133e-07  2.50110467e-05
  0.00000000e+00  0.00000000e+00  0.00000000e+00 -1.41399142e-06
  0.00000000e+00  0.00000000e+00  0.00000000e+00  0.00000000e+00
  0.00000000e+00  0.00000000e+00  0.00000000e+00  0.00000000e+00
  0.00000000e+00  0.00000000e+00  0.00000000e+00  0.00000000e+00
  0.00000000e+00  0.00000000e+00  0.00000000e+00  0.00000000e+00
  0.00000000e+00  0.00000000e+00 -3.55385843e-06 -1.41399142e-06
  0.00000000e+00  0.00000000e+00  0.00000000e+00  4.39798637e-06]","[[-0.00051115  0.01671014]
 [-0.000468   -0.00490066]]",[],0.0,0.0
1787561678.5443158,1.632801112375186,1.0422733253503325,2.046707798051024,"[ 3.21603739e-05 -5.12138133e-07  0.00000000e+00  0.00000000e+00
  0.00000000e+00 -3.55385843e-06 -5.12138133e-07  2.50110467e-05
  0.00000000e+00  0.00000000e+00  0.00000000e+00 -1.41399142e-06
  0.00000000e+00  0.00000000e+00  0.00000000e+00  0.00000000e+00
  0.00000000e+00  0.00000000e+00  0.00000000e+00  0.00000000e+00
  0.00000000e+00  0.00000000e+00  0.00000000e+00  0.00000000e+00
  0.00000000e+00  0.00000000e+00  0.00000000e+00  0.00000000e+00
  0.00000000e+00  0.00000000e+00 -3.55385843e-06 -1.41399142e-06
  0.00000000e+00  0.00000000e+00  0.00000000e+00  4.39798637e-06]","[[-0.00051115  0.01671014]
 [-0.000468   -0.00490066]]",[],0.0,0.0
1787561678.594548,1.632801112375186,1.0422733253503325,2.046707798051024,"[ 3.21603739e-05 -5.12138133e-07  0.00000000e+00  0.00000000e+00
  0.00000000e+00 -3.55385843e-06 -5.12138133e-07  2.50110467e-05
  0.00000000e+00  0.00000000e+00  0.00000000e+00 -1.41399142e-06
  0.00000000e+00  0.00000000e+00  0.00000000e+00  0.00000000e+00
  0.00000000e+00  0.00000000e+00  0.00000000e+00  0.00000000e+00
  0.00000000e+00  0.00000000e+00  0.00000000e+00  0.00000000e+00
  0.00000000e+00  0.00000000e+00  0.00000000e+00  0.00000000e+00
  0.00000000e+00  0.00000000e+00 -3.55385843e-06 -1.41399142e-06
  0.00000000e+00  0.00000000e+00  0.00000000e+00  4.39798637e-06]","[[-0.00051115  0.01671014]
 [-0.000468   -0.00490066]]",[],0.0,0.0
1787561678.6422148,1.632801112375186,1.0422733253503325,2.046707798051024,"[ 3.21603739e-05 -5.12138133e-07  0.00000000e+00  0.00000000e+00
  0.00000000e+00 -3.55385843e-06 -5.12138133e-07  2.50110467e-05
  0.00000000e+00  0.00000000e+00  0.00000000e+00 -1.41399142e-06
  0.00000000e+00  0.00000000e+00  0.00000000e+00  0.00000000e+00
  0.00000000e+00  0.00000000e+00  0.00000000e+00  0.00000000e+00
  0.00000000e+00  0.00000000e+00  0.00000000e+00  0.00000000e+00
  0.00000000e+00  0.00000000e+00  0.00000000e+00  0.00000000e+00
  0.00000000e+00  0.00000000e+00 -3.55385843e-06 -1.41399142e-06
  0.00000000e+00  0.00000000e+00  0.00000000e+00  4.39798637e-06]","[[-0.00051115  0.01671014]
 [-0.000468   -0.00490066]]",[],0.0,0.0
1787561678.6928322,1.632801112375186,1.0422733253503325,2.046707798051024,"[ 3.21603739e-05 -5.12138133e-07  0.00000000e+00  0.00000000e+00
  0.00000000e+00 -3.55385843e-06 -5.12138133e-07  2.50110467e-05
  0.00000000e+00  0.00000000e+00  0.00000000e+00 -1.41399142e-06
  0.00000000e+00  0.00000000e+00  0.00000000e+00  0.00000000e+00
  0.00000000e+00  0.00000000e+00  0.00000000e+00  0.00000000e+00
  0.00000000e+00  0.00000000e+00  0.00000000e+00  0.00000000e+00
  0.00000000e+00  0.00000000e+00  0.00000000e+00  0.00000000e+00
  0.00000000e+00  0.00000000e+00 -3.55385843e-06 -1.41399142e-06
  0.00000000e+00  0.00000000e+00  0.00000000e+00  4.39798637e-06]","[[-0.00051115  0.01671014]
 [-0.000468   -0.00490066]]",[],0.0,0.0
1787561678.742226,1.632801112375186,1.0422733253503325,2.046707798051024,"[ 3.21603739e-05 -5.12138133e-07  0.00000000e+00  0.00000000e+00
  0.00000000e+00 -3.55385843e-06 -5.12138133e-07  2.50110467e-05
  0.00000000e+00  0.00000000e+00  0.00000000e+00 -1.41399142e-06
  0.00000000e+00  0.00000000e+00  0.00000000e+00  0.00000000e+00
  0.00000000e+00  0.00000000e+00  0.00000000e+00  0.00000000e+00
  0.00000000e+00  0.00000000e+00  0.00000000e+00  0.00000000e+00
  0.00000000e+00  0.00000000e+00  0.00000000e+00  0.00000000e+00
  0.00000000e+00  0.00000000e+00 -3.55385843e-06 -1.41399142e-06
  0.00000000e+00  0.00000000e+00  0.00000000e+00  4.39798637e-06]","[[-0.00051115  0.01671014]
 [-0.000468   -0.00490066]]",[],0.0,0.0
1787561678.7922676,1.632801112375186,1.0422733253503325,2.046707798051024,"[ 3.21603739e-05 -5.12138133e-07  0.00000000e+00  0.00000000e+00
  0.00000000e+00 -3.55385843e-06 -5.12138133e-07  2.50110467e-05
  0.00000000e+00  0.00000000e+00  0.00000000e+00 -1.41399142e-06
  0.00000000e+00  0.00000000e+00  0.00000000e+00  0.00000000e+00
  0.00000000e+00  0.00000000e+00  0.00000000e+00  0.00000000e+00
  0.00000000e+00  0.00000000e+00  0.00000000e+00  0.00000000e+00
  0.00000000e+00  0.00000000e+00  0.00000000e+00  0.00000000e+00
  0.00000000e+00  0.00000000e+00 -3.55385843e-06 -1.41399142e-06
  0.00000000e+00  0.00000000e+00  0.00000000e+00  4.39798637e-06]","[[-0.00051115  0.01671014]
 [-0.000468   -0.00490066]]",[],0.0,0.0
1787561678.842546,1.6404011962582028,1.0347943251422618,2.1110623250676843,"[ 2.19100953e-05 -1.12784285e-07  0.00000000e+00  0.00000000e+00
  0.00000000e+00 -2.38863536e-06 -1.12784285e-07  1.67602346e-05
  0.00000000e+00  0.00000000e+00  0.00000000e+00 -1.25430911e-06
  0.00000000e+00  0.00000000e+00  0.00000000e+00  0.00000000e+00
  0.00000000e+00  0.00000000e+00  0.00000000e+00  0.00000000e+00
  0.00000000e+00  0.00000000e+00  0.00000000e+00  0.00000000e+00
  0.00000000e+00  0.00000000e+00  0.00000000e+00  0.00000000e+00
  0.00000000e+00  0.00000000e+00 -2.38863536e-06 -1.25430911e-06
  0.00000000e+00  0.00000000e+00  0.00000000e+00  4.14527311e-06]","[[-0.00035072  0.01132545]
 [-0.00031865 -0.00269447]]",[],0.0,0.0
1787561678.8928099,1.6404011962582028,1.0347943251422618,2.1110623250676843,"[ 2.19100953e-05 -1.12784285e-07  0.00000000e+00  0.00000000e+00
  0.00000000e+00 -2.38863536e-06 -1.12784285e-07  1.67602346e-05
  0.00000000e+00  0.00000000e+00  0.00000000e+00 -1.25430911e-06
  0.00000000e+00  0.00000000e+00  0.00000000e+00  0.00000000e+00
  0.00000000e+00  0.00000000e+00  0.00000000e+00  0.00000000e+00
  0.00000000e+00  0.00000000e+00  0.00000000e+00  0.00000000e+00
  0.00000000e+00  0.00000000e+00  0.00000000e+00  0.00000000e+00
  0.00000000e+00  0.00000000e+00 -2.38863536e-06 -1.25430911e-06
  0.00000000e+00  0.00000000e+00  0.00000000e+00  4.14527311e-06]","[[-0.00035072  0.01132545]
 [-0.00031865 -0.00269447]]",[],0.0,0.0
1787561678.9420655,1.6404011962582028,1.0347943251422618,2.1110623250676843,"[ 2.19100953e-05 -1.12784285e-07  0.00000000e+00  0.00000000e+00
  0.00000000e+00 -2.38863536e-06 -1.12784285e-07  1.67602346e-05
  0.00000000e+00  0.00000000e+00  0.00000000e+00 -1.25430911e-06
  0.00000000e+00  0.00000000e+00  0.00000000e+00  0.00000000e+00
  0.00000000e+00  0.00000000e+00  0.00000000e+00  0.00000000e+00
  0.00000000e+00  0.00000000e+00  0.00000000e+00  0.00000000e+00
  0.00000000e+00  0.00000000e+00  0.00000000e+00  0.00000000e+00
  0.00000000e+00  0.00000000e+00 -2.38863536e-06 -1.25430911e-06
  0.00000000e+00  0.00000000e+00  0.00000000e+00  4.14527311e-06]","[[-0.00035072  0.01132545]
 [-0.00031865 -0.00269447]]",[],0.0,0.0
1787561678.9967155,1.6404011962582028,1.0347943251422618,2.1110623250676843,"[ 2.19100953e-05 -1.12784285e-07  0.00000000e+00  0.00000000e+00
  0.00000000e+00 -2.38863536e-06 -1.12784285e-07  1.67602346e-05
  0.00000000e+00  0.00000000e+00  0.00000000e+00 -1.25430911e-06
  0.00000000e+00  0.00000000e+00  0.00000000e+00  0.00000000e+00
  0.00000000e+00  0.00000000e+00  0.00000000e+00  0.00000000e+00
  0.00000000e+00  0.00000000e+00  0.00000000e+00  0.00000000e+00
  0.00000000e+00  0.00000000e+00  0.00000000e+00  0.00000000e+00
  0.00000000e+00  0.00000000e+00 -2.38863536e-06 -1.25430911e-06
  0.00000000e+00  0.00000000e+00  0.00000000e+00  4.14527311e-06]","[[-0.00035072  0.01132545]
 [-0.00031865 -0.00269447]]",[],0.0,0.0
1787561679.0422254,1.6404011962582028,1.0347943251422618,2.1110623250676843,"[ 2.19100953e-05 -1.12784285e-07  0.00000000e+00  0.00000000e+00
  0.00000000e+00 -2.38863536e-06 -1.12784285e-07  1.67602346e-05
  0.00000000e+00  0.00000000e+00  0.00000000e+00 -1.25430911e-06
  0.00000000e+00  0.00000000e+00  0.00000000e+00  0.00000000e+00
  0.00000000e+00  0.00000000e+00  0.00000000e+00  0.00000000e+00
  0.00000000e+00  0.00000000e+00  0.00000000e+00  0.00000000e+00
  0.00000000e+00  0.00000000e+00  0.00000000e+00  0.00000000e+00
  0.00000000e+00  0.00000000e+00 -2.38863536e-06 -1.25430911e-06
  0.00000000e+00  0.00000000e+00  0.00000000e+00  4.14527311e-06]","[[-0.00035072  0.01132545]
 [-0.00031865 -0.00269447]]",[],0.0,0.0
1787561679.0927978,1.6404011962582028,1.0347943251422618,2.1110623250676843,"[ 2.19100953e-05 -1.12784285e-07  0.00000000e+00  0.00000000e+00
  0.00000000e+00 -2.38863536e-06 -1.12784285e-07  1.67602346e-05
  0.00000000e+00  0.00000000e+00  0.00000000e+00 -1.25430911e-06
  0.00000000e+00  0.00000000e+00  0.00000000e+00  0.00000000e+00
  0.00000000e+00  0.00000000e+00  0.00000000e+00  0.00000000e+00
  0.00000000e+00  0.00000000e+00  0.00000000e+00  0.00000000e+00
  0.00000000e+00  0.00000000e+00  0.00000000e+00  0.00000000e+00
  0.00000000e+00  0.00000000e+00 -2.38863536e-06 -1.25430911e-06
  0.00000000e+00  0.00000000e+00  0.00000000e+00  4.14527311e-06]","[[-0.00035072  0.01132545]
 [-0.00031865 -0.00269447]]",[],0.0,0.0
1787561679.1476603,1.6404011962582028,1.0347943251422618,2.1110623250676843,"[ 2.19100953e-05 -1.12784285e-07  0.00000000e+00  0.00000000e+00
  0.00000000e+00 -2.38863536e-06 -1.12784285e-07  1.67602346e-05
  0.00000000e+00  0.00000000e+00  0.00000000e+00 -1.25430911e-06
  0.00000000e+00  0.00000000e+00  0.00000000e+00  0.00000000e+00
  0.00000000e+00  0.00000000e+00  0.00000000e+00  0.00000000e+00
  0.00000000e+00  0.00000000e+00  0.00000000e+00  0.00000000e+00
  0.00000000e+00  0.00000000e+00  0.00000000e+00  0.00000000e+00
  0.00000000e+00  0.00000000e+00 -2.38863536e-06 -1.25430911e-06
  0.00000000e+00  0.00000000e+00  0.00000000e+00  4.14527311e-06]","[[-0.00035072  0.01132545]
 [-0.00031865 -0.00269447]]",[],0.0,0.0
1787561679.1925104,1.6404011962582028,1.0347943251422618,2.1110623250676843,"[ 2.19100953e-05 -1.12784285e-07  0.00000000e+00  0.00000000e+00
  0.00000000e+00 -2.38863536e-06 -1.12784285e-07  1.67602346e-05
  0.00000000e+00  0.00000000e+00  0.00000000e+00 -1.25430911e-06
  0.00000000e+00  0.00000000e+00  0.00000000e+00  0.00000000e+00
  0.00000000e+00  0.00000000e+00  0.00000000e+00  0.00000000e+00
  0.00000000e+00  0.00000000e+00  0.00000000e+00  0.00000000e+00
  0.00000000e+00  0.00000000e+00  0.00000000e+00  0.00000000e+00
  0.00000000e+00  0.00000000e+00 -2.38863536e-06 -1.25430911e-06
  0.00000000e+00  0.00000000e+00  0.00000000e+00  4.14527311e-06]","[[-0.00035072  0.01132545]
 [-0.00031865 -0.00269447]]",[],0.0,0.0
1787561679.2427404,1.6404011962582028,1.0347943251422618,2.1110623250676843,"[ 2.19100953e-05 -1.12784285e-07  0.00000000e+00  0.00000000e+00
  0.00000000e+00 -2.38863536e-06 -1.12784285e-07  1.67602346e-05
  0.00000000e+00  0.00000000e+00  0.00000000e+00 -1.25430911e-06
  0.00000000e+00  0.00000000e+00  0.00000000e+00  0.00000000e+00
  0.00000000e+00  0.00000000e+00  0.00000000e+00  0.00000000e+00
  0.00000000e+00  0.00000000e+00  0.00000000e+00  0.00000000e+00
  0.00000000e+00  0.00000000e+00  0.00000000e+00  0.00000000e+00
  0.00000000e+00  0.00000000e+00 -2.38863536e-06 -1.25430911e-06
  0.00000000e+00  0.00000000e+00  0.00000000e+00  4.14527311e-06]","[[-0.00035072  0.01132545]
 [-0.00031865 -0.00269447]]",[],0.0,0.0
1787561679.292744,1.6404011962582028,1.0347943251422618,2.1110623250676843,"[ 2.19100953e-05 -1.12784285e-07  0.00000000e+00  0.00000000e+00
  0.00000000e+00 -2.38863536e-06 -1.12784285e-07  1.67602346e-05
  0.00000000e+00  0.00000000e+00  0.00000000e+00 -1.25430911e-06
  0.00000000e+00  0.00000000e+00  0.00000000e+00  0.00000000e+00
  0.00000000e+00  0.00000000e+00  0.00000000e+00  0.00000000e+00
  0.00000000e+00  0.00000000e+00  0.00000000e+00  0.00000000e+00
  0.00000000e+00  0.00000000e+00  0.00000000e+00  0.00000000e+00
  0.00000000e+00  0.00000000e+00 -2.38863536e-06 -1.25430911e-06
  0.00000000e+00  0.00000000e+00  0.00000000e+00  4.14527311e-06]","[[-0.00035072  0.01132545]
 [-0.00031865 -0.00269447]]",[],0.0,0.0
1787561679.3465567,1.6404011962582028,1.0347943251422618,2.1110623250676843,"[ 2.19100953e-05 -1.12784285e-07  0.00000000e+00  0.00000000e+00
  0.00000000e+00 -2.38863536e-06 -1.12784285e-07  1.67602346e-05
  0.00000000e+00  0.00000000e+00  0.00000000e+00 -1.25430911e-06
  0.00000000e+00  0.00000000e+00  0.00000000e+00  0.00000000e+00
  0.00000000e+00  0.00000000e+00  0.00000000e+00  0.00000000e+00
  0.00000000e+00  0.00000000e+00  0.00000000e+00  0.00000000e+00
  0.00000000e+00  0.00000000e+00  0.00000000e+00  0.00000000e+00
  0.00000000e+00  0.00000000e+00 -2.38863536e-06 -1.25430911e-06
  0.00000000e+00  0.00000000e+00  0.00000000e+00  4.14527311e-06]","[[-0.00035072  0.01132545]
 [-0.00031865 -0.00269447]]",[],0.0,0.0
1787561679.3931684,1.6404011962582028,1.0347943251422618,2.1110623250676843,"[ 2.19100953e-05 -1.12784285e-07  0.00000000e+00  0.00000000e+00
  0.00000000e+00 -2.38863536e-06 -1.12784285e-07  1.67602346e-05
  0.00000000e+00  0.00000000e+00  0.00000000e+00 -1.25430911e-06
  0.00000000e+00  0.00000000e+00  0.00000000e+00  0.00000000e+00
  0.00000000e+00  0.00000000e+00  0.00000000e+00  0.00000000e+00
  0.00000000e+00  0.00000000e+00  0.00000000e+00  0.00000000e+00
  0.00000000e+00  0.00000000e+00  0.00000000e+00  0.00000000e+00
  0.00000000e+00  0.00000000e+00 -2.38863536e-06 -1.25430911e-06
  0.00000000e+00  0.00000000e+00  0.00000000e+00  4.14527311e-06]","[[-0.00035072  0.01132545]
 [-0.00031865 -0.00269447]]",[],0.0,0.0
1787561679.4422367,1.6404011962582028,1.0347943251422618,2.1110623250676843,"[ 2.19100953e-05 -1.12784285e-07  0.00000000e+00  0.00000000e+00
  0.00000000e+00 -2.38863536e-06 -1.12784285e-07  1.67602346e-05
  0.00000000e+00  0.00000000e+00  0.00000000e+00 -1.25430911e-06
  0.00000000e+00  0.00000000e+00  0.00000000e+00  0.00000000e+00
  0.00000000e+00  0.00000000e+00  0.00000000e+00  0.00000000e+00
  0.00000000e+00  0.00000000e+00  0.00000000e+00  0.00000000e+00
  0.00000000e+00  0.00000000e+00  0.00000000e+00  0.00000000e+00
  0.00000000e+00  0.00000000e+00 -2.38863536e-06 -1.25430911e-06
  0.00000000e+00  0.00000000e+00  0.00000000e+00  4.14527311e-06]","[[-0.00035072  0.01132545]
 [-0.00031865 -0.00269447]]",[],0.0,0.0
1787561679.4933524,1.6404011962582028,1.0347943251422618,2.1110623250676843,"[ 2.19100953e-05 -1.12784285e-07  0.00000000e+00  0.00000000e+00
  0.00000000e+00 -2.38863536e-06 -1.12784285e-07  1.67602346e-05
  0.00000000e+00  0.00000000e+00  0.00000000e+00 -1.25430911e-06
  0.00000000e+00  0.00000000e+00  0.00000000e+00  0.00000000e+00
  0.00000000e+00  0.00000000e+00  0.00000000e+00  0.00000000e+00
  0.00000000e+00  0.00000000e+00  0.00000000e+00  0.00000000e+00
  0.00000000e+00  0.00000000e+00  0.00000000e+00  0.00000000e+00
  0.00000000e+00  0.00000000e+00 -2.38863536e-06 -1.25430911e-06
  0.00000000e+00  0.00000000e+00  0.00000000e+00  4.14527311e-06]","[[-0.00035072  0.01132545]
 [-0.00031865 -0.00269447]]",[],0.0,0.0
1787561679.5427902,1.6404011962582028,1.0347943251422618,2.1110623250676843,"[ 2.19100953e-05 -1.12784285e-07  0.00000000e+00  0.00000000e+00
  0.00000000e+00 -2.38863536e-06 -1.12784285e-07  1.67602346e-05
  0.00000000e+00  0.00000000e+00  0.00000000e+00 -1.25430911e-06
  0.00000000e+00  0.00000000e+00  0.00000000e+00  0.00000000e+00
  0.00000000e+00  0.00000000e+00  0.00000000e+00  0.00000000e+00
  0.00000000e+00  0.00000000e+00  0.00000000e+00  0.00000000e+00
  0.00000000e+00  0.00000000e+00  0.00000000e+00  0.00000000e+00
  0.00000000e+00  0.00000000e+00 -2.38863536e-06 -1.25430911e-06
  0.00000000e+00  0.00000000e+00  0.00000000e+00  4.14527311e-06]","[[-0.00035072  0.01132545]
 [-0.00031865 -0.00269447]]",[],0.0,0.0
1787561679.5941544,1.6404011962582028,1.0347943251422618,2.1110623250676843,"[ 2.19100953e-05 -1.12784285e-07  0.00000000e+00  0.00000000e+00
  0.00000000e+00 -2.38863536e-06 -1.12784285e-07  1.67602346e-05
  0.00000000e+00  0.00000000e+00  0.00000000e+00 -1.25430911e-06
  0.00000000e+00  0.00000000e+00  0.00000000e+00  0.00000000e+00
  0.00000000e+00  0.00000000e+00  0.00000000e+00  0.00000000e+00
  0.00000000e+00  0.00000000e+00  0.00000000e+00  0.00000000e+00
  0.00000000e+00  0.00000000e+00  0.00000000e+00  0.00000000e+00
  0.00000000e+00  0.00000000e+00 -2.38863536e-06 -1.25430911e-06
  0.00000000e+00  0.00000000e+00  0.00000000e+00  4.14527311e-06]","[[-0.00035072  0.01132545]
 [-0.00031865 -0.00269447]]",[],0.0,0.0
1787561679.6496036,1.6404011962582028,1.0347943251422618,2.1110623250676843,"[ 2.19100953e-05 -1.12784285e-07  0.00000000e+00  0.00000000e+00
  0.00000000e+00 -2.38863536e-06 -1.12784285e-07  1.67602346e-05
  0.00000000e+00  0.00000000e+00  0.00000000e+00 -1.25430911e-06
  0.00000000e+00  0.00000000e+00  0.00000000e+00  0.00000000e+00
  0.00000000e+00  0.00000000e+00  0.00000000e+00  0.00000000e+00
  0.00000000e+00  0.00000000e+00  0.00000000e+00  0.00000000e+00
  0.00000000e+00  0.00000000e+00  0.00000000e+00  0.00000000e+00
  0.00000000e+00  0.00000000e+00 -2.38863536e-06 -1.25430911e-06
  0.00000000e+00  0.00000000e+00  0.00000000e+00  4.14527311e-06]","[[-0.00035072  0.01132545]
 [-0.00031865 -0.00269447]]",[],0.0,0.0
1787561679.692749,1.6404011962582028,1.0347943251422618,2.1110623250676843,"[ 2.19100953e-05 -1.12784285e-07  0.00000000e+00  0.00000000e+00
  0.00000000e+00 -2.38863536e-06 -1.12784285e-07  1.67602346e-05
  0.00000000e+00  0.00000000e+00  0.00000000e+00 -1.25430911e-06
  0.00000000e+00  0.00000000e+00  0.00000000e+00  0.00000000e+00
  0.00000000e+00  0.00000000e+00  0.00000000e+00  0.00000000e+00
  0.00000000e+00  0.00000000e+00  0.00000000e+00  0.00000000e+00
  0.00000000e+00  0.00000000e+00  0.00000000e+00  0.00000000e+00
  0.00000000e+00  0.00000000e+00 -2.38863536e-06 -1.25430911e-06
  0.00000000e+00  0.00000000e+00  0.00000000e+00  4.14527311e-06]","[[-0.00035072  0.01132545]
 [-0.00031865 -0.00269447]]",[],0.0,0.0
1787561679.7430782,1.6404011962582028,1.0347943251422618,2.1110623250676843,"[ 2.19100953e-05 -1.12784285e-07  0.00000000e+00  0.00000000e+00
  0.00000000e+00 -2.38863536e-06 -1.12784285e-07  1.67602346e-05
  0.00000000e+00  0.00000000e+00  0.00000000e+00 -1.25430911e-06
  0.00000000e+00  0.00000000e+00  0.00000000e+00  0.00000000e+00
  0.00000000e+00  0.00000000e+00  0.00000000e+00  0.00000000e+00
  0.00000000e+00  0.00000000e+00  0.00000000e+00  0.00000000e+00
  0.00000000e+00  0.00000000e+00  0.00000000e+00  0.00000000e+00
  0.00000000e+00  0.00000000e+00 -2.38863536e-06 -1.25430911e-06
  0.00000000e+00  0.00000000e+00  0.00000000e+00  4.14527311e-06]","[[-0.00035072  0.01132545]
 [-0.00031865 -0.00269447]]",[],0.0,0.0
1787561679.794924,1.6404011962582028,1.0347943251422618,2.1110623250676843,"[ 2.19100953e-05 -1.12784285e-07  0.00000000e+00  0.00000000e+00
  0.00000000e+00 -2.38863536e-06 -1.12784285e-07  1.67602346e-05
  0.00000000e+00  0.00000000e+00  0.00000000e+00 -1.25430911e-06
  0.00000000e+00  0.00000000e+00  0.00000000e+00  0.00000000e+00
  0.00000000e+00  0.00000000e+00  0.00000000e+00  0.00000000e+00
  0.00000000e+00  0.00000000e+00  0.00000000e+00  0.00000000e+00
  0.00000000e+00  0.00000000e+00  0.00000000e+00  0.00000000e+00
  0.00000000e+00  0.00000000e+00 -2.38863536e-06 -1.25430911e-06
  0.00000000e+00  0.00000000e+00  0.00000000e+00  4.14527311e-06]","[[-0.00035072  0.01132545]
 [-0.00031865 -0.00269447]]",[],0.0,0.0
1787561679.844186,1.6404011962582028,1.0347943251422618,2.1110623250676843,"[ 2.19100953e-05 -1.12784285e-07  0.00000000e+00  0.00000000e+00
  0.00000000e+00 -2.38863536e-06 -1.12784285e-07  1.67602346e-05
  0.00000000e+00  0.00000000e+00  0.00000000e+00 -1.25430911e-06
  0.00000000e+00  0.00000000e+00  0.00000000e+00  0.00000000e+00
  0.00000000e+00  0.00000000e+00  0.00000000e+00  0.00000000e+00
  0.00000000e+00  0.00000000e+00  0.00000000e+00  0.00000000e+00
  0.00000000e+00  0.00000000e+00  0.00000000e+00  0.00000000e+00
  0.00000000e+00  0.00000000e+00 -2.38863536e-06 -1.25430911e-06
  0.00000000e+00  0.00000000e+00  0.00000000e+00  4.14527311e-06]","[[-0.00035072  0.01132545]
 [-0.00031865 -0.00269447]]",[],0.0,0.0
1787561679.8936336,1.6404011962582028,1.0347943251422618,2.1110623250676843,"[ 2.19100953e-05 -1.12784285e-07  0.00000000e+00  0.00000000e+00
  0.00000000e+00 -2.38863536e-06 -1.12784285e-07  1.67602346e-05
  0.00000000e+00  0.00000000e+00  0.00000000e+00 -1.25430911e-06
  0.00000000e+00  0.00000000e+00  0.00000000e+00  0.00000000e+00
  0.00000000e+00  0.00000000e+00  0.00000000e+00  0.00000000e+00
  0.00000000e+00  0.00000000e+00  0.00000000e+00  0.00000000e+00
  0.00000000e+00  0.00000000e+00  0.00000000e+00  0.00000000e+00
  0.00000000e+00  0.00000000e+00 -2.38863536e-06 -1.25430911e-06
  0.00000000e+00  0.00000000e+00  0.00000000e+00  4.14527311e-06]","[[-0.00035072  0.01132545]
 [-0.00031865 -0.00269447]]",[],0.0,0.0
1787561679.9441862,1.6404011962582028,1.0347943251422618,2.1110623250676843,"[ 2.19100953e-05 -1.12784285e-07  0.00000000e+00  0.00000000e+00
  0.00000000e+00 -2.38863536e-06 -1.12784285e-07  1.67602346e-05
  0.00000000e+00  0.00000000e+00  0.00000000e+00 -1.25430911e-06
  0.00000000e+00  0.00000000e+00  0.00000000e+00  0.00000000e+00
  0.00000000e+00  0.00000000e+00  0.00000000e+00  0.00000000e+00
  0.00000000e+00  0.00000000e+00  0.00000000e+00  0.00000000e+00
  0.00000000e+00  0.00000000e+00  0.00000000e+00  0.00000000e+00
  0.00000000e+00  0.00000000e+00 -2.38863536e-06 -1.25430911e-06
  0.00000000e+00  0.00000000e+00  0.00000000e+00  4.14527311e-06]","[[-0.00035072  0.01132545]
 [-0.00031865 -0.00269447]]",[],0.0,0.0
1787561679.9926786,1.6404011962582028,1.0347943251422618,2.1110623250676843,"[ 2.19100953e-05 -1.12784285e-07  0.00000000e+00  0.00000000e+00
  0.00000000e+00 -2.38863536e-06 -1.12784285e-07  1.67602346e-05
  0.00000000e+00  0.00000000e+00  0.00000000e+00 -1.25430911e-06
  0.00000000e+00  0.00000000e+00  0.00000000e+00  0.00000000e+00
  0.00000000e+00  0.00000000e+00  0.00000000e+00  0.00000000e+00
  0.00000000e+00  0.00000000e+00  0.00000000e+00  0.00000000e+00
  0.00000000e+00  0.00000000e+00  0.00000000e+00  0.00000000e+00
  0.00000000e+00  0.00000000e+00 -2.38863536e-06 -1.25430911e-06
  0.00000000e+00  0.00000000e+00  0.00000000e+00  4.14527311e-06]","[[-0.00035072  0.01132545]
 [-0.00031865 -0.00269447]]",[],0.0,0.0
1787561680.0451405,1.6511199034235022,1.0243005566787482,2.2094175247340813,"[ 1.63099609e-05 -3.07738430e-07  0.00000000e+00  0.00000000e+00
  0.00000000e+00 -1.44463683e-06 -3.07738430e-07  1.23872620e-05
  0.00000000e+00  0.00000000e+00  0.00000000e+00 -5.65821977e-07
  0.00000000e+00  0.00000000e+00  0.00000000e+00  0.00000000e+00
  0.00000000e+00  0.00000000e+00  0.00000000e+00  0.00000000e+00
  0.00000000e+00  0.00000000e+00  0.00000000e+00  0.00000000e+00
  0.00000000e+00  0.00000000e+00  0.00000000e+00  0.00000000e+00
  0.00000000e+00  0.00000000e+00 -1.44463683e-06 -5.65821977e-07
  0.00000000e+00  0.00000000e+00  0.00000000e+00  3.76366433e-06]","[[-0.00025591  0.00795374]
 [-0.00023247 -0.00265184]]",[],0.0,0.0
1787561680.0936387,1.6511199034235022,1.0243005566787482,2.2094175247340813,"[ 1.63099609e-05 -3.07738430e-07  0.00000000e+00  0.00000000e+00
  0.00000000e+00 -1.44463683e-06 -3.07738430e-07  1.23872620e-05
  0.00000000e+00  0.00000000e+00  0.00000000e+00 -5.65821977e-07
  0.00000000e+00  0.00000000e+00  0.00000000e+00  0.00000000e+00
  0.00000000e+00  0.00000000e+00  0.00000000e+00  0.00000000e+00
  0.00000000e+00  0.00000000e+00  0.00000000e+00  0.00000000e+00
  0.00000000e+00  0.00000000e+00  0.00000000e+00  0.00000000e+00
  0.00000000e+00  0.00000000e+00 -1.44463683e-06 -5.65821977e-07
  0.00000000e+00  0.00000000e+00  0.00000000e+00  3.76366433e-06]","[[-0.00025591  0.00795374]
 [-0.00023247 -0.00265184]]",[],0.0,0.0
1787561680.1422513,1.6511199034235022,1.0243005566787482,2.2094175247340813,"[ 1.63099609e-05 -3.07738430e-07  0.00000000e+00  0.00000000e+00
  0.00000000e+00 -1.44463683e-06 -3.07738430e-07  1.23872620e-05
  0.00000000e+00  0.00000000e+00  0.00000000e+00 -5.65821977e-07
  0.00000000e+00  0.00000000e+00  0.00000000e+00  0.00000000e+00
  0.00000000e+00  0.00000000e+00  0.00000000e+00  0.00000000e+00
  0.00000000e+00  0.00000000e+00  0.00000000e+00  0.00000000e+00
  0.00000000e+00  0.00000000e+00  0.00000000e+00  0.00000000e+00
  0.00000000e+00  0.00000000e+00 -1.44463683e-06 -5.65821977e-07
  0.00000000e+00  0.00000000e+00  0.00000000e+00  3.76366433e-06]","[[-0.00025591  0.00795374]
 [-0.00023247 -0.00265184]]",[],0.0,0.0
1787561680.1945438,1.6511199034235022,1.0243005566787482,2.2094175247340813,"[ 1.63099609e-05 -3.07738430e-07  0.00000000e+00  0.00000000e+00
  0.00000000e+00 -1.44463683e-06 -3.07738430e-07  1.23872620e-05
  0.00000000e+00  0.00000000e+00  0.00000000e+00 -5.65821977e-07
  0.00000000e+00  0.00000000e+00  0.00000000e+00  0.00000000e+00
  0.00000000e+00  0.00000000e+00  0.00000000e+00  0.00000000e+00
  0.00000000e+00  0.00000000e+00  0.00000000e+00  0.00000000e+00
  0.00000000e+00  0.00000000e+00  0.00000000e+00  0.00000000e+00
  0.00000000e+00  0.00000000e+00 -1.44463683e-06 -5.65821977e-07
  0.00000000e+00  0.00000000e+00  0.00000000e+00  3.76366433e-06]","[[-0.00025591  0.00795374]
 [-0.00023247 -0.00265184]]",[],0.0,0.0
1787561680.2421703,1.6511199034235022,1.0243005566787482,2.2094175247340813,"[ 1.63099609e-05 -3.07738430e-07  0.00000000e+00  0.00000000e+00
  0.00000000e+00 -1.44463683e-06 -3.07738430e-07  1.23872620e-05
  0.00000000e+00  0.00000000e+00  0.00000000e+00 -5.65821977e-07
  0.00000000e+00  0.00000000e+00  0.00000000e+00  0.00000000e+00
  0.00000000e+00  0.00000000e+00  0.00000000e+00  0.00000000e+00
  0.00000000e+00  0.00000000e+00  0.00000000e+00  0.00000000e+00
  0.00000000e+00  0.00000000e+00  0.00000000e+00  0.00000000e+00
  0.00000000e+00  0.00000000e+00 -1.44463683e-06 -5.65821977e-07
  0.00000000e+00  0.00000000e+00  0.00000000e+00  3.76366433e-06]","[[-0.00025591  0.00795374]
 [-0.00023247 -0.00265184]]",[],0.0,0.0
1787561680.2924864,1.6511199034235022,1.0243005566787482,2.2094175247340813,"[ 1.63099609e-05 -3.07738430e-07  0.00000000e+00  0.00000000e+00
  0.00000000e+00 -1.44463683e-06 -3.07738430e-07  1.23872620e-05
  0.00000000e+00  0.00000000e+00  0.00000000e+00 -5.65821977e-07
  0.00000000e+00  0.00000000e+00  0.00000000e+00  0.00000000e+00
  0.00000000e+00  0.00000000e+00  0.00000000e+00  0.00000000e+00
  0.00000000e+00  0.00000000e+00  0.00000000e+00  0.00000000e+00
  0.00000000e+00  0.00000000e+00  0.00000000e+00  0.00000000e+00
  0.00000000e+00  0.00000000e+00 -1.44463683e-06 -5.65821977e-07
  0.00000000e+00  0.00000000e+00  0.00000000e+00  3.76366433e-06]","[[-0.00025591  0.00795374]
 [-0.00023247 -0.00265184]]",[],0.0,0.0
1787561680.342524,1.6511199034235022,1.0243005566787482,2.2094175247340813,"[ 1.63099609e-05 -3.07738430e-07  0.00000000e+00  0.00000000e+00
  0.00000000e+00 -1.44463683e-06 -3.07738430e-07  1.23872620e-05
  0.00000000e+00  0.00000000e+00  0.00000000e+00 -5.65821977e-07
  0.00000000e+00  0.00000000e+00  0.00000000e+00  0.00000000e+00
  0.00000000e+00  0.00000000e+00  0.00000000e+00  0.00000000e+00
  0.00000000e+00  0.00000000e+00  0.00000000e+00  0.00000000e+00
  0.00000000e+00  0.00000000e+00  0.00000000e+00  0.00000000e+00
  0.00000000e+00  0.00000000e+00 -1.44463683e-06 -5.65821977e-07
  0.00000000e+00  0.00000000e+00  0.00000000e+00  3.76366433e-06]","[[-0.00025591  0.00795374]
 [-0.00023247 -0.00265184]]",[],0.0,0.0
1787561680.403457,1.6511199034235022,1.0243005566787482,2.2094175247340813,"[ 1.63099609e-05 -3.07738430e-07  0.00000000e+00  0.00000000e+00
  0.00000000e+00 -1.44463683e-06 -3.07738430e-07  1.23872620e-05
  0.00000000e+00  0.00000000e+00  0.00000000e+00 -5.65821977e-07
  0.00000000e+00  0.00000000e+00  0.00000000e+00  0.00000000e+00
  0.00000000e+00  0.00000000e+00  0.00000000e+00  0.00000000e+00
  0.00000000e+00  0.00000000e+00  0.00000000e+00  0.00000000e+00
  0.00000000e+00  0.00000000e+00  0.00000000e+00  0.00000000e+00
  0.00000000e+00  0.00000000e+00 -1.44463683e-06 -5.65821977e-07
  0.00000000e+00  0.00000000e+00  0.00000000e+00  3.76366433e-06]","[[-0.00025591  0.00795374]
 [-0.00023247 -0.00265184]]",[],0.0,0.0
1787561680.454352,1.6511199034235022,1.0243005566787482,2.2094175247340813,"[ 1.63099609e-05 -3.07738430e-07  0.00000000e+00  0.00000000e+00
  0.00000000e+00 -1.44463683e-06 -3.07738430e-07  1.23872620e-05
  0.00000000e+00  0.00000000e+00  0.00000000e+00 -5.65821977e-07
  0.00000000e+00  0.00000000e+00  0.00000000e+00  0.00000000e+00
  0.00000000e+00  0.00000000e+00  0.00000000e+00  0.00000000e+00
  0.00000000e+00  0.00000000e+00  0.00000000e+00  0.00000000e+00
  0.00000000e+00  0.00000000e+00  0.00000000e+00  0.00000000e+00
  0.00000000e+00  0.00000000e+00 -1.44463683e-06 -5.65821977e-07
  0.00000000e+00  0.00000000e+00  0.00000000e+00  3.76366433e-06]","[[-0.00025591  0.00795374]
 [-0.00023247 -0.00265184]]",[],0.0,0.0
1787561680.4934504,1.6511199034235022,1.0243005566787482,2.2094175247340813,"[ 1.63099609e-05 -3.07738430e-07  0.00000000e+00  0.00000000e+00
  0.00000000e+00 -1.44463683e-06 -3.07738430e-07  1.23872620e-05
  0.00000000e+00  0.00000000e+00  0.00000000e+00 -5.65821977e-07
  0.00000000e+00  0.00000000e+00  0.00000000e+00  0.00000000e+00
  0.00000000e+00  0.00000000e+00  0.00000000e+00  0.00000000e+00
  0.00000000e+00  0.00000000e+00  0.00000000e+00  0.00000000e+00
  0.00000000e+00  0.00000000e+00  0.00000000e+00  0.00000000e+00
  0.00000000e+00  0.00000000e+00 -1.44463683e-06 -5.65821977e-07
  0.00000000e+00  0.00000000e+00  0.00000000e+00  3.76366433e-06]","[[-0.00025591  0.00795374]
 [-0.00023247 -0.00265184]]",[],0.0,0.0
1787561680.543015,1.6511199034235022,1.0243005566787482,2.2094175247340813,"[ 1.63099609e-05 -3.07738430e-07  0.00000000e+00  0.00000000e+00
  0.00000000e+00 -1.44463683e-06 -3.07738430e-07  1.23872620e-05
  0.00000000e+00  0.00000000e+00  0.00000000e+00 -5.65821977e-07
  0.00000000e+00  0.00000000e+00  0.00000000e+00  0.00000000e+00
  0.00000000e+00  0.00000000e+00  0.00000000e+00  0.00000000e+00
  0.00000000e+00  0.00000000e+00  0.00000000e+00  0.00000000e+00
  0.00000000e+00  0.00000000e+00  0.00000000e+00  0.00000000e+00
  0.00000000e+00  0.00000000e+00 -1.44463683e-06 -5.65821977e-07
  0.00000000e+00  0.00000000e+00  0.00000000e+00  3.76366433e-06]","[[-0.00025591  0.00795374]
 [-0.00023247 -0.00265184]]",[],0.0,0.0
1787561680.5933518,1.6511199034235022,1.0243005566787482,2.2094175247340813,"[ 1.63099609e-05 -3.07738430e-07  0.00000000e+00  0.00000000e+00
  0.00000000e+00 -1.44463683e-06 -3.07738430e-07  1.23872620e-05
  0.00000000e+00  0.00000000e+00  0.00000000e+00 -5.65821977e-07
  0.00000000e+00  0.00000000e+00  0.00000000e+00  0.00000000e+00
  0.00000000e+00  0.00000000e+00  0.00000000e+00  0.00000000e+00
  0.00000000e+00  0.00000000e+00  0.00000000e+00  0.00000000e+00
  0.00000000e+00  0.00000000e+00  0.00000000e+00  0.00000000e+00
  0.00000000e+00  0.00000000e+00 -1.44463683e-06 -5.65821977e-07
  0.00000000e+00  0.00000000e+00  0.00000000e+00  3.76366433e-06]","[[-0.00025591  0.00795374]
 [-0.00023247 -0.00265184]]",[],0.0,0.0
1787561680.6498709,1.6511199034235022,1.0243005566787482,2.2094175247340813,"[ 1.63099609e-05 -3.07738430e-07  0.00000000e+00  0.00000000e+00
  0.00000000e+00 -1.44463683e-06 -3.07738430e-07  1.23872620e-05
  0.00000000e+00  0.00000000e+00  0.00000000e+00 -5.65821977e-07
  0.00000000e+00  0.00000000e+00  0.00000000e+00  0.00000000e+00
  0.00000000e+00  0.00000000e+00  0.00000000e+00  0.00000000e+00
  0.00000000e+00  0.00000000e+00  0.00000000e+00  0.00000000e+00
  0.00000000e+00  0.00000000e+00  0.00000000e+00  0.00000000e+00
  0.00000000e+00  0.00000000e+00 -1.44463683e-06 -5.65821977e-07
  0.00000000e+00  0.00000000e+00  0.00000000e+00  3.76366433e-06]","[[-0.00025591  0.00795374]
 [-0.00023247 -0.00265184]]",[],0.0,0.0
1787561680.6924784,1.6511199034235022,1.0243005566787482,2.2094175247340813,"[ 1.63099609e-05 -3.07738430e-07  0.00000000e+00  0.00000000e+00
  0.00000000e+00 -1.44463683e-06 -3.07738430e-07  1.23872620e-05
  0.00000000e+00  0.00000000e+00  0.00000000e+00 -5.65821977e-07
  0.00000000e+00  0.00000000e+00  0.00000000e+00  0.00000000e+00
  0.00000000e+00  0.00000000e+00  0.00000000e+00  0.00000000e+00
  0.00000000e+00  0.00000000e+00  0.00000000e+00  0.00000000e+00
  0.00000000e+00  0.00000000e+00  0.00000000e+00  0.00000000e+00
  0.00000000e+00  0.00000000e+00 -1.44463683e-06 -5.65821977e-07
  0.00000000e+00  0.00000000e+00  0.00000000e+00  3.76366433e-06]","[[-0.00025591  0.00795374]
 [-0.00023247 -0.00265184]]",[],0.0,0.0
1787561680.7425358,1.6511199034235022,1.0243005566787482,2.2094175247340813,"[ 1.63099609e-05 -3.07738430e-07  0.00000000e+00  0.00000000e+00
  0.00000000e+00 -1.44463683e-06 -3.07738430e-07  1.23872620e-05
  0.00000000e+00  0.00000000e+00  0.00000000e+00 -5.65821977e-07
  0.00000000e+00  0.00000000e+00  0.00000000e+00  0.00000000e+00
  0.00000000e+00  0.00000000e+00  0.00000000e+00  0.00000000e+00
  0.00000000e+00  0.00000000e+00  0.00000000e+00  0.00000000e+00
  0.00000000e+00  0.00000000e+00  0.00000000e+00  0.00000000e+00
  0.00000000e+00  0.00000000e+00 -1.44463683e-06 -5.65821977e-07
  0.00000000e+00  0.00000000e+00  0.00000000e+00  3.76366433e-06]","[[-0.00025591  0.00795374]
 [-0.00023247 -0.00265184]]",[],0.0,0.0
1787561680.7928414,1.6511199034235022,1.0243005566787482,2.2094175247340813,"[ 1.63099609e-05 -3.07738430e-07  0.00000000e+00  0.00000000e+00
  0.00000000e+00 -1.44463683e-06 -3.07738430e-07  1.23872620e-05
  0.00000000e+00  0.00000000e+00  0.00000000e+00 -5.65821977e-07
  0.00000000e+00  0.00000000e+00  0.00000000e+00  0.00000000e+00
  0.00000000e+00  0.00000000e+00  0.00000000e+00  0.00000000e+00
  0.00000000e+00  0.00000000e+00  0.00000000e+00  0.00000000e+00
  0.00000000e+00  0.00000000e+00  0.00000000e+00  0.00000000e+00
  0.00000000e+00  0.00000000e+00 -1.44463683e-06 -5.65821977e-07
  0.00000000e+00  0.00000000e+00  0.00000000e+00  3.76366433e-06]","[[-0.00025591  0.00795374]
 [-0.00023247 -0.00265184]]",[],0.0,0.0
1787561680.8548055,1.6511199034235022,1.0243005566787482,2.2094175247340813,"[ 1.63099609e-05 -3.07738430e-07  0.00000000e+00  0.00000000e+00
  0.00000000e+00 -1.44463683e-06 -3.07738430e-07  1.23872620e-05
  0.00000000e+00  0.00000000e+00  0.00000000e+00 -5.65821977e-07
  0.00000000e+00  0.00000000e+00  0.00000000e+00  0.00000000e+00
  0.00000000e+00  0.00000000e+00  0.00000000e+00  0.00000000e+00
  0.00000000e+00  0.00000000e+00  0.00000000e+00  0.00000000e+00
  0.00000000e+00  0.00000000e+00  0.00000000e+00  0.00000000e+00
  0.00000000e+00  0.00000000e+00 -1.44463683e-06 -5.65821977e-07
  0.00000000e+00  0.00000000e+00  0.00000000e+00  3.76366433e-06]","[[-0.00025591  0.00795374]
 [-0.00023247 -0.00265184]]",[],0.0,0.0
1787561680.8976653,1.6511199034235022,1.0243005566787482,2.2094175247340813,"[ 1.63099609e-05 -3.07738430e-07  0.00000000e+00  0.00000000e+00
  0.00000000e+00 -1.44463683e-06 -3.07738430e-07  1.23872620e-05
  0.00000000e+00  0.00000000e+00  0.00000000e+00 -5.65821977e-07
  0.00000000e+00  0.00000000e+00  0.00000000e+00  0.00000000e+00
  0.00000000e+00  0.00000000e+00  0.00000000e+00  0.00000000e+00
  0.00000000e+00  0.00000000e+00  0.00000000e+00  0.00000000e+00
  0.00000000e+00  0.00000000e+00  0.00000000e+00  0.00000000e+00
  0.00000000e+00  0.00000000e+00 -1.44463683e-06 -5.65821977e-07
  0.00000000e+00  0.00000000e+00  0.00000000e+00  3.76366433e-06]","[[-0.00025591  0.00795374]
 [-0.00023247 -0.00265184]]",[],0.0,0.0
1787561680.9438367,1.6511199034235022,1.0243005566787482,2.2094175247340813,"[ 1.63099609e-05 -3.07738430e-07  0.00000000e+00  0.00000000e+00
  0.00000000e+00 -1.44463683e-06 -3.07738430e-07  1.23872620e-05
  0.00000000e+00  0.00000000e+00  0.00000000e+00 -5.65821977e-07
  0.00000000e+00  0.00000000e+00  0.00000000e+00  0.00000000e+00
  0.00000000e+00  0.00000000e+00  0.00000000e+00  0.00000000e+00
  0.00000000e+00  0.00000000e+00  0.00000000e+00  0.00000000e+00
  0.00000000e+00  0.00000000e+00  0.00000000e+00  0.00000000e+00
  0.00000000e+00  0.00000000e+00 -1.44463683e-06 -5.65821977e-07
  0.00000000e+00  0.00000000e+00  0.00000000e+00  3.76366433e-06]","[[-0.00025591  0.00795374]
 [-0.00023247 -0.00265184]]",[],0.0,0.0
1787561680.9970212,1.6511199034235022,1.0243005566787482,2.2094175247340813,"[ 1.63099609e-05 -3.07738430e-07  0.00000000e+00  0.00000000e+00
  0.00000000e+00 -1.44463683e-06 -3.07738430e-07  1.23872620e-05
  0.00000000e+00  0.00000000e+00  0.00000000e+00 -5.65821977e-07
  0.00000000e+00  0.00000000e+00  0.00000000e+00  0.00000000e+00
  0.00000000e+00  0.00000000e+00  0.00000000e+00  0.00000000e+00
  0.00000000e+00  0.00000000e+00  0.00000000e+00  0.00000000e+00
  0.00000000e+00  0.00000000e+00  0.00000000e+00  0.00000000e+00
  0.00000000e+00  0.00000000e+00 -1.44463683e-06 -5.65821977e-07
  0.00000000e+00  0.00000000e+00  0.00000000e+00  3.76366433e-06]","[[-0.00025591  0.00795374]
 [-0.00023247 -0.00265184]]",[],0.0,0.0
1787561681.0444245,1.6511199034235022,1.0243005566787482,2.2094175247340813,"[ 1.63099609e-05 -3.07738430e-07  0.00000000e+00  0.00000000e+00
  0.00000000e+00 -1.44463683e-06 -3.07738430e-07  1.23872620e-05
  0.00000000e+00  0.00000000e+00  0.00000000e+00 -5.65821977e-07
  0.00000000e+00  0.00000000e+00  0.00000000e+00  0.00000000e+00
  0.00000000e+00  0.00000000e+00  0.00000000e+00  0.00000000e+00
  0.00000000e+00  0.00000000e+00  0.00000000e+00  0.00000000e+00
  0.00000000e+00  0.00000000e+00  0.00000000e+00  0.00000000e+00
  0.00000000e+00  0.00000000e+00 -1.44463683e-06 -5.65821977e-07
  0.00000000e+00  0.00000000e+00  0.00000000e+00  3.76366433e-06]","[[-0.00025591  0.00795374]
 [-0.00023247 -0.00265184]]",[],0.0,0.0
1787561681.093555,1.6511199034235022,1.0243005566787482,2.2094175247340813,"[ 1.63099609e-05 -3.07738430e-07  0.00000000e+00  0.00000000e+00
  0.00000000e+00 -1.44463683e-06 -3.07738430e-07  1.23872620e-05
  0.00000000e+00  0.00000000e+00  0.00000000e+00 -5.65821977e-07
  0.00000000e+00  0.00000000e+00  0.00000000e+00  0.00000000e+00
  0.00000000e+00  0.00000000e+00  0.00000000e+00  0.00000000e+00
  0.00000000e+00  0.00000000e+00  0.00000000e+00  0.00000000e+00
  0.00000000e+00  0.00000000e+00  0.00000000e+00  0.00000000e+00
  0.00000000e+00  0.00000000e+00 -1.44463683e-06 -5.65821977e-07
  0.00000000e+00  0.00000000e+00  0.00000000e+00  3.76366433e-06]","[[-0.00025591  0.00795374]
 [-0.00023247 -0.00265184]]",[],0.0,0.0
1787561681.1455078,1.6511199034235022,1.0243005566787482,2.2094175247340813,"[ 1.63099609e-05 -3.07738430e-07  0.00000000e+00  0.00000000e+00
  0.00000000e+00 -1.44463683e-06 -3.07738430e-07  1.23872620e-05
  0.00000000e+00  0.00000000e+00  0.00000000e+00 -5.65821977e-07
  0.00000000e+00  0.00000000e+00  0.00000000e+00  0.00000000e+00
  0.00000000e+00  0.00000000e+00  0.00000000e+00  0.00000000e+00
  0.00000000e+00  0.00000000e+00  0.00000000e+00  0.00000000e+00
  0.00000000e+00  0.00000000e+00  0.00000000e+00  0.00000000e+00
  0.00000000e+00  0.00000000e+00 -1.44463683e-06 -5.65821977e-07
  0.00000000e+00  0.00000000e+00  0.00000000e+00  3.76366433e-06]","[[-0.00025591  0.00795374]
 [-0.00023247 -0.00265184]]",[],0.0,0.0
1787561681.1966953,1.6511199034235022,1.0243005566787482,2.2094175247340813,"[ 1.63099609e-05 -3.07738430e-07  0.00000000e+00  0.00000000e+00
  0.00000000e+00 -1.44463683e-06 -3.07738430e-07  1.23872620e-05
  0.00000000e+00  0.00000000e+00  0.00000000e+00 -5.65821977e-07
  0.00000000e+00  0.00000000e+00  0.00000000e+00  0.00000000e+00
  0.00000000e+00  0.00000000e+00  0.00000000e+00  0.00000000e+00
  0.00000000e+00  0.00000000e+00  0.00000000e+00  0.00000000e+00
  0.00000000e+00  0.00000000e+00  0.00000000e+00  0.00000000e+00
  0.00000000e+00  0.00000000e+00 -1.44463683e-06 -5.65821977e-07
  0.00000000e+00  0.00000000e+00  0.00000000e+00  3.76366433e-06]","[[-0.00025591  0.00795374]
 [-0.00023247 -0.00265184]]",[],0.0,0.0
1787561681.2421134,1.6702171826867829,1.016568965800053,2.3128471142196982,"[ 1.28049308e-05 -1.83860267e-07  0.00000000e+00  0.00000000e+00
  0.00000000e+00 -1.02597463e-06 -1.83860267e-07  1.01286419e-05
  0.00000000e+00  0.00000000e+00  0.00000000e+00 -5.76515717e-07
  0.00000000e+00  0.00000000e+00  0.00000000e+00  0.00000000e+00
  0.00000000e+00  0.00000000e+00  0.00000000e+00  0.00000000e+00
  0.00000000e+00  0.00000000e+00  0.00000000e+00  0.00000000e+00
  0.00000000e+00  0.00000000e+00  0.00000000e+00  0.00000000e+00
  0.00000000e+00  0.00000000e+00 -1.02597463e-06 -5.76515717e-07
  0.00000000e+00  0.00000000e+00  0.00000000e+00  3.84672668e-06]","[[-0.00018287  0.00943322]
 [-0.00020307 -0.00350165]]",[],0.0,0.0
1787561681.2923737,1.6702171826867829,1.016568965800053,2.3128471142196982,"[ 1.28049308e-05 -1.83860267e-07  0.00000000e+00  0.00000000e+00
  0.00000000e+00 -1.02597463e-06 -1.83860267e-07  1.01286419e-05
  0.00000000e+00  0.00000000e+00  0.00000000e+00 -5.76515717e-07
  0.00000000e+00  0.00000000e+00  0.00000000e+00  0.00000000e+00
  0.00000000e+00  0.00000000e+00  0.00000000e+00  0.00000000e+00
  0.00000000e+00  0.00000000e+00  0.00000000e+00  0.00000000e+00
  0.00000000e+00  0.00000000e+00  0.00000000e+00  0.00000000e+00
  0.00000000e+00  0.00000000e+00 -1.02597463e-06 -5.76515717e-07
  0.00000000e+00  0.00000000e+00  0.00000000e+00  3.84672668e-06]","[[-0.00018287  0.00943322]
 [-0.00020307 -0.00350165]]",[],0.0,0.0
1787561681.3433657,1.6702171826867829,1.016568965800053,2.3128471142196982,"[ 1.28049308e-05 -1.83860267e-07  0.00000000e+00  0.00000000e+00
  0.00000000e+00 -1.02597463e-06 -1.83860267e-07  1.01286419e-05
  0.00000000e+00  0.00000000e+00  0.00000000e+00 -5.76515717e-07
  0.00000000e+00  0.00000000e+00  0.00000000e+00  0.00000000e+00
  0.00000000e+00  0.00000000e+00  0.00000000e+00  0.00000000e+00
  0.00000000e+00  0.00000000e+00  0.00000000e+00  0.00000000e+00
  0.00000000e+00  0.00000000e+00  0.00000000e+00  0.00000000e+00
  0.00000000e+00  0.00000000e+00 -1.02597463e-06 -5.76515717e-07
  0.00000000e+00  0.00000000e+00  0.00000000e+00  3.84672668e-06]","[[-0.00018287  0.00943322]
 [-0.00020307 -0.00350165]]",[],0.0,0.0
1787561681.3933387,1.6702171826867829,1.016568965800053,2.3128471142196982,"[ 1.28049308e-05 -1.83860267e-07  0.00000000e+00  0.00000000e+00
  0.00000000e+00 -1.02597463e-06 -1.83860267e-07  1.01286419e-05
  0.00000000e+00  0.00000000e+00  0.00000000e+00 -5.76515717e-07
  0.00000000e+00  0.00000000e+00  0.00000000e+00  0.00000000e+00
  0.00000000e+00  0.00000000e+00  0.00000000e+00  0.00000000e+00
  0.00000000e+00  0.00000000e+00  0.00000000e+00  0.00000000e+00
  0.00000000e+00  0.00000000e+00  0.00000000e+00  0.00000000e+00
  0.00000000e+00  0.00000000e+00 -1.02597463e-06 -5.76515717e-07
  0.00000000e+00  0.00000000e+00  0.00000000e+00  3.84672668e-06]","[[-0.00018287  0.00943322]
 [-0.00020307 -0.00350165]]",[],0.0,0.0
1787561681.4475307,1.6702171826867829,1.016568965800053,2.3128471142196982,"[ 1.28049308e-05 -1.83860267e-07  0.00000000e+00  0.00000000e+00
  0.00000000e+00 -1.02597463e-06 -1.83860267e-07  1.01286419e-05
  0.00000000e+00  0.00000000e+00  0.00000000e+00 -5.76515717e-07
  0.00000000e+00  0.00000000e+00  0.00000000e+00  0.00000000e+00
  0.00000000e+00  0.00000000e+00  0.00000000e+00  0.00000000e+00
  0.00000000e+00  0.00000000e+00  0.00000000e+00  0.00000000e+00
  0.00000000e+00  0.00000000e+00  0.00000000e+00  0.00000000e+00
  0.00000000e+00  0.00000000e+00 -1.02597463e-06 -5.76515717e-07
  0.00000000e+00  0.00000000e+00  0.00000000e+00  3.84672668e-06]","[[-0.00018287  0.00943322]
 [-0.00020307 -0.00350165]]",[],0.0,0.0
1787561681.49348,1.6702171826867829,1.016568965800053,2.3128471142196982,"[ 1.28049308e-05 -1.83860267e-07  0.00000000e+00  0.00000000e+00
  0.00000000e+00 -1.02597463e-06 -1.83860267e-07  1.01286419e-05
  0.00000000e+00  0.00000000e+00  0.00000000e+00 -5.76515717e-07
  0.00000000e+00  0.00000000e+00  0.00000000e+00  0.00000000e+00
  0.00000000e+00  0.00000000e+00  0.00000000e+00  0.00000000e+00
  0.00000000e+00  0.00000000e+00  0.00000000e+00  0.00000000e+00
  0.00000000e+00  0.00000000e+00  0.00000000e+00  0.00000000e+00
  0.00000000e+00  0.00000000e+00 -1.02597463e-06 -5.76515717e-07
  0.00000000e+00  0.00000000e+00  0.00000000e+00  3.84672668e-06]","[[-0.00018287  0.00943322]
 [-0.00020307 -0.00350165]]",[],0.0,0.0
1787561681.5427756,1.6702171826867829,1.016568965800053,2.3128471142196982,"[ 1.28049308e-05 -1.83860267e-07  0.00000000e+00  0.00000000e+00
  0.00000000e+00 -1.02597463e-06 -1.83860267e-07  1.01286419e-05
  0.00000000e+00  0.00000000e+00  0.00000000e+00 -5.76515717e-07
  0.00000000e+00  0.00000000e+00  0.00000000e+00  0.00000000e+00
  0.00000000e+00  0.00000000e+00  0.00000000e+00  0.00000000e+00
  0.00000000e+00  0.00000000e+00  0.00000000e+00  0.00000000e+00
  0.00000000e+00  0.00000000e+00  0.00000000e+00  0.00000000e+00
  0.00000000e+00  0.00000000e+00 -1.02597463e-06 -5.76515717e-07
  0.00000000e+00  0.00000000e+00  0.00000000e+00  3.84672668e-06]","[[-0.00018287  0.00943322]
 [-0.00020307 -0.00350165]]",[],0.0,0.0
1787561681.5925727,1.6702171826867829,1.016568965800053,2.3128471142196982,"[ 1.28049308e-05 -1.83860267e-07  0.00000000e+00  0.00000000e+00
  0.00000000e+00 -1.02597463e-06 -1.83860267e-07  1.01286419e-05
  0.00000000e+00  0.00000000e+00  0.00000000e+00 -5.76515717e-07
  0.00000000e+00  0.00000000e+00  0.00000000e+00  0.00000000e+00
  0.00000000e+00  0.00000000e+00  0.00000000e+00  0.00000000e+00
  0.00000000e+00  0.00000000e+00  0.00000000e+00  0.00000000e+00
  0.00000000e+00  0.00000000e+00  0.00000000e+00  0.00000000e+00
  0.00000000e+00  0.00000000e+00 -1.02597463e-06 -5.76515717e-07
  0.00000000e+00  0.00000000e+00  0.00000000e+00  3.84672668e-06]","[[-0.00018287  0.00943322]
 [-0.00020307 -0.00350165]]",[],0.0,0.0
1787561681.6454158,1.6702171826867829,1.016568965800053,2.3128471142196982,"[ 1.28049308e-05 -1.83860267e-07  0.00000000e+00  0.00000000e+00
  0.00000000e+00 -1.02597463e-06 -1.83860267e-07  1.01286419e-05
  0.00000000e+00  0.00000000e+00  0.00000000e+00 -5.76515717e-07
  0.00000000e+00  0.00000000e+00  0.00000000e+00  0.00000000e+00
  0.00000000e+00  0.00000000e+00  0.00000000e+00  0.00000000e+00
  0.00000000e+00  0.00000000e+00  0.00000000e+00  0.00000000e+00
  0.00000000e+00  0.00000000e+00  0.00000000e+00  0.00000000e+00
  0.00000000e+00  0.00000000e+00 -1.02597463e-06 -5.76515717e-07
  0.00000000e+00  0.00000000e+00  0.00000000e+00  3.84672668e-06]","[[-0.00018287  0.00943322]
 [-0.00020307 -0.00350165]]",[],0.0,0.0
1787561681.6966424,1.6702171826867829,1.016568965800053,2.3128471142196982,"[ 1.28049308e-05 -1.83860267e-07  0.00000000e+00  0.00000000e+00
  0.00000000e+00 -1.02597463e-06 -1.83860267e-07  1.01286419e-05
  0.00000000e+00  0.00000000e+00  0.00000000e+00 -5.76515717e-07
  0.00000000e+00  0.00000000e+00  0.00000000e+00  0.00000000e+00
  0.00000000e+00  0.00000000e+00  0.00000000e+00  0.00000000e+00
  0.00000000e+00  0.00000000e+00  0.00000000e+00  0.00000000e+00
  0.00000000e+00  0.00000000e+00  0.00000000e+00  0.00000000e+00
  0.00000000e+00  0.00000000e+00 -1.02597463e-06 -5.76515717e-07
  0.00000000e+00  0.00000000e+00  0.00000000e+00  3.84672668e-06]","[[-0.00018287  0.00943322]
 [-0.00020307 -0.00350165]]",[],0.0,0.0
1787561681.744436,1.6702171826867829,1.016568965800053,2.3128471142196982,"[ 1.28049308e-05 -1.83860267e-07  0.00000000e+00  0.00000000e+00
  0.00000000e+00 -1.02597463e-06 -1.83860267e-07  1.01286419e-05
  0.00000000e+00  0.00000000e+00  0.00000000e+00 -5.76515717e-07
  0.00000000e+00  0.00000000e+00  0.00000000e+00  0.00000000e+00
  0.00000000e+00  0.00000000e+00  0.00000000e+00  0.00000000e+00
  0.00000000e+00  0.00000000e+00  0.00000000e+00  0.00000000e+00
  0.00000000e+00  0.00000000e+00  0.00000000e+00  0.00000000e+00
  0.00000000e+00  0.00000000e+00 -1.02597463e-06 -5.76515717e-07
  0.00000000e+00  0.00000000e+00  0.00000000e+00  3.84672668e-06]","[[-0.00018287  0.00943322]
 [-0.00020307 -0.00350165]]",[],0.0,0.0
1787561681.7932675,1.6702171826867829,1.016568965800053,2.3128471142196982,"[ 1.28049308e-05 -1.83860267e-07  0.00000000e+00  0.00000000e+00
  0.00000000e+00 -1.02597463e-06 -1.83860267e-07  1.01286419e-05
  0.00000000e+00  0.00000000e+00  0.00000000e+00 -5.76515717e-07
  0.00000000e+00  0.00000000e+00  0.00000000e+00  0.00000000e+00
  0.00000000e+00  0.00000000e+00  0.00000000e+00  0.00000000e+00
  0.00000000e+00  0.00000000e+00  0.00000000e+00  0.00000000e+00
  0.00000000e+00  0.00000000e+00  0.00000000e+00  0.00000000e+00
  0.00000000e+00  0.00000000e+00 -1.02597463e-06 -5.76515717e-07
  0.00000000e+00  0.00000000e+00  0.00000000e+00  3.84672668e-06]","[[-0.00018287  0.00943322]
 [-0.00020307 -0.00350165]]",[],0.0,0.0
1787561681.8426154,1.6702171826867829,1.016568965800053,2.3128471142196982,"[ 1.28049308e-05 -1.83860267e-07  0.00000000e+00  0.00000000e+00
  0.00000000e+00 -1.02597463e-06 -1.83860267e-07  1.01286419e-05
  0.00000000e+00  0.00000000e+00  0.00000000e+00 -5.76515717e-07
  0.00000000e+00  0.00000000e+00  0.00000000e+00  0.00000000e+00
  0.00000000e+00  0.00000000e+00  0.00000000e+00  0.00000000e+00
  0.00000000e+00  0.00000000e+00  0.00000000e+00  0.00000000e+00
  0.00000000e+00  0.00000000e+00  0.00000000e+00  0.00000000e+00
  0.00000000e+00  0.00000000e+00 -1.02597463e-06 -5.76515717e-07
  0.00000000e+00  0.00000000e+00  0.00000000e+00  3.84672668e-06]","[[-0.00018287  0.00943322]
 [-0.00020307 -0.00350165]]",[],0.0,0.0
1787561681.8926034,1.6702171826867829,1.016568965800053,2.3128471142196982,"[ 1.28049308e-05 -1.83860267e-07  0.00000000e+00  0.00000000e+00
  0.00000000e+00 -1.02597463e-06 -1.83860267e-07  1.01286419e-05
  0.00000000e+00  0.00000000e+00  0.00000000e+00 -5.76515717e-07
  0.00000000e+00  0.00000000e+00  0.00000000e+00  0.00000000e+00
  0.00000000e+00  0.00000000e+00  0.00000000e+00  0.00000000e+00
  0.00000000e+00  0.00000000e+00  0.00000000e+00  0.00000000e+00
  0.00000000e+00  0.00000000e+00  0.00000000e+00  0.00000000e+00
  0.00000000e+00  0.00000000e+00 -1.02597463e-06 -5.76515717e-07
  0.00000000e+00  0.00000000e+00  0.00000000e+00  3.84672668e-06]","[[-0.00018287  0.00943322]
 [-0.00020307 -0.00350165]]",[],0.0,0.0
1787561681.9420776,1.6702171826867829,1.016568965800053,2.3128471142196982,"[ 1.28049308e-05 -1.83860267e-07  0.00000000e+00  0.00000000e+00
  0.00000000e+00 -1.02597463e-06 -1.83860267e-07  1.01286419e-05
  0.00000000e+00  0.00000000e+00  0.00000000e+00 -5.76515717e-07
  0.00000000e+00  0.00000000e+00  0.00000000e+00  0.00000000e+00
  0.00000000e+00  0.00000000e+00  0.00000000e+00  0.00000000e+00
  0.00000000e+00  0.00000000e+00  0.00000000e+00  0.00000000e+00
  0.00000000e+00  0.00000000e+00  0.00000000e+00  0.00000000e+00
  0.00000000e+00  0.00000000e+00 -1.02597463e-06 -5.76515717e-07
  0.00000000e+00  0.00000000e+00  0.00000000e+00  3.84672668e-06]","[[-0.00018287  0.00943322]
 [-0.00020307 -0.00350165]]",[],0.0,0.0
1787561681.9992156,1.6702171826867829,1.016568965800053,2.3128471142196982,"[ 1.28049308e-05 -1.83860267e-07  0.00000000e+00  0.00000000e+00
  0.00000000e+00 -1.02597463e-06 -1.83860267e-07  1.01286419e-05
  0.00000000e+00  0.00000000e+00  0.00000000e+00 -5.76515717e-07
  0.00000000e+00  0.00000000e+00  0.00000000e+00  0.00000000e+00
  0.00000000e+00  0.00000000e+00  0.00000000e+00  0.00000000e+00
  0.00000000e+00  0.00000000e+00  0.00000000e+00  0.00000000e+00
  0.00000000e+00  0.00000000e+00  0.00000000e+00  0.00000000e+00
  0.00000000e+00  0.00000000e+00 -1.02597463e-06 -5.76515717e-07
  0.00000000e+00  0.00000000e+00  0.00000000e+00  3.84672668e-06]","[[-0.00018287  0.00943322]
 [-0.00020307 -0.00350165]]",[],0.0,0.0
1787561682.0444314,1.6702171826867829,1.016568965800053,2.3128471142196982,"[ 1.28049308e-05 -1.83860267e-07  0.00000000e+00  0.00000000e+00
  0.00000000e+00 -1.02597463e-06 -1.83860267e-07  1.01286419e-05
  0.00000000e+00  0.00000000e+00  0.00000000e+00 -5.76515717e-07
  0.00000000e+00  0.00000000e+00  0.00000000e+00  0.00000000e+00
  0.00000000e+00  0.00000000e+00  0.00000000e+00  0.00000000e+00
  0.00000000e+00  0.00000000e+00  0.00000000e+00  0.00000000e+00
  0.00000000e+00  0.00000000e+00  0.00000000e+00  0.00000000e+00
  0.00000000e+00  0.00000000e+00 -1.02597463e-06 -5.76515717e-07
  0.00000000e+00  0.00000000e+00  0.00000000e+00  3.84672668e-06]","[[-0.00018287  0.00943322]
 [-0.00020307 -0.00350165]]",[],0.0,0.0
1787561682.1000662,1.6702171826867829,1.016568965800053,2.3128471142196982,"[ 1.28049308e-05 -1.83860267e-07  0.00000000e+00  0.00000000e+00
  0.00000000e+00 -1.02597463e-06 -1.83860267e-07  1.01286419e-05
  0.00000000e+00  0.00000000e+00  0.00000000e+00 -5.76515717e-07
  0.00000000e+00  0.00000000e+00  0.00000000e+00  0.00000000e+00
  0.00000000e+00  0.00000000e+00  0.00000000e+00  0.00000000e+00
  0.00000000e+00  0.00000000e+00  0.00000000e+00  0.00000000e+00
  0.00000000e+00  0.00000000e+00  0.00000000e+00  0.00000000e+00
  0.00000000e+00  0.00000000e+00 -1.02597463e-06 -5.76515717e-07
  0.00000000e+00  0.00000000e+00  0.00000000e+00  3.84672668e-06]","[[-0.00018287  0.00943322]
 [-0.00020307 -0.00350165]]",[],0.0,0.0
1787561682.1453521,1.6702171826867829,1.016568965800053,2.3128471142196982,"[ 1.28049308e-05 -1.83860267e-07  0.00000000e+00  0.00000000e+00
  0.00000000e+00 -1.02597463e-06 -1.83860267e-07  1.01286419e-05
  0.00000000e+00  0.00000000e+00  0.00000000e+00 -5.76515717e-07
  0.00000000e+00  0.00000000e+00  0.00000000e+00  0.00000000e+00
  0.00000000e+00  0.00000000e+00  0.00000000e+00  0.00000000e+00
  0.00000000e+00  0.00000000e+00  0.00000000e+00  0.00000000e+00
  0.00000000e+00  0.00000000e+00  0.00000000e+00  0.00000000e+00
  0.00000000e+00  0.00000000e+00 -1.02597463e-06 -5.76515717e-07
  0.00000000e+00  0.00000000e+00  0.00000000e+00  3.84672668e-06]","[[-0.00018287  0.00943322]
 [-0.00020307 -0.00350165]]",[],0.0,0.0
1787561682.1930535,1.6702171826867829,1.016568965800053,2.3128471142196982,"[ 1.28049308e-05 -1.83860267e-07  0.00000000e+00  0.00000000e+00
  0.00000000e+00 -1.02597463e-06 -1.83860267e-07  1.01286419e-05
  0.00000000e+00  0.00000000e+00  0.00000000e+00 -5.76515717e-07
  0.00000000e+00  0.00000000e+00  0.00000000e+00  0.00000000e+00
  0.00000000e+00  0.00000000e+00  0.00000000e+00  0.00000000e+00
  0.00000000e+00  0.00000000e+00  0.00000000e+00  0.00000000e+00
  0.00000000e+00  0.00000000e+00  0.00000000e+00  0.00000000e+00
  0.00000000e+00  0.00000000e+00 -1.02597463e-06 -5.76515717e-07
  0.00000000e+00  0.00000000e+00  0.00000000e+00  3.84672668e-06]","[[-0.00018287  0.00943322]
 [-0.00020307 -0.00350165]]",[],0.0,0.0
1787561682.264148,1.6702171826867829,1.016568965800053,2.3128471142196982,"[ 1.28049308e-05 -1.83860267e-07  0.00000000e+00  0.00000000e+00
  0.00000000e+00 -1.02597463e-06 -1.83860267e-07  1.01286419e-05
  0.00000000e+00  0.00000000e+00  0.00000000e+00 -5.76515717e-07
  0.00000000e+00  0.00000000e+00  0.00000000e+00  0.00000000e+00
  0.00000000e+00  0.00000000e+00  0.00000000e+00  0.00000000e+00
  0.00000000e+00  0.00000000e+00  0.00000000e+00  0.00000000e+00
  0.00000000e+00  0.00000000e+00  0.00000000e+00  0.00000000e+00
  0.00000000e+00  0.00000000e+00 -1.02597463e-06 -5.76515717e-07
  0.00000000e+00  0.00000000e+00  0.00000000e+00  3.84672668e-06]","[[-0.00018287  0.00943322]
 [-0.00020307 -0.00350165]]",[],0.0,0.0
1787561682.2926068,1.6702171826867829,1.016568965800053,2.3128471142196982,"[ 1.28049308e-05 -1.83860267e-07  0.00000000e+00  0.00000000e+00
  0.00000000e+00 -1.02597463e-06 -1.83860267e-07  1.01286419e-05
  0.00000000e+00  0.00000000e+00  0.00000000e+00 -5.76515717e-07
  0.00000000e+00  0.00000000e+00  0.00000000e+00  0.00000000e+00
  0.00000000e+00  0.00000000e+00  0.00000000e+00  0.00000000e+00
  0.00000000e+00  0.00000000e+00  0.00000000e+00  0.00000000e+00
  0.00000000e+00  0.00000000e+00  0.00000000e+00  0.00000000e+00
  0.00000000e+00  0.00000000e+00 -1.02597463e-06 -5.76515717e-07
  0.00000000e+00  0.00000000e+00  0.00000000e+00  3.84672668e-06]","[[-0.00018287  0.00943322]
 [-0.00020307 -0.00350165]]",[],0.0,0.0
1787561682.3486962,1.6702171826867829,1.016568965800053,2.3128471142196982,"[ 1.28049308e-05 -1.83860267e-07  0.00000000e+00  0.00000000e+00
  0.00000000e+00 -1.02597463e-06 -1.83860267e-07  1.01286419e-05
  0.00000000e+00  0.00000000e+00  0.00000000e+00 -5.76515717e-07
  0.00000000e+00  0.00000000e+00  0.00000000e+00  0.00000000e+00
  0.00000000e+00  0.00000000e+00  0.00000000e+00  0.00000000e+00
  0.00000000e+00  0.00000000e+00  0.00000000e+00  0.00000000e+00
  0.00000000e+00  0.00000000e+00  0.00000000e+00  0.00000000e+00
  0.00000000e+00  0.00000000e+00 -1.02597463e-06 -5.76515717e-07
  0.00000000e+00  0.00000000e+00  0.00000000e+00  3.84672668e-06]","[[-0.00018287  0.00943322]
 [-0.00020307 -0.00350165]]",[],0.0,0.0
1787561682.392628,1.6842953195024644,1.010031867572716,2.3823910924389526,"[ 1.07771878e-05 -2.40657181e-07  0.00000000e+00  0.00000000e+00
  0.00000000e+00 -9.42443946e-07 -2.40657181e-07  8.57308938e-06
  0.00000000e+00  0.00000000e+00  0.00000000e+00 -4.05837748e-07
  0.00000000e+00  0.00000000e+00  0.00000000e+00  0.00000000e+00
  0.00000000e+00  0.00000000e+00  0.00000000e+00  0.00000000e+00
  0.00000000e+00  0.00000000e+00  0.00000000e+00  0.00000000e+00
  0.00000000e+00  0.00000000e+00  0.00000000e+00  0.00000000e+00
  0.00000000e+00  0.00000000e+00 -9.42443946e-07 -4.05837748e-07
  0.00000000e+00  0.00000000e+00  0.00000000e+00  3.93704821e-06]","[[ 0.0002258   0.00463909]
 [-0.00012594  0.00430468]]",[],0.0,0.0
1787561682.4430766,1.6842953195024644,1.010031867572716,2.3823910924389526,"[ 1.07771878e-05 -2.40657181e-07  0.00000000e+00  0.00000000e+00
  0.00000000e+00 -9.42443946e-07 -2.40657181e-07  8.57308938e-06
  0.00000000e+00  0.00000000e+00  0.00000000e+00 -4.05837748e-07
  0.00000000e+00  0.00000000e+00  0.00000000e+00  0.00000000e+00
  0.00000000e+00  0.00000000e+00  0.00000000e+00  0.00000000e+00
  0.00000000e+00  0.00000000e+00  0.00000000e+00  0.00000000e+00
  0.00000000e+00  0.00000000e+00  0.00000000e+00  0.00000000e+00
  0.00000000e+00  0.00000000e+00 -9.42443946e-07 -4.05837748e-07
  0.00000000e+00  0.00000000e+00  0.00000000e+00  3.93704821e-06]","[[ 0.0002258   0.00463909]
 [-0.00012594  0.00430468]]",[],0.0,0.0
1787561682.4928374,1.6842953195024644,1.010031867572716,2.3823910924389526,"[ 1.07771878e-05 -2.40657181e-07  0.00000000e+00  0.00000000e+00
  0.00000000e+00 -9.42443946e-07 -2.40657181e-07  8.57308938e-06
  0.00000000e+00  0.00000000e+00  0.00000000e+00 -4.05837748e-07
  0.00000000e+00  0.00000000e+00  0.00000000e+00  0.00000000e+00
  0.00000000e+00  0.00000000e+00  0.00000000e+00  0.00000000e+00
  0.00000000e+00  0.00000000e+00  0.00000000e+00  0.00000000e+00
  0.00000000e+00  0.00000000e+00  0.00000000e+00  0.00000000e+00
  0.00000000e+00  0.00000000e+00 -9.42443946e-07 -4.05837748e-07
  0.00000000e+00  0.00000000e+00  0.00000000e+00  3.93704821e-06]","[[ 0.0002258   0.00463909]
 [-0.00012594  0.00430468]]",[],0.0,0.0
1787561682.5428476,1.6842953195024644,1.010031867572716,2.3823910924389526,"[ 1.07771878e-05 -2.40657181e-07  0.00000000e+00  0.00000000e+00
  0.00000000e+00 -9.42443946e-07 -2.40657181e-07  8.57308938e-06
  0.00000000e+00  0.00000000e+00  0.00000000e+00 -4.05837748e-07
  0.00000000e+00  0.00000000e+00  0.00000000e+00  0.00000000e+00
  0.00000000e+00  0.00000000e+00  0.00000000e+00  0.00000000e+00
  0.00000000e+00  0.00000000e+00  0.00000000e+00  0.00000000e+00
  0.00000000e+00  0.00000000e+00  0.00000000e+00  0.00000000e+00
  0.00000000e+00  0.00000000e+00 -9.42443946e-07 -4.05837748e-07
  0.00000000e+00  0.00000000e+00  0.00000000e+00  3.93704821e-06]","[[ 0.0002258   0.00463909]
 [-0.00012594  0.00430468]]",[],0.0,0.0
1787561682.5925443,1.6842953195024644,1.010031867572716,2.3823910924389526,"[ 1.07771878e-05 -2.40657181e-07  0.00000000e+00  0.00000000e+00
  0.00000000e+00 -9.42443946e-07 -2.40657181e-07  8.57308938e-06
  0.00000000e+00  0.00000000e+00  0.00000000e+00 -4.05837748e-07
  0.00000000e+00  0.00000000e+00  0.00000000e+00  0.00000000e+00
  0.00000000e+00  0.00000000e+00  0.00000000e+00  0.00000000e+00
  0.00000000e+00  0.00000000e+00  0.00000000e+00  0.00000000e+00
  0.00000000e+00  0.00000000e+00  0.00000000e+00  0.00000000e+00
  0.00000000e+00  0.00000000e+00 -9.42443946e-07 -4.05837748e-07
  0.00000000e+00  0.00000000e+00  0.00000000e+00  3.93704821e-06]","[[ 0.0002258   0.00463909]
 [-0.00012594  0.00430468]]",[],0.0,0.0
1787561682.6447616,1.6842953195024644,1.010031867572716,2.3823910924389526,"[ 1.07771878e-05 -2.40657181e-07  0.00000000e+00  0.00000000e+00
  0.00000000e+00 -9.42443946e-07 -2.40657181e-07  8.57308938e-06
  0.00000000e+00  0.00000000e+00  0.00000000e+00 -4.05837748e-07
  0.00000000e+00  0.00000000e+00  0.00000000e+00  0.00000000e+00
  0.00000000e+00  0.00000000e+00  0.00000000e+00  0.00000000e+00
  0.00000000e+00  0.00000000e+00  0.00000000e+00  0.00000000e+00
  0.00000000e+00  0.00000000e+00  0.00000000e+00  0.00000000e+00
  0.00000000e+00  0.00000000e+00 -9.42443946e-07 -4.05837748e-07
  0.00000000e+00  0.00000000e+00  0.00000000e+00  3.93704821e-06]","[[ 0.0002258   0.00463909]
 [-0.00012594  0.00430468]]",[],0.0,0.0
1787561682.6962297,1.6842953195024644,1.010031867572716,2.3823910924389526,"[ 1.07771878e-05 -2.40657181e-07  0.00000000e+00  0.00000000e+00
  0.00000000e+00 -9.42443946e-07 -2.40657181e-07  8.57308938e-06
  0.00000000e+00  0.00000000e+00  0.00000000e+00 -4.05837748e-07
  0.00000000e+00  0.00000000e+00  0.00000000e+00  0.00000000e+00
  0.00000000e+00  0.00000000e+00  0.00000000e+00  0.00000000e+00
  0.00000000e+00  0.00000000e+00  0.00000000e+00  0.00000000e+00
  0.00000000e+00  0.00000000e+00  0.00000000e+00  0.00000000e+00
  0.00000000e+00  0.00000000e+00 -9.42443946e-07 -4.05837748e-07
  0.00000000e+00  0.00000000e+00  0.00000000e+00  3.93704821e-06]","[[ 0.0002258   0.00463909]
 [-0.00012594  0.00430468]]",[],0.0,0.0
1787561682.744295,1.6842953195024644,1.010031867572716,2.3823910924389526,"[ 1.07771878e-05 -2.40657181e-07  0.00000000e+00  0.00000000e+00
  0.00000000e+00 -9.42443946e-07 -2.40657181e-07  8.57308938e-06
  0.00000000e+00  0.00000000e+00  0.00000000e+00 -4.05837748e-07
  0.00000000e+00  0.00000000e+00  0.00000000e+00  0.00000000e+00
  0.00000000e+00  0.00000000e+00  0.00000000e+00  0.00000000e+00
  0.00000000e+00  0.00000000e+00  0.00000000e+00  0.00000000e+00
  0.00000000e+00  0.00000000e+00  0.00000000e+00  0.00000000e+00
  0.00000000e+00  0.00000000e+00 -9.42443946e-07 -4.05837748e-07
  0.00000000e+00  0.00000000e+00  0.00000000e+00  3.93704821e-06]","[[ 0.0002258   0.00463909]
 [-0.00012594  0.00430468]]",[],0.0,0.0
1787561682.7928224,1.6842953195024644,1.010031867572716,2.3823910924389526,"[ 1.07771878e-05 -2.40657181e-07  0.00000000e+00  0.00000000e+00
  0.00000000e+00 -9.42443946e-07 -2.40657181e-07  8.57308938e-06
  0.00000000e+00  0.00000000e+00  0.00000000e+00 -4.05837748e-07
  0.00000000e+00  0.00000000e+00  0.00000000e+00  0.00000000e+00
  0.00000000e+00  0.00000000e+00  0.00000000e+00  0.00000000e+00
  0.00000000e+00  0.00000000e+00  0.00000000e+00  0.00000000e+00
  0.00000000e+00  0.00000000e+00  0.00000000e+00  0.00000000e+00
  0.00000000e+00  0.00000000e+00 -9.42443946e-07 -4.05837748e-07
  0.00000000e+00  0.00000000e+00  0.00000000e+00  3.93704821e-06]","[[ 0.0002258   0.00463909]
 [-0.00012594  0.00430468]]",[],0.0,0.0
1787561682.8423076,1.6842953195024644,1.010031867572716,2.3823910924389526,"[ 1.07771878e-05 -2.40657181e-07  0.00000000e+00  0.00000000e+00
  0.00000000e+00 -9.42443946e-07 -2.40657181e-07  8.57308938e-06
  0.00000000e+00  0.00000000e+00  0.00000000e+00 -4.05837748e-07
  0.00000000e+00  0.00000000e+00  0.00000000e+00  0.00000000e+00
  0.00000000e+00  0.00000000e+00  0.00000000e+00  0.00000000e+00
  0.00000000e+00  0.00000000e+00  0.00000000e+00  0.00000000e+00
  0.00000000e+00  0.00000000e+00  0.00000000e+00  0.00000000e+00
  0.00000000e+00  0.00000000e+00 -9.42443946e-07 -4.05837748e-07
  0.00000000e+00  0.00000000e+00  0.00000000e+00  3.93704821e-06]","[[ 0.0002258   0.00463909]
 [-0.00012594  0.00430468]]",[],0.0,0.0
1787561682.8927755,1.6842953195024644,1.010031867572716,2.3823910924389526,"[ 1.07771878e-05 -2.40657181e-07  0.00000000e+00  0.00000000e+00
  0.00000000e+00 -9.42443946e-07 -2.40657181e-07  8.57308938e-06
  0.00000000e+00  0.00000000e+00  0.00000000e+00 -4.05837748e-07
  0.00000000e+00  0.00000000e+00  0.00000000e+00  0.00000000e+00
  0.00000000e+00  0.00000000e+00  0.00000000e+00  0.00000000e+00
  0.00000000e+00  0.00000000e+00  0.00000000e+00  0.00000000e+00
  0.00000000e+00  0.00000000e+00  0.00000000e+00  0.00000000e+00
  0.00000000e+00  0.00000000e+00 -9.42443946e-07 -4.05837748e-07
  0.00000000e+00  0.00000000e+00  0.00000000e+00  3.93704821e-06]","[[ 0.0002258   0.00463909]
 [-0.00012594  0.00430468]]",[],0.0,0.0
1787561682.9453363,1.6842953195024644,1.010031867572716,2.3823910924389526,"[ 1.07771878e-05 -2.40657181e-07  0.00000000e+00  0.00000000e+00
  0.00000000e+00 -9.42443946e-07 -2.40657181e-07  8.57308938e-06
  0.00000000e+00  0.00000000e+00  0.00000000e+00 -4.05837748e-07
  0.00000000e+00  0.00000000e+00  0.00000000e+00  0.00000000e+00
  0.00000000e+00  0.00000000e+00  0.00000000e+00  0.00000000e+00
  0.00000000e+00  0.00000000e+00  0.00000000e+00  0.00000000e+00
  0.00000000e+00  0.00000000e+00  0.00000000e+00  0.00000000e+00
  0.00000000e+00  0.00000000e+00 -9.42443946e-07 -4.05837748e-07
  0.00000000e+00  0.00000000e+00  0.00000000e+00  3.93704821e-06]","[[ 0.0002258   0.00463909]
 [-0.00012594  0.00430468]]",[],0.0,0.0
1787561682.9963295,1.6842953195024644,1.010031867572716,2.3823910924389526,"[ 1.07771878e-05 -2.40657181e-07  0.00000000e+00  0.00000000e+00
  0.00000000e+00 -9.42443946e-07 -2.40657181e-07  8.57308938e-06
  0.00000000e+00  0.00000000e+00  0.00000000e+00 -4.05837748e-07
  0.00000000e+00  0.00000000e+00  0.00000000e+00  0.00000000e+00
  0.00000000e+00  0.00000000e+00  0.00000000e+00  0.00000000e+00
  0.00000000e+00  0.00000000e+00  0.00000000e+00  0.00000000e+00
  0.00000000e+00  0.00000000e+00  0.00000000e+00  0.00000000e+00
  0.00000000e+00  0.00000000e+00 -9.42443946e-07 -4.05837748e-07
  0.00000000e+00  0.00000000e+00  0.00000000e+00  3.93704821e-06]","[[ 0.0002258   0.00463909]
 [-0.00012594  0.00430468]]",[],0.0,0.0
1787561683.046293,1.6842953195024644,1.010031867572716,2.3823910924389526,"[ 1.07771878e-05 -2.40657181e-07  0.00000000e+00  0.00000000e+00
  0.00000000e+00 -9.42443946e-07 -2.40657181e-07  8.57308938e-06
  0.00000000e+00  0.00000000e+00  0.00000000e+00 -4.05837748e-07
  0.00000000e+00  0.00000000e+00  0.00000000e+00  0.00000000e+00
  0.00000000e+00  0.00000000e+00  0.00000000e+00  0.00000000e+00
  0.00000000e+00  0.00000000e+00  0.00000000e+00  0.00000000e+00
  0.00000000e+00  0.00000000e+00  0.00000000e+00  0.00000000e+00
  0.00000000e+00  0.00000000e+00 -9.42443946e-07 -4.05837748e-07
  0.00000000e+00  0.00000000e+00  0.00000000e+00  3.93704821e-06]","[[ 0.0002258   0.00463909]
 [-0.00012594  0.00430468]]",[],0.0,0.0
1787561683.1007729,1.6842953195024644,1.010031867572716,2.3823910924389526,"[ 1.07771878e-05 -2.40657181e-07  0.00000000e+00  0.00000000e+00
  0.00000000e+00 -9.42443946e-07 -2.40657181e-07  8.57308938e-06
  0.00000000e+00  0.00000000e+00  0.00000000e+00 -4.05837748e-07
  0.00000000e+00  0.00000000e+00  0.00000000e+00  0.00000000e+00
  0.00000000e+00  0.00000000e+00  0.00000000e+00  0.00000000e+00
  0.00000000e+00  0.00000000e+00  0.00000000e+00  0.00000000e+00
  0.00000000e+00  0.00000000e+00  0.00000000e+00  0.00000000e+00
  0.00000000e+00  0.00000000e+00 -9.42443946e-07 -4.05837748e-07
  0.00000000e+00  0.00000000e+00  0.00000000e+00  3.93704821e-06]","[[ 0.0002258   0.00463909]
 [-0.00012594  0.00430468]]",[],0.0,0.0
1787561683.143056,1.6842953195024644,1.010031867572716,2.3823910924389526,"[ 1.07771878e-05 -2.40657181e-07  0.00000000e+00  0.00000000e+00
  0.00000000e+00 -9.42443946e-07 -2.40657181e-07  8.57308938e-06
  0.00000000e+00  0.00000000e+00  0.00000000e+00 -4.05837748e-07
  0.00000000e+00  0.00000000e+00  0.00000000e+00  0.00000000e+00
  0.00000000e+00  0.00000000e+00  0.00000000e+00  0.00000000e+00
  0.00000000e+00  0.00000000e+00  0.00000000e+00  0.00000000e+00
  0.00000000e+00  0.00000000e+00  0.00000000e+00  0.00000000e+00
  0.00000000e+00  0.00000000e+00 -9.42443946e-07 -4.05837748e-07
  0.00000000e+00  0.00000000e+00  0.00000000e+00  3.93704821e-06]","[[ 0.0002258   0.00463909]
 [-0.00012594  0.00430468]]",[],0.0,0.0
1787561683.2030585,1.6842953195024644,1.010031867572716,2.3823910924389526,"[ 1.07771878e-05 -2.40657181e-07  0.00000000e+00  0.00000000e+00
  0.00000000e+00 -9.42443946e-07 -2.40657181e-07  8.57308938e-06
  0.00000000e+00  0.00000000e+00  0.00000000e+00 -4.05837748e-07
  0.00000000e+00  0.00000000e+00  0.00000000e+00  0.00000000e+00
  0.00000000e+00  0.00000000e+00  0.00000000e+00  0.00000000e+00
  0.00000000e+00  0.00000000e+00  0.00000000e+00  0.00000000e+00
  0.00000000e+00  0.00000000e+00  0.00000000e+00  0.00000000e+00
  0.00000000e+00  0.00000000e+00 -9.42443946e-07 -4.05837748e-07
  0.00000000e+00  0.00000000e+00  0.00000000e+00  3.93704821e-06]","[[ 0.0002258   0.00463909]
 [-0.00012594  0.00430468]]",[],0.0,0.0
1787561683.2450309,1.6842953195024644,1.010031867572716,2.3823910924389526,"[ 1.07771878e-05 -2.40657181e-07  0.00000000e+00  0.00000000e+00
  0.00000000e+00 -9.42443946e-07 -2.40657181e-07  8.57308938e-06
  0.00000000e+00  0.00000000e+00  0.00000000e+00 -4.05837748e-07
  0.00000000e+00  0.00000000e+00  0.00000000e+00  0.00000000e+00
  0.00000000e+00  0.00000000e+00  0.00000000e+00  0.00000000e+00
  0.00000000e+00  0.00000000e+00  0.00000000e+00  0.00000000e+00
  0.00000000e+00  0.00000000e+00  0.00000000e+00  0.00000000e+00
  0.00000000e+00  0.00000000e+00 -9.42443946e-07 -4.05837748e-07
  0.00000000e+00  0.00000000e+00  0.00000000e+00  3.93704821e-06]","[[ 0.0002258   0.00463909]
 [-0.00012594  0.00430468]]",[],0.0,0.0
1787561683.3001177,1.6842953195024644,1.010031867572716,2.3823910924389526,"[ 1.07771878e-05 -2.40657181e-07  0.00000000e+00  0.00000000e+00
  0.00000000e+00 -9.42443946e-07 -2.40657181e-07  8.57308938e-06
  0.00000000e+00  0.00000000e+00  0.00000000e+00 -4.05837748e-07
  0.00000000e+00  0.00000000e+00  0.00000000e+00  0.00000000e+00
  0.00000000e+00  0.00000000e+00  0.00000000e+00  0.00000000e+00
  0.00000000e+00  0.00000000e+00  0.00000000e+00  0.00000000e+00
  0.00000000e+00  0.00000000e+00  0.00000000e+00  0.00000000e+00
  0.00000000e+00  0.00000000e+00 -9.42443946e-07 -4.05837748e-07
  0.00000000e+00  0.00000000e+00  0.00000000e+00  3.93704821e-06]","[[ 0.0002258   0.00463909]
 [-0.00012594  0.00430468]]",[],0.0,0.0
1787561683.3464198,1.6842953195024644,1.010031867572716,2.3823910924389526,"[ 1.07771878e-05 -2.40657181e-07  0.00000000e+00  0.00000000e+00
  0.00000000e+00 -9.42443946e-07 -2.40657181e-07  8.57308938e-06
  0.00000000e+00  0.00000000e+00  0.00000000e+00 -4.05837748e-07
  0.00000000e+00  0.00000000e+00  0.00000000e+00  0.00000000e+00
  0.00000000e+00  0.00000000e+00  0.00000000e+00  0.00000000e+00
  0.00000000e+00  0.00000000e+00  0.00000000e+00  0.00000000e+00
  0.00000000e+00  0.00000000e+00  0.00000000e+00  0.00000000e+00
  0.00000000e+00  0.00000000e+00 -9.42443946e-07 -4.05837748e-07
  0.00000000e+00  0.00000000e+00  0.00000000e+00  3.93704821e-06]","[[ 0.0002258   0.00463909]
 [-0.00012594  0.00430468]]",[],0.0,0.0
1787561683.39947,1.6842953195024644,1.010031867572716,2.3823910924389526,"[ 1.07771878e-05 -2.40657181e-07  0.00000000e+00  0.00000000e+00
  0.00000000e+00 -9.42443946e-07 -2.40657181e-07  8.57308938e-06
  0.00000000e+00  0.00000000e+00  0.00000000e+00 -4.05837748e-07
  0.00000000e+00  0.00000000e+00  0.00000000e+00  0.00000000e+00
  0.00000000e+00  0.00000000e+00  0.00000000e+00  0.00000000e+00
  0.00000000e+00  0.00000000e+00  0.00000000e+00  0.00000000e+00
  0.00000000e+00  0.00000000e+00  0.00000000e+00  0.00000000e+00
  0.00000000e+00  0.00000000e+00 -9.42443946e-07 -4.05837748e-07
  0.00000000e+00  0.00000000e+00  0.00000000e+00  3.93704821e-06]","[[ 0.0002258   0.00463909]
 [-0.00012594  0.00430468]]",[],0.0,0.0
1787561683.4435303,1.6842953195024644,1.010031867572716,2.3823910924389526,"[ 1.07771878e-05 -2.40657181e-07  0.00000000e+00  0.00000000e+00
  0.00000000e+00 -9.42443946e-07 -2.40657181e-07  8.57308938e-06
  0.00000000e+00  0.00000000e+00  0.00000000e+00 -4.05837748e-07
  0.00000000e+00  0.00000000e+00  0.00000000e+00  0.00000000e+00
  0.00000000e+00  0.00000000e+00  0.00000000e+00  0.00000000e+00
  0.00000000e+00  0.00000000e+00  0.00000000e+00  0.00000000e+00
  0.00000000e+00  0.00000000e+00  0.00000000e+00  0.00000000e+00
  0.00000000e+00  0.00000000e+00 -9.42443946e-07 -4.05837748e-07
  0.00000000e+00  0.00000000e+00  0.00000000e+00  3.93704821e-06]","[[ 0.0002258   0.00463909]
 [-0.00012594  0.00430468]]",[],0.0,0.0
1787561683.4923615,1.6842953195024644,1.010031867572716,2.3823910924389526,"[ 1.07771878e-05 -2.40657181e-07  0.00000000e+00  0.00000000e+00
  0.00000000e+00 -9.42443946e-07 -2.40657181e-07  8.57308938e-06
  0.00000000e+00  0.00000000e+00  0.00000000e+00 -4.05837748e-07
  0.00000000e+00  0.00000000e+00  0.00000000e+00  0.00000000e+00
  0.00000000e+00  0.00000000e+00  0.00000000e+00  0.00000000e+00
  0.00000000e+00  0.00000000e+00  0.00000000e+00  0.00000000e+00
  0.00000000e+00  0.00000000e+00  0.00000000e+00  0.00000000e+00
  0.00000000e+00  0.00000000e+00 -9.42443946e-07 -4.05837748e-07
  0.00000000e+00  0.00000000e+00  0.00000000e+00  3.93704821e-06]","[[ 0.0002258   0.00463909]
 [-0.00012594  0.00430468]]",[],0.0,0.0
1787561683.547101,1.6928075036718229,1.001453895360734,2.393482108153451,"[ 9.24621242e-06 -2.85301638e-07  0.00000000e+00  0.00000000e+00
  0.00000000e+00 -5.89727374e-07 -2.85301638e-07  7.37304349e-06
  0.00000000e+00  0.00000000e+00  0.00000000e+00 -3.71487015e-07
  0.00000000e+00  0.00000000e+00  0.00000000e+00  0.00000000e+00
  0.00000000e+00  0.00000000e+00  0.00000000e+00  0.00000000e+00
  0.00000000e+00  0.00000000e+00  0.00000000e+00  0.00000000e+00
  0.00000000e+00  0.00000000e+00  0.00000000e+00  0.00000000e+00
  0.00000000e+00  0.00000000e+00 -5.89727374e-07 -3.71487015e-07
  0.00000000e+00  0.00000000e+00  0.00000000e+00  3.73512968e-06]","[[ 0.00019494  0.00356822]
 [-0.00010981  0.003703  ]]",[],0.0,0.0
1787561683.5925238,1.6928075036718229,1.001453895360734,2.393482108153451,"[ 9.24621242e-06 -2.85301638e-07  0.00000000e+00  0.00000000e+00
  0.00000000e+00 -5.89727374e-07 -2.85301638e-07  7.37304349e-06
  0.00000000e+00  0.00000000e+00  0.00000000e+00 -3.71487015e-07
  0.00000000e+00  0.00000000e+00  0.00000000e+00  0.00000000e+00
  0.00000000e+00  0.00000000e+00  0.00000000e+00  0.00000000e+00
  0.00000000e+00  0.00000000e+00  0.00000000e+00  0.00000000e+00
  0.00000000e+00  0.00000000e+00  0.00000000e+00  0.00000000e+00
  0.00000000e+00  0.00000000e+00 -5.89727374e-07 -3.71487015e-07
  0.00000000e+00  0.00000000e+00  0.00000000e+00  3.73512968e-06]","[[ 0.00019494  0.00356822]
 [-0.00010981  0.003703  ]]",[],0.0,0.0
1787561683.655755,1.6928075036718229,1.001453895360734,2.393482108153451,"[ 9.24621242e-06 -2.85301638e-07  0.00000000e+00  0.00000000e+00
  0.00000000e+00 -5.89727374e-07 -2.85301638e-07  7.37304349e-06
  0.00000000e+00  0.00000000e+00  0.00000000e+00 -3.71487015e-07
  0.00000000e+00  0.00000000e+00  0.00000000e+00  0.00000000e+00
  0.00000000e+00  0.00000000e+00  0.00000000e+00  0.00000000e+00
  0.00000000e+00  0.00000000e+00  0.00000000e+00  0.00000000e+00
  0.00000000e+00  0.00000000e+00  0.00000000e+00  0.00000000e+00
  0.00000000e+00  0.00000000e+00 -5.89727374e-07 -3.71487015e-07
  0.00000000e+00  0.00000000e+00  0.00000000e+00  3.73512968e-06]","[[ 0.00019494  0.00356822]
 [-0.00010981  0.003703  ]]",[],0.0,0.0
1787561683.692293,1.6928075036718229,1.001453895360734,2.393482108153451,"[ 9.24621242e-06 -2.85301638e-07  0.00000000e+00  0.00000000e+00
  0.00000000e+00 -5.89727374e-07 -2.85301638e-07  7.37304349e-06
  0.00000000e+00  0.00000000e+00  0.00000000e+00 -3.71487015e-07
  0.00000000e+00  0.00000000e+00  0.00000000e+00  0.00000000e+00
  0.00000000e+00  0.00000000e+00  0.00000000e+00  0.00000000e+00
  0.00000000e+00  0.00000000e+00  0.00000000e+00  0.00000000e+00
  0.00000000e+00  0.00000000e+00  0.00000000e+00  0.00000000e+00
  0.00000000e+00  0.00000000e+00 -5.89727374e-07 -3.71487015e-07
  0.00000000e+00  0.00000000e+00  0.00000000e+00  3.73512968e-06]","[[ 0.00019494  0.00356822]
 [-0.00010981  0.003703  ]]",[],0.0,0.0
1787561683.7437816,1.6928075036718229,1.001453895360734,2.393482108153451,"[ 9.24621242e-06 -2.85301638e-07  0.00000000e+00  0.00000000e+00
  0.00000000e+00 -5.89727374e-07 -2.85301638e-07  7.37304349e-06
  0.00000000e+00  0.00000000e+00  0.00000000e+00 -3.71487015e-07
  0.00000000e+00  0.00000000e+00  0.00000000e+00  0.00000000e+00
  0.00000000e+00  0.00000000e+00  0.00000000e+00  0.00000000e+00
  0.00000000e+00  0.00000000e+00  0.00000000e+00  0.00000000e+00
  0.00000000e+00  0.00000000e+00  0.00000000e+00  0.00000000e+00
  0.00000000e+00  0.00000000e+00 -5.89727374e-07 -3.71487015e-07
  0.00000000e+00  0.00000000e+00  0.00000000e+00  3.73512968e-06]","[[ 0.00019494  0.00356822]
 [-0.00010981  0.003703  ]]",[],0.0,0.0
1787561683.792909,1.6928075036718229,1.001453895360734,2.393482108153451,"[ 9.24621242e-06 -2.85301638e-07  0.00000000e+00  0.00000000e+00
  0.00000000e+00 -5.89727374e-07 -2.85301638e-07  7.37304349e-06
  0.00000000e+00  0.00000000e+00  0.00000000e+00 -3.71487015e-07
  0.00000000e+00  0.00000000e+00  0.00000000e+00  0.00000000e+00
  0.00000000e+00  0.00000000e+00  0.00000000e+00  0.00000000e+00
  0.00000000e+00  0.00000000e+00  0.00000000e+00  0.00000000e+00
  0.00000000e+00  0.00000000e+00  0.00000000e+00  0.00000000e+00
  0.00000000e+00  0.00000000e+00 -5.89727374e-07 -3.71487015e-07
  0.00000000e+00  0.00000000e+00  0.00000000e+00  3.73512968e-06]","[[ 0.00019494  0.00356822]
 [-0.00010981  0.003703  ]]",[],0.0,0.0
1787561683.8444977,1.6928075036718229,1.001453895360734,2.393482108153451,"[ 9.24621242e-06 -2.85301638e-07  0.00000000e+00  0.00000000e+00
  0.00000000e+00 -5.89727374e-07 -2.85301638e-07  7.37304349e-06
  0.00000000e+00  0.00000000e+00  0.00000000e+00 -3.71487015e-07
  0.00000000e+00  0.00000000e+00  0.00000000e+00  0.00000000e+00
  0.00000000e+00  0.00000000e+00  0.00000000e+00  0.00000000e+00
  0.00000000e+00  0.00000000e+00  0.00000000e+00  0.00000000e+00
  0.00000000e+00  0.00000000e+00  0.00000000e+00  0.00000000e+00
  0.00000000e+00  0.00000000e+00 -5.89727374e-07 -3.71487015e-07
  0.00000000e+00  0.00000000e+00  0.00000000e+00  3.73512968e-06]","[[ 0.00019494  0.00356822]
 [-0.00010981  0.003703  ]]",[],0.0,0.0
1787561683.8951414,1.6928075036718229,1.001453895360734,2.393482108153451,"[ 9.24621242e-06 -2.85301638e-07  0.00000000e+00  0.00000000e+00
  0.00000000e+00 -5.89727374e-07 -2.85301638e-07  7.37304349e-06
  0.00000000e+00  0.00000000e+00  0.00000000e+00 -3.71487015e-07
  0.00000000e+00  0.00000000e+00  0.00000000e+00  0.00000000e+00
  0.00000000e+00  0.00000000e+00  0.00000000e+00  0.00000000e+00
  0.00000000e+00  0.00000000e+00  0.00000000e+00  0.00000000e+00
  0.00000000e+00  0.00000000e+00  0.00000000e+00  0.00000000e+00
  0.00000000e+00  0.00000000e+00 -5.89727374e-07 -3.71487015e-07
  0.00000000e+00  0.00000000e+00  0.00000000e+00  3.73512968e-06]","[[ 0.00019494  0.00356822]
 [-0.00010981  0.003703  ]]",[],0.0,0.0
1787561683.9645555,1.6928075036718229,1.001453895360734,2.393482108153451,"[ 9.24621242e-06 -2.85301638e-07  0.00000000e+00  0.00000000e+00
  0.00000000e+00 -5.89727374e-07 -2.85301638e-07  7.37304349e-06
  0.00000000e+00  0.00000000e+00  0.00000000e+00 -3.71487015e-07
  0.00000000e+00  0.00000000e+00  0.00000000e+00  0.00000000e+00
  0.00000000e+00  0.00000000e+00  0.00000000e+00  0.00000000e+00
  0.00000000e+00  0.00000000e+00  0.00000000e+00  0.00000000e+00
  0.00000000e+00  0.00000000e+00  0.00000000e+00  0.00000000e+00
  0.00000000e+00  0.00000000e+00 -5.89727374e-07 -3.71487015e-07
  0.00000000e+00  0.00000000e+00  0.00000000e+00  3.73512968e-06]","[[ 0.00019494  0.00356822]
 [-0.00010981  0.003703  ]]",[],0.0,0.0
1787561683.9955564,1.6928075036718229,1.001453895360734,2.393482108153451,"[ 9.24621242e-06 -2.85301638e-07  0.00000000e+00  0.00000000e+00
  0.00000000e+00 -5.89727374e-07 -2.85301638e-07  7.37304349e-06
  0.00000000e+00  0.00000000e+00  0.00000000e+00 -3.71487015e-07
  0.00000000e+00  0.00000000e+00  0.00000000e+00  0.00000000e+00
  0.00000000e+00  0.00000000e+00  0.00000000e+00  0.00000000e+00
  0.00000000e+00  0.00000000e+00  0.00000000e+00  0.00000000e+00
  0.00000000e+00  0.00000000e+00  0.00000000e+00  0.00000000e+00
  0.00000000e+00  0.00000000e+00 -5.89727374e-07 -3.71487015e-07
  0.00000000e+00  0.00000000e+00  0.00000000e+00  3.73512968e-06]","[[ 0.00019494  0.00356822]
 [-0.00010981  0.003703  ]]",[],0.0,0.0
1787561684.0471807,1.6928075036718229,1.001453895360734,2.393482108153451,"[ 9.24621242e-06 -2.85301638e-07  0.00000000e+00  0.00000000e+00
  0.00000000e+00 -5.89727374e-07 -2.85301638e-07  7.37304349e-06
  0.00000000e+00  0.00000000e+00  0.00000000e+00 -3.71487015e-07
  0.00000000e+00  0.00000000e+00  0.00000000e+00  0.00000000e+00
  0.00000000e+00  0.00000000e+00  0.00000000e+00  0.00000000e+00
  0.00000000e+00  0.00000000e+00  0.00000000e+00  0.00000000e+00
  0.00000000e+00  0.00000000e+00  0.00000000e+00  0.00000000e+00
  0.00000000e+00  0.00000000e+00 -5.89727374e-07 -3.71487015e-07
  0.00000000e+00  0.00000000e+00  0.00000000e+00  3.73512968e-06]","[[ 0.00019494  0.00356822]
 [-0.00010981  0.003703  ]]",[],0.0,0.0
1787561684.0932193,1.6928075036718229,1.001453895360734,2.393482108153451,"[ 9.24621242e-06 -2.85301638e-07  0.00000000e+00  0.00000000e+00
  0.00000000e+00 -5.89727374e-07 -2.85301638e-07  7.37304349e-06
  0.00000000e+00  0.00000000e+00  0.00000000e+00 -3.71487015e-07
  0.00000000e+00  0.00000000e+00  0.00000000e+00  0.00000000e+00
  0.00000000e+00  0.00000000e+00  0.00000000e+00  0.00000000e+00
  0.00000000e+00  0.00000000e+00  0.00000000e+00  0.00000000e+00
  0.00000000e+00  0.00000000e+00  0.00000000e+00  0.00000000e+00
  0.00000000e+00  0.00000000e+00 -5.89727374e-07 -3.71487015e-07
  0.00000000e+00  0.00000000e+00  0.00000000e+00  3.73512968e-06]","[[ 0.00019494  0.00356822]
 [-0.00010981  0.003703  ]]",[],0.0,0.0
1787561684.1433978,1.6928075036718229,1.001453895360734,2.393482108153451,"[ 9.24621242e-06 -2.85301638e-07  0.00000000e+00  0.00000000e+00
  0.00000000e+00 -5.89727374e-07 -2.85301638e-07  7.37304349e-06
  0.00000000e+00  0.00000000e+00  0.00000000e+00 -3.71487015e-07
  0.00000000e+00  0.00000000e+00  0.00000000e+00  0.00000000e+00
  0.00000000e+00  0.00000000e+00  0.00000000e+00  0.00000000e+00
  0.00000000e+00  0.00000000e+00  0.00000000e+00  0.00000000e+00
  0.00000000e+00  0.00000000e+00  0.00000000e+00  0.00000000e+00
  0.00000000e+00  0.00000000e+00 -5.89727374e-07 -3.71487015e-07
  0.00000000e+00  0.00000000e+00  0.00000000e+00  3.73512968e-06]","[[ 0.00019494  0.00356822]
 [-0.00010981  0.003703  ]]",[],0.0,0.0
1787561684.196053,1.6928075036718229,1.001453895360734,2.393482108153451,"[ 9.24621242e-06 -2.85301638e-07  0.00000000e+00  0.00000000e+00
  0.00000000e+00 -5.89727374e-07 -2.85301638e-07  7.37304349e-06
  0.00000000e+00  0.00000000e+00  0.00000000e+00 -3.71487015e-07
  0.00000000e+00  0.00000000e+00  0.00000000e+00  0.00000000e+00
  0.00000000e+00  0.00000000e+00  0.00000000e+00  0.00000000e+00
  0.00000000e+00  0.00000000e+00  0.00000000e+00  0.00000000e+00
  0.00000000e+00  0.00000000e+00  0.00000000e+00  0.00000000e+00
  0.00000000e+00  0.00000000e+00 -5.89727374e-07 -3.71487015e-07
  0.00000000e+00  0.00000000e+00  0.00000000e+00  3.73512968e-06]","[[ 0.00019494  0.00356822]
 [-0.00010981  0.003703  ]]",[],0.0,0.0
1787561684.2427335,1.6928075036718229,1.001453895360734,2.393482108153451,"[ 9.24621242e-06 -2.85301638e-07  0.00000000e+00  0.00000000e+00
  0.00000000e+00 -5.89727374e-07 -2.85301638e-07  7.37304349e-06
  0.00000000e+00  0.00000000e+00  0.00000000e+00 -3.71487015e-07
  0.00000000e+00  0.00000000e+00  0.00000000e+00  0.00000000e+00
  0.00000000e+00  0.00000000e+00  0.00000000e+00  0.00000000e+00
  0.00000000e+00  0.00000000e+00  0.00000000e+00  0.00000000e+00
  0.00000000e+00  0.00000000e+00  0.00000000e+00  0.00000000e+00
  0.00000000e+00  0.00000000e+00 -5.89727374e-07 -3.71487015e-07
  0.00000000e+00  0.00000000e+00  0.00000000e+00  3.73512968e-06]","[[ 0.00019494  0.00356822]
 [-0.00010981  0.003703  ]]",[],0.0,0.0
1787561684.2958927,1.6928075036718229,1.001453895360734,2.393482108153451,"[ 9.24621242e-06 -2.85301638e-07  0.00000000e+00  0.00000000e+00
  0.00000000e+00 -5.89727374e-07 -2.85301638e-07  7.37304349e-06
  0.00000000e+00  0.00000000e+00  0.00000000e+00 -3.71487015e-07
  0.00000000e+00  0.00000000e+00  0.00000000e+00  0.00000000e+00
  0.00000000e+00  0.00000000e+00  0.00000000e+00  0.00000000e+00
  0.00000000e+00  0.00000000e+00  0.00000000e+00  0.00000000e+00
  0.00000000e+00  0.00000000e+00  0.00000000e+00  0.00000000e+00
  0.00000000e+00  0.00000000e+00 -5.89727374e-07 -3.71487015e-07
  0.00000000e+00  0.00000000e+00  0.00000000e+00  3.73512968e-06]","[[ 0.00019494  0.00356822]
 [-0.00010981  0.003703  ]]",[],0.0,0.0
1787561684.3432086,1.6928075036718229,1.001453895360734,2.393482108153451,"[ 9.24621242e-06 -2.85301638e-07  0.00000000e+00  0.00000000e+00
  0.00000000e+00 -5.89727374e-07 -2.85301638e-07  7.37304349e-06
  0.00000000e+00  0.00000000e+00  0.00000000e+00 -3.71487015e-07
  0.00000000e+00  0.00000000e+00  0.00000000e+00  0.00000000e+00
  0.00000000e+00  0.00000000e+00  0.00000000e+00  0.00000000e+00
  0.00000000e+00  0.00000000e+00  0.00000000e+00  0.00000000e+00
  0.00000000e+00  0.00000000e+00  0.00000000e+00  0.00000000e+00
  0.00000000e+00  0.00000000e+00 -5.89727374e-07 -3.71487015e-07
  0.00000000e+00  0.00000000e+00  0.00000000e+00  3.73512968e-06]","[[ 0.00019494  0.00356822]
 [-0.00010981  0.003703  ]]",[],0.0,0.0
1787561684.3954244,1.6928075036718229,1.001453895360734,2.393482108153451,"[ 9.24621242e-06 -2.85301638e-07  0.00000000e+00  0.00000000e+00
  0.00000000e+00 -5.89727374e-07 -2.85301638e-07  7.37304349e-06
  0.00000000e+00  0.00000000e+00  0.00000000e+00 -3.71487015e-07
  0.00000000e+00  0.00000000e+00  0.00000000e+00  0.00000000e+00
  0.00000000e+00  0.00000000e+00  0.00000000e+00  0.00000000e+00
  0.00000000e+00  0.00000000e+00  0.00000000e+00  0.00000000e+00
  0.00000000e+00  0.00000000e+00  0.00000000e+00  0.00000000e+00
  0.00000000e+00  0.00000000e+00 -5.89727374e-07 -3.71487015e-07
  0.00000000e+00  0.00000000e+00  0.00000000e+00  3.73512968e-06]","[[ 0.00019494  0.00356822]
 [-0.00010981  0.003703  ]]",[],0.0,0.0
1787561684.4437218,1.6928075036718229,1.001453895360734,2.393482108153451,"[ 9.24621242e-06 -2.85301638e-07  0.00000000e+00  0.00000000e+00
  0.00000000e+00 -5.89727374e-07 -2.85301638e-07  7.37304349e-06
  0.00000000e+00  0.00000000e+00  0.00000000e+00 -3.71487015e-07
  0.00000000e+00  0.00000000e+00  0.00000000e+00  0.00000000e+00
  0.00000000e+00  0.00000000e+00  0.00000000e+00  0.00000000e+00
  0.00000000e+00  0.00000000e+00  0.00000000e+00  0.00000000e+00
  0.00000000e+00  0.00000000e+00  0.00000000e+00  0.00000000e+00
  0.00000000e+00  0.00000000e+00 -5.89727374e-07 -3.71487015e-07
  0.00000000e+00  0.00000000e+00  0.00000000e+00  3.73512968e-06]","[[ 0.00019494  0.00356822]
 [-0.00010981  0.003703  ]]",[],0.0,0.0
1787561684.4934978,1.6928075036718229,1.001453895360734,2.393482108153451,"[ 9.24621242e-06 -2.85301638e-07  0.00000000e+00  0.00000000e+00
  0.00000000e+00 -5.89727374e-07 -2.85301638e-07  7.37304349e-06
  0.00000000e+00  0.00000000e+00  0.00000000e+00 -3.71487015e-07
  0.00000000e+00  0.00000000e+00  0.00000000e+00  0.00000000e+00
  0.00000000e+00  0.00000000e+00  0.00000000e+00  0.00000000e+00
  0.00000000e+00  0.00000000e+00  0.00000000e+00  0.00000000e+00
  0.00000000e+00  0.00000000e+00  0.00000000e+00  0.00000000e+00
  0.00000000e+00  0.00000000e+00 -5.89727374e-07 -3.71487015e-07
  0.00000000e+00  0.00000000e+00  0.00000000e+00  3.73512968e-06]","[[ 0.00019494  0.00356822]
 [-0.00010981  0.003703  ]]",[],0.0,0.0
1787561684.5435524,1.6928075036718229,1.001453895360734,2.393482108153451,"[ 9.24621242e-06 -2.85301638e-07  0.00000000e+00  0.00000000e+00
  0.00000000e+00 -5.89727374e-07 -2.85301638e-07  7.37304349e-06
  0.00000000e+00  0.00000000e+00  0.00000000e+00 -3.71487015e-07
  0.00000000e+00  0.00000000e+00  0.00000000e+00  0.00000000e+00
  0.00000000e+00  0.00000000e+00  0.00000000e+00  0.00000000e+00
  0.00000000e+00  0.00000000e+00  0.00000000e+00  0.00000000e+00
  0.00000000e+00  0.00000000e+00  0.00000000e+00  0.00000000e+00
  0.00000000e+00  0.00000000e+00 -5.89727374e-07 -3.71487015e-07
  0.00000000e+00  0.00000000e+00  0.00000000e+00  3.73512968e-06]","[[ 0.00019494  0.00356822]
 [-0.00010981  0.003703  ]]",[],0.0,0.0
1787561684.5924833,1.6928075036718229,1.001453895360734,2.393482108153451,"[ 9.24621242e-06 -2.85301638e-07  0.00000000e+00  0.00000000e+00
  0.00000000e+00 -5.89727374e-07 -2.85301638e-07  7.37304349e-06
  0.00000000e+00  0.00000000e+00  0.00000000e+00 -3.71487015e-07
  0.00000000e+00  0.00000000e+00  0.00000000e+00  0.00000000e+00
  0.00000000e+00  0.00000000e+00  0.00000000e+00  0.00000000e+00
  0.00000000e+00  0.00000000e+00  0.00000000e+00  0.00000000e+00
  0.00000000e+00  0.00000000e+00  0.00000000e+00  0.00000000e+00
  0.00000000e+00  0.00000000e+00 -5.89727374e-07 -3.71487015e-07
