time,x,y,yaw,cov_prop,K_gain,innovation,v_ekf,omega_ekf
1787152695.142195,2.2812667191563945,0.23864534241791485,1.9239180986900832,"[ 5.56223191e-05  4.36651071e-07  0.00000000e+00  0.00000000e+00
  0.00000000e+00 -2.74474744e-06  4.36651071e-07  4.97738336e-05
  0.00000000e+00  0.00000000e+00  0.00000000e+00  2.50577714e-07
  0.00000000e+00  0.00000000e+00  0.00000000e+00  0.00000000e+00
  0.00000000e+00  0.00000000e+00  0.00000000e+00  0.00000000e+00
  0.00000000e+00  0.00000000e+00  0.00000000e+00  0.00000000e+00
  0.00000000e+00  0.00000000e+00  0.00000000e+00  0.00000000e+00
  0.00000000e+00  0.00000000e+00 -2.74474744e-06  2.50577714e-07
  0.00000000e+00  0.00000000e+00  0.00000000e+00  3.69213857e-06]","[[-0.00011563  0.04856295]
 [-0.00124163 -0.00304619]]",[],0.0,0.0
1787152695.1920326,2.2812667191563945,0.23864534241791485,1.9239180986900832,"[ 5.56223191e-05  4.36651071e-07  0.00000000e+00  0.00000000e+00
  0.00000000e+00 -2.74474744e-06  4.36651071e-07  4.97738336e-05
  0.00000000e+00  0.00000000e+00  0.00000000e+00  2.50577714e-07
  0.00000000e+00  0.00000000e+00  0.00000000e+00  0.00000000e+00
  0.00000000e+00  0.00000000e+00  0.00000000e+00  0.00000000e+00
  0.00000000e+00  0.00000000e+00  0.00000000e+00  0.00000000e+00
  0.00000000e+00  0.00000000e+00  0.00000000e+00  0.00000000e+00
  0.00000000e+00  0.00000000e+00 -2.74474744e-06  2.50577714e-07
  0.00000000e+00  0.00000000e+00  0.00000000e+00  3.69213857e-06]","[[-0.00011563  0.04856295]
 [-0.00124163 -0.00304619]]",[],0.0,0.0
1787152695.243017,2.2812667191563945,0.23864534241791485,1.9239180986900832,"[ 5.56223191e-05  4.36651071e-07  0.00000000e+00  0.00000000e+00
  0.00000000e+00 -2.74474744e-06  4.36651071e-07  4.97738336e-05
  0.00000000e+00  0.00000000e+00  0.00000000e+00  2.50577714e-07
  0.00000000e+00  0.00000000e+00  0.00000000e+00  0.00000000e+00
  0.00000000e+00  0.00000000e+00  0.00000000e+00  0.00000000e+00
  0.00000000e+00  0.00000000e+00  0.00000000e+00  0.00000000e+00
  0.00000000e+00  0.00000000e+00  0.00000000e+00  0.00000000e+00
  0.00000000e+00  0.00000000e+00 -2.74474744e-06  2.50577714e-07
  0.00000000e+00  0.00000000e+00  0.00000000e+00  3.69213857e-06]","[[-0.00011563  0.04856295]
 [-0.00124163 -0.00304619]]",[],0.0,0.0
1787152695.298741,2.2812667191563945,0.23864534241791485,1.9239180986900832,"[ 5.56223191e-05  4.36651071e-07  0.00000000e+00  0.00000000e+00
  0.00000000e+00 -2.74474744e-06  4.36651071e-07  4.97738336e-05
  0.00000000e+00  0.00000000e+00  0.00000000e+00  2.50577714e-07
  0.00000000e+00  0.00000000e+00  0.00000000e+00  0.00000000e+00
  0.00000000e+00  0.00000000e+00  0.00000000e+00  0.00000000e+00
  0.00000000e+00  0.00000000e+00  0.00000000e+00  0.00000000e+00
  0.00000000e+00  0.00000000e+00  0.00000000e+00  0.00000000e+00
  0.00000000e+00  0.00000000e+00 -2.74474744e-06  2.50577714e-07
  0.00000000e+00  0.00000000e+00  0.00000000e+00  3.69213857e-06]","[[-0.00011563  0.04856295]
 [-0.00124163 -0.00304619]]",[],0.0,0.0
1787152695.3429606,2.2812667191563945,0.23864534241791485,1.9239180986900832,"[ 5.56223191e-05  4.36651071e-07  0.00000000e+00  0.00000000e+00
  0.00000000e+00 -2.74474744e-06  4.36651071e-07  4.97738336e-05
  0.00000000e+00  0.00000000e+00  0.00000000e+00  2.50577714e-07
  0.00000000e+00  0.00000000e+00  0.00000000e+00  0.00000000e+00
  0.00000000e+00  0.00000000e+00  0.00000000e+00  0.00000000e+00
  0.00000000e+00  0.00000000e+00  0.00000000e+00  0.00000000e+00
  0.00000000e+00  0.00000000e+00  0.00000000e+00  0.00000000e+00
  0.00000000e+00  0.00000000e+00 -2.74474744e-06  2.50577714e-07
  0.00000000e+00  0.00000000e+00  0.00000000e+00  3.69213857e-06]","[[-0.00011563  0.04856295]
 [-0.00124163 -0.00304619]]",[],0.0,0.0
1787152695.391904,2.2812667191563945,0.23864534241791485,1.9239180986900832,"[ 5.56223191e-05  4.36651071e-07  0.00000000e+00  0.00000000e+00
  0.00000000e+00 -2.74474744e-06  4.36651071e-07  4.97738336e-05
  0.00000000e+00  0.00000000e+00  0.00000000e+00  2.50577714e-07
  0.00000000e+00  0.00000000e+00  0.00000000e+00  0.00000000e+00
  0.00000000e+00  0.00000000e+00  0.00000000e+00  0.00000000e+00
  0.00000000e+00  0.00000000e+00  0.00000000e+00  0.00000000e+00
  0.00000000e+00  0.00000000e+00  0.00000000e+00  0.00000000e+00
  0.00000000e+00  0.00000000e+00 -2.74474744e-06  2.50577714e-07
  0.00000000e+00  0.00000000e+00  0.00000000e+00  3.69213857e-06]","[[-0.00011563  0.04856295]
 [-0.00124163 -0.00304619]]",[],0.0,0.0
1787152695.4472919,2.2812667191563945,0.23864534241791485,1.9239180986900832,"[ 5.56223191e-05  4.36651071e-07  0.00000000e+00  0.00000000e+00
  0.00000000e+00 -2.74474744e-06  4.36651071e-07  4.97738336e-05
  0.00000000e+00  0.00000000e+00  0.00000000e+00  2.50577714e-07
  0.00000000e+00  0.00000000e+00  0.00000000e+00  0.00000000e+00
  0.00000000e+00  0.00000000e+00  0.00000000e+00  0.00000000e+00
  0.00000000e+00  0.00000000e+00  0.00000000e+00  0.00000000e+00
  0.00000000e+00  0.00000000e+00  0.00000000e+00  0.00000000e+00
  0.00000000e+00  0.00000000e+00 -2.74474744e-06  2.50577714e-07
  0.00000000e+00  0.00000000e+00  0.00000000e+00  3.69213857e-06]","[[-0.00011563  0.04856295]
 [-0.00124163 -0.00304619]]",[],0.0,0.0
1787152695.4930506,2.2812667191563945,0.23864534241791485,1.9239180986900832,"[ 5.56223191e-05  4.36651071e-07  0.00000000e+00  0.00000000e+00
  0.00000000e+00 -2.74474744e-06  4.36651071e-07  4.97738336e-05
  0.00000000e+00  0.00000000e+00  0.00000000e+00  2.50577714e-07
  0.00000000e+00  0.00000000e+00  0.00000000e+00  0.00000000e+00
  0.00000000e+00  0.00000000e+00  0.00000000e+00  0.00000000e+00
  0.00000000e+00  0.00000000e+00  0.00000000e+00  0.00000000e+00
  0.00000000e+00  0.00000000e+00  0.00000000e+00  0.00000000e+00
  0.00000000e+00  0.00000000e+00 -2.74474744e-06  2.50577714e-07
  0.00000000e+00  0.00000000e+00  0.00000000e+00  3.69213857e-06]","[[-0.00011563  0.04856295]
 [-0.00124163 -0.00304619]]",[],0.0,0.0
1787152695.5455647,2.2812667191563945,0.23864534241791485,1.9239180986900832,"[ 5.56223191e-05  4.36651071e-07  0.00000000e+00  0.00000000e+00
  0.00000000e+00 -2.74474744e-06  4.36651071e-07  4.97738336e-05
  0.00000000e+00  0.00000000e+00  0.00000000e+00  2.50577714e-07
  0.00000000e+00  0.00000000e+00  0.00000000e+00  0.00000000e+00
  0.00000000e+00  0.00000000e+00  0.00000000e+00  0.00000000e+00
  0.00000000e+00  0.00000000e+00  0.00000000e+00  0.00000000e+00
  0.00000000e+00  0.00000000e+00  0.00000000e+00  0.00000000e+00
  0.00000000e+00  0.00000000e+00 -2.74474744e-06  2.50577714e-07
  0.00000000e+00  0.00000000e+00  0.00000000e+00  3.69213857e-06]","[[-0.00011563  0.04856295]
 [-0.00124163 -0.00304619]]",[],0.0,0.0
1787152695.592867,2.2812667191563945,0.23864534241791485,1.9239180986900832,"[ 5.56223191e-05  4.36651071e-07  0.00000000e+00  0.00000000e+00
  0.00000000e+00 -2.74474744e-06  4.36651071e-07  4.97738336e-05
  0.00000000e+00  0.00000000e+00  0.00000000e+00  2.50577714e-07
  0.00000000e+00  0.00000000e+00  0.00000000e+00  0.00000000e+00
  0.00000000e+00  0.00000000e+00  0.00000000e+00  0.00000000e+00
  0.00000000e+00  0.00000000e+00  0.00000000e+00  0.00000000e+00
  0.00000000e+00  0.00000000e+00  0.00000000e+00  0.00000000e+00
  0.00000000e+00  0.00000000e+00 -2.74474744e-06  2.50577714e-07
  0.00000000e+00  0.00000000e+00  0.00000000e+00  3.69213857e-06]","[[-0.00011563  0.04856295]
 [-0.00124163 -0.00304619]]",[],0.0,0.0
1787152695.6439426,2.2812667191563945,0.23864534241791485,1.9239180986900832,"[ 5.56223191e-05  4.36651071e-07  0.00000000e+00  0.00000000e+00
  0.00000000e+00 -2.74474744e-06  4.36651071e-07  4.97738336e-05
  0.00000000e+00  0.00000000e+00  0.00000000e+00  2.50577714e-07
  0.00000000e+00  0.00000000e+00  0.00000000e+00  0.00000000e+00
  0.00000000e+00  0.00000000e+00  0.00000000e+00  0.00000000e+00
  0.00000000e+00  0.00000000e+00  0.00000000e+00  0.00000000e+00
  0.00000000e+00  0.00000000e+00  0.00000000e+00  0.00000000e+00
  0.00000000e+00  0.00000000e+00 -2.74474744e-06  2.50577714e-07
  0.00000000e+00  0.00000000e+00  0.00000000e+00  3.69213857e-06]","[[-0.00011563  0.04856295]
 [-0.00124163 -0.00304619]]",[],0.0,0.0
1787152695.6921408,2.2812667191563945,0.23864534241791485,1.9239180986900832,"[ 5.56223191e-05  4.36651071e-07  0.00000000e+00  0.00000000e+00
  0.00000000e+00 -2.74474744e-06  4.36651071e-07  4.97738336e-05
  0.00000000e+00  0.00000000e+00  0.00000000e+00  2.50577714e-07
  0.00000000e+00  0.00000000e+00  0.00000000e+00  0.00000000e+00
  0.00000000e+00  0.00000000e+00  0.00000000e+00  0.00000000e+00
  0.00000000e+00  0.00000000e+00  0.00000000e+00  0.00000000e+00
  0.00000000e+00  0.00000000e+00  0.00000000e+00  0.00000000e+00
  0.00000000e+00  0.00000000e+00 -2.74474744e-06  2.50577714e-07
  0.00000000e+00  0.00000000e+00  0.00000000e+00  3.69213857e-06]","[[-0.00011563  0.04856295]
 [-0.00124163 -0.00304619]]",[],0.0,0.0
1787152695.7474272,2.2812667191563945,0.23864534241791485,1.9239180986900832,"[ 5.56223191e-05  4.36651071e-07  0.00000000e+00  0.00000000e+00
  0.00000000e+00 -2.74474744e-06  4.36651071e-07  4.97738336e-05
  0.00000000e+00  0.00000000e+00  0.00000000e+00  2.50577714e-07
  0.00000000e+00  0.00000000e+00  0.00000000e+00  0.00000000e+00
  0.00000000e+00  0.00000000e+00  0.00000000e+00  0.00000000e+00
  0.00000000e+00  0.00000000e+00  0.00000000e+00  0.00000000e+00
  0.00000000e+00  0.00000000e+00  0.00000000e+00  0.00000000e+00
  0.00000000e+00  0.00000000e+00 -2.74474744e-06  2.50577714e-07
  0.00000000e+00  0.00000000e+00  0.00000000e+00  3.69213857e-06]","[[-0.00011563  0.04856295]
 [-0.00124163 -0.00304619]]",[],0.0,0.0
1787152695.7933848,2.257758722422595,0.2225382253235448,1.9367529238642873,"[ 2.56202187e-05 -4.63942993e-07  0.00000000e+00  0.00000000e+00
  0.00000000e+00 -8.10752892e-07 -4.63942993e-07  2.45830321e-05
  0.00000000e+00  0.00000000e+00  0.00000000e+00  2.61507392e-07
  0.00000000e+00  0.00000000e+00  0.00000000e+00  0.00000000e+00
  0.00000000e+00  0.00000000e+00  0.00000000e+00  0.00000000e+00
  0.00000000e+00  0.00000000e+00  0.00000000e+00  0.00000000e+00
  0.00000000e+00  0.00000000e+00  0.00000000e+00  0.00000000e+00
  0.00000000e+00  0.00000000e+00 -8.10752892e-07  2.61507392e-07
  0.00000000e+00  0.00000000e+00  0.00000000e+00  2.76320760e-06]","[[ 0.0002451   0.01571928]
 [-0.00057622  0.00476671]]",[],0.0,0.0
1787152695.844271,2.257758722422595,0.2225382253235448,1.9367529238642873,"[ 2.56202187e-05 -4.63942993e-07  0.00000000e+00  0.00000000e+00
  0.00000000e+00 -8.10752892e-07 -4.63942993e-07  2.45830321e-05
  0.00000000e+00  0.00000000e+00  0.00000000e+00  2.61507392e-07
  0.00000000e+00  0.00000000e+00  0.00000000e+00  0.00000000e+00
  0.00000000e+00  0.00000000e+00  0.00000000e+00  0.00000000e+00
  0.00000000e+00  0.00000000e+00  0.00000000e+00  0.00000000e+00
  0.00000000e+00  0.00000000e+00  0.00000000e+00  0.00000000e+00
  0.00000000e+00  0.00000000e+00 -8.10752892e-07  2.61507392e-07
  0.00000000e+00  0.00000000e+00  0.00000000e+00  2.76320760e-06]","[[ 0.0002451   0.01571928]
 [-0.00057622  0.00476671]]",[],0.0,0.0
1787152695.8933947,2.257758722422595,0.2225382253235448,1.9367529238642873,"[ 2.56202187e-05 -4.63942993e-07  0.00000000e+00  0.00000000e+00
  0.00000000e+00 -8.10752892e-07 -4.63942993e-07  2.45830321e-05
  0.00000000e+00  0.00000000e+00  0.00000000e+00  2.61507392e-07
  0.00000000e+00  0.00000000e+00  0.00000000e+00  0.00000000e+00
  0.00000000e+00  0.00000000e+00  0.00000000e+00  0.00000000e+00
  0.00000000e+00  0.00000000e+00  0.00000000e+00  0.00000000e+00
  0.00000000e+00  0.00000000e+00  0.00000000e+00  0.00000000e+00
  0.00000000e+00  0.00000000e+00 -8.10752892e-07  2.61507392e-07
  0.00000000e+00  0.00000000e+00  0.00000000e+00  2.76320760e-06]","[[ 0.0002451   0.01571928]
 [-0.00057622  0.00476671]]",[],0.0,0.0
1787152695.9419332,2.257758722422595,0.2225382253235448,1.9367529238642873,"[ 2.56202187e-05 -4.63942993e-07  0.00000000e+00  0.00000000e+00
  0.00000000e+00 -8.10752892e-07 -4.63942993e-07  2.45830321e-05
  0.00000000e+00  0.00000000e+00  0.00000000e+00  2.61507392e-07
  0.00000000e+00  0.00000000e+00  0.00000000e+00  0.00000000e+00
  0.00000000e+00  0.00000000e+00  0.00000000e+00  0.00000000e+00
  0.00000000e+00  0.00000000e+00  0.00000000e+00  0.00000000e+00
  0.00000000e+00  0.00000000e+00  0.00000000e+00  0.00000000e+00
  0.00000000e+00  0.00000000e+00 -8.10752892e-07  2.61507392e-07
  0.00000000e+00  0.00000000e+00  0.00000000e+00  2.76320760e-06]","[[ 0.0002451   0.01571928]
 [-0.00057622  0.00476671]]",[],0.0,0.0
1787152695.9948113,2.257758722422595,0.2225382253235448,1.9367529238642873,"[ 2.56202187e-05 -4.63942993e-07  0.00000000e+00  0.00000000e+00
  0.00000000e+00 -8.10752892e-07 -4.63942993e-07  2.45830321e-05
  0.00000000e+00  0.00000000e+00  0.00000000e+00  2.61507392e-07
  0.00000000e+00  0.00000000e+00  0.00000000e+00  0.00000000e+00
  0.00000000e+00  0.00000000e+00  0.00000000e+00  0.00000000e+00
  0.00000000e+00  0.00000000e+00  0.00000000e+00  0.00000000e+00
  0.00000000e+00  0.00000000e+00  0.00000000e+00  0.00000000e+00
  0.00000000e+00  0.00000000e+00 -8.10752892e-07  2.61507392e-07
  0.00000000e+00  0.00000000e+00  0.00000000e+00  2.76320760e-06]","[[ 0.0002451   0.01571928]
 [-0.00057622  0.00476671]]",[],0.0,0.0
1787152696.0440319,2.257758722422595,0.2225382253235448,1.9367529238642873,"[ 2.56202187e-05 -4.63942993e-07  0.00000000e+00  0.00000000e+00
  0.00000000e+00 -8.10752892e-07 -4.63942993e-07  2.45830321e-05
  0.00000000e+00  0.00000000e+00  0.00000000e+00  2.61507392e-07
  0.00000000e+00  0.00000000e+00  0.00000000e+00  0.00000000e+00
  0.00000000e+00  0.00000000e+00  0.00000000e+00  0.00000000e+00
  0.00000000e+00  0.00000000e+00  0.00000000e+00  0.00000000e+00
  0.00000000e+00  0.00000000e+00  0.00000000e+00  0.00000000e+00
  0.00000000e+00  0.00000000e+00 -8.10752892e-07  2.61507392e-07
  0.00000000e+00  0.00000000e+00  0.00000000e+00  2.76320760e-06]","[[ 0.0002451   0.01571928]
 [-0.00057622  0.00476671]]",[],0.0,0.0
1787152696.092288,2.257758722422595,0.2225382253235448,1.9367529238642873,"[ 2.56202187e-05 -4.63942993e-07  0.00000000e+00  0.00000000e+00
  0.00000000e+00 -8.10752892e-07 -4.63942993e-07  2.45830321e-05
  0.00000000e+00  0.00000000e+00  0.00000000e+00  2.61507392e-07
  0.00000000e+00  0.00000000e+00  0.00000000e+00  0.00000000e+00
  0.00000000e+00  0.00000000e+00  0.00000000e+00  0.00000000e+00
  0.00000000e+00  0.00000000e+00  0.00000000e+00  0.00000000e+00
  0.00000000e+00  0.00000000e+00  0.00000000e+00  0.00000000e+00
  0.00000000e+00  0.00000000e+00 -8.10752892e-07  2.61507392e-07
  0.00000000e+00  0.00000000e+00  0.00000000e+00  2.76320760e-06]","[[ 0.0002451   0.01571928]
 [-0.00057622  0.00476671]]",[],0.0,0.0
1787152696.1455095,2.257758722422595,0.2225382253235448,1.9367529238642873,"[ 2.56202187e-05 -4.63942993e-07  0.00000000e+00  0.00000000e+00
  0.00000000e+00 -8.10752892e-07 -4.63942993e-07  2.45830321e-05
  0.00000000e+00  0.00000000e+00  0.00000000e+00  2.61507392e-07
  0.00000000e+00  0.00000000e+00  0.00000000e+00  0.00000000e+00
  0.00000000e+00  0.00000000e+00  0.00000000e+00  0.00000000e+00
  0.00000000e+00  0.00000000e+00  0.00000000e+00  0.00000000e+00
  0.00000000e+00  0.00000000e+00  0.00000000e+00  0.00000000e+00
  0.00000000e+00  0.00000000e+00 -8.10752892e-07  2.61507392e-07
  0.00000000e+00  0.00000000e+00  0.00000000e+00  2.76320760e-06]","[[ 0.0002451   0.01571928]
 [-0.00057622  0.00476671]]",[],0.0,0.0
1787152696.191955,2.257758722422595,0.2225382253235448,1.9367529238642873,"[ 2.56202187e-05 -4.63942993e-07  0.00000000e+00  0.00000000e+00
  0.00000000e+00 -8.10752892e-07 -4.63942993e-07  2.45830321e-05
  0.00000000e+00  0.00000000e+00  0.00000000e+00  2.61507392e-07
  0.00000000e+00  0.00000000e+00  0.00000000e+00  0.00000000e+00
  0.00000000e+00  0.00000000e+00  0.00000000e+00  0.00000000e+00
  0.00000000e+00  0.00000000e+00  0.00000000e+00  0.00000000e+00
  0.00000000e+00  0.00000000e+00  0.00000000e+00  0.00000000e+00
  0.00000000e+00  0.00000000e+00 -8.10752892e-07  2.61507392e-07
  0.00000000e+00  0.00000000e+00  0.00000000e+00  2.76320760e-06]","[[ 0.0002451   0.01571928]
 [-0.00057622  0.00476671]]",[],0.0,0.0
1787152696.2432628,2.257758722422595,0.2225382253235448,1.9367529238642873,"[ 2.56202187e-05 -4.63942993e-07  0.00000000e+00  0.00000000e+00
  0.00000000e+00 -8.10752892e-07 -4.63942993e-07  2.45830321e-05
  0.00000000e+00  0.00000000e+00  0.00000000e+00  2.61507392e-07
  0.00000000e+00  0.00000000e+00  0.00000000e+00  0.00000000e+00
  0.00000000e+00  0.00000000e+00  0.00000000e+00  0.00000000e+00
  0.00000000e+00  0.00000000e+00  0.00000000e+00  0.00000000e+00
  0.00000000e+00  0.00000000e+00  0.00000000e+00  0.00000000e+00
  0.00000000e+00  0.00000000e+00 -8.10752892e-07  2.61507392e-07
  0.00000000e+00  0.00000000e+00  0.00000000e+00  2.76320760e-06]","[[ 0.0002451   0.01571928]
 [-0.00057622  0.00476671]]",[],0.0,0.0
1787152696.292685,2.257758722422595,0.2225382253235448,1.9367529238642873,"[ 2.56202187e-05 -4.63942993e-07  0.00000000e+00  0.00000000e+00
  0.00000000e+00 -8.10752892e-07 -4.63942993e-07  2.45830321e-05
  0.00000000e+00  0.00000000e+00  0.00000000e+00  2.61507392e-07
  0.00000000e+00  0.00000000e+00  0.00000000e+00  0.00000000e+00
  0.00000000e+00  0.00000000e+00  0.00000000e+00  0.00000000e+00
  0.00000000e+00  0.00000000e+00  0.00000000e+00  0.00000000e+00
  0.00000000e+00  0.00000000e+00  0.00000000e+00  0.00000000e+00
  0.00000000e+00  0.00000000e+00 -8.10752892e-07  2.61507392e-07
  0.00000000e+00  0.00000000e+00  0.00000000e+00  2.76320760e-06]","[[ 0.0002451   0.01571928]
 [-0.00057622  0.00476671]]",[],0.0,0.0
1787152696.3438864,2.257758722422595,0.2225382253235448,1.9367529238642873,"[ 2.56202187e-05 -4.63942993e-07  0.00000000e+00  0.00000000e+00
  0.00000000e+00 -8.10752892e-07 -4.63942993e-07  2.45830321e-05
  0.00000000e+00  0.00000000e+00  0.00000000e+00  2.61507392e-07
  0.00000000e+00  0.00000000e+00  0.00000000e+00  0.00000000e+00
  0.00000000e+00  0.00000000e+00  0.00000000e+00  0.00000000e+00
  0.00000000e+00  0.00000000e+00  0.00000000e+00  0.00000000e+00
  0.00000000e+00  0.00000000e+00  0.00000000e+00  0.00000000e+00
  0.00000000e+00  0.00000000e+00 -8.10752892e-07  2.61507392e-07
  0.00000000e+00  0.00000000e+00  0.00000000e+00  2.76320760e-06]","[[ 0.0002451   0.01571928]
 [-0.00057622  0.00476671]]",[],0.0,0.0
1787152696.3923876,2.257758722422595,0.2225382253235448,1.9367529238642873,"[ 2.56202187e-05 -4.63942993e-07  0.00000000e+00  0.00000000e+00
  0.00000000e+00 -8.10752892e-07 -4.63942993e-07  2.45830321e-05
  0.00000000e+00  0.00000000e+00  0.00000000e+00  2.61507392e-07
  0.00000000e+00  0.00000000e+00  0.00000000e+00  0.00000000e+00
  0.00000000e+00  0.00000000e+00  0.00000000e+00  0.00000000e+00
  0.00000000e+00  0.00000000e+00  0.00000000e+00  0.00000000e+00
  0.00000000e+00  0.00000000e+00  0.00000000e+00  0.00000000e+00
  0.00000000e+00  0.00000000e+00 -8.10752892e-07  2.61507392e-07
  0.00000000e+00  0.00000000e+00  0.00000000e+00  2.76320760e-06]","[[ 0.0002451   0.01571928]
 [-0.00057622  0.00476671]]",[],0.0,0.0
1787152696.4418447,2.253169148797505,0.2185277898148296,1.950292270504609,"[ 1.68639296e-05 -4.45313197e-07  0.00000000e+00  0.00000000e+00
  0.00000000e+00 -3.66604631e-07 -4.45313197e-07  1.65029927e-05
  0.00000000e+00  0.00000000e+00  0.00000000e+00  8.61862891e-08
  0.00000000e+00  0.00000000e+00  0.00000000e+00  0.00000000e+00
  0.00000000e+00  0.00000000e+00  0.00000000e+00  0.00000000e+00
  0.00000000e+00  0.00000000e+00  0.00000000e+00  0.00000000e+00
  0.00000000e+00  0.00000000e+00  0.00000000e+00  0.00000000e+00
  0.00000000e+00  0.00000000e+00 -3.66604631e-07  8.61862891e-08
  0.00000000e+00  0.00000000e+00  0.00000000e+00  2.81877061e-06]","[[ 0.00016063  0.01005698]
 [-0.00038946  0.0031681 ]]",[],0.0,0.0
1787152696.4919634,2.253169148797505,0.2185277898148296,1.950292270504609,"[ 1.68639296e-05 -4.45313197e-07  0.00000000e+00  0.00000000e+00
  0.00000000e+00 -3.66604631e-07 -4.45313197e-07  1.65029927e-05
  0.00000000e+00  0.00000000e+00  0.00000000e+00  8.61862891e-08
  0.00000000e+00  0.00000000e+00  0.00000000e+00  0.00000000e+00
  0.00000000e+00  0.00000000e+00  0.00000000e+00  0.00000000e+00
  0.00000000e+00  0.00000000e+00  0.00000000e+00  0.00000000e+00
  0.00000000e+00  0.00000000e+00  0.00000000e+00  0.00000000e+00
  0.00000000e+00  0.00000000e+00 -3.66604631e-07  8.61862891e-08
  0.00000000e+00  0.00000000e+00  0.00000000e+00  2.81877061e-06]","[[ 0.00016063  0.01005698]
 [-0.00038946  0.0031681 ]]",[],0.0,0.0
1787152696.54595,2.253169148797505,0.2185277898148296,1.950292270504609,"[ 1.68639296e-05 -4.45313197e-07  0.00000000e+00  0.00000000e+00
  0.00000000e+00 -3.66604631e-07 -4.45313197e-07  1.65029927e-05
  0.00000000e+00  0.00000000e+00  0.00000000e+00  8.61862891e-08
  0.00000000e+00  0.00000000e+00  0.00000000e+00  0.00000000e+00
  0.00000000e+00  0.00000000e+00  0.00000000e+00  0.00000000e+00
  0.00000000e+00  0.00000000e+00  0.00000000e+00  0.00000000e+00
  0.00000000e+00  0.00000000e+00  0.00000000e+00  0.00000000e+00
  0.00000000e+00  0.00000000e+00 -3.66604631e-07  8.61862891e-08
  0.00000000e+00  0.00000000e+00  0.00000000e+00  2.81877061e-06]","[[ 0.00016063  0.01005698]
 [-0.00038946  0.0031681 ]]",[],0.0,0.0
1787152696.5940144,2.253169148797505,0.2185277898148296,1.950292270504609,"[ 1.68639296e-05 -4.45313197e-07  0.00000000e+00  0.00000000e+00
  0.00000000e+00 -3.66604631e-07 -4.45313197e-07  1.65029927e-05
  0.00000000e+00  0.00000000e+00  0.00000000e+00  8.61862891e-08
  0.00000000e+00  0.00000000e+00  0.00000000e+00  0.00000000e+00
  0.00000000e+00  0.00000000e+00  0.00000000e+00  0.00000000e+00
  0.00000000e+00  0.00000000e+00  0.00000000e+00  0.00000000e+00
  0.00000000e+00  0.00000000e+00  0.00000000e+00  0.00000000e+00
  0.00000000e+00  0.00000000e+00 -3.66604631e-07  8.61862891e-08
  0.00000000e+00  0.00000000e+00  0.00000000e+00  2.81877061e-06]","[[ 0.00016063  0.01005698]
 [-0.00038946  0.0031681 ]]",[],0.0,0.0
1787152696.6490161,2.253169148797505,0.2185277898148296,1.950292270504609,"[ 1.68639296e-05 -4.45313197e-07  0.00000000e+00  0.00000000e+00
  0.00000000e+00 -3.66604631e-07 -4.45313197e-07  1.65029927e-05
  0.00000000e+00  0.00000000e+00  0.00000000e+00  8.61862891e-08
  0.00000000e+00  0.00000000e+00  0.00000000e+00  0.00000000e+00
  0.00000000e+00  0.00000000e+00  0.00000000e+00  0.00000000e+00
  0.00000000e+00  0.00000000e+00  0.00000000e+00  0.00000000e+00
  0.00000000e+00  0.00000000e+00  0.00000000e+00  0.00000000e+00
  0.00000000e+00  0.00000000e+00 -3.66604631e-07  8.61862891e-08
  0.00000000e+00  0.00000000e+00  0.00000000e+00  2.81877061e-06]","[[ 0.00016063  0.01005698]
 [-0.00038946  0.0031681 ]]",[],0.0,0.0
1787152696.6941137,2.253169148797505,0.2185277898148296,1.950292270504609,"[ 1.68639296e-05 -4.45313197e-07  0.00000000e+00  0.00000000e+00
  0.00000000e+00 -3.66604631e-07 -4.45313197e-07  1.65029927e-05
  0.00000000e+00  0.00000000e+00  0.00000000e+00  8.61862891e-08
  0.00000000e+00  0.00000000e+00  0.00000000e+00  0.00000000e+00
  0.00000000e+00  0.00000000e+00  0.00000000e+00  0.00000000e+00
  0.00000000e+00  0.00000000e+00  0.00000000e+00  0.00000000e+00
  0.00000000e+00  0.00000000e+00  0.00000000e+00  0.00000000e+00
  0.00000000e+00  0.00000000e+00 -3.66604631e-07  8.61862891e-08
  0.00000000e+00  0.00000000e+00  0.00000000e+00  2.81877061e-06]","[[ 0.00016063  0.01005698]
 [-0.00038946  0.0031681 ]]",[],0.0,0.0
1787152696.745436,2.253169148797505,0.2185277898148296,1.950292270504609,"[ 1.68639296e-05 -4.45313197e-07  0.00000000e+00  0.00000000e+00
  0.00000000e+00 -3.66604631e-07 -4.45313197e-07  1.65029927e-05
  0.00000000e+00  0.00000000e+00  0.00000000e+00  8.61862891e-08
  0.00000000e+00  0.00000000e+00  0.00000000e+00  0.00000000e+00
  0.00000000e+00  0.00000000e+00  0.00000000e+00  0.00000000e+00
  0.00000000e+00  0.00000000e+00  0.00000000e+00  0.00000000e+00
  0.00000000e+00  0.00000000e+00  0.00000000e+00  0.00000000e+00
  0.00000000e+00  0.00000000e+00 -3.66604631e-07  8.61862891e-08
  0.00000000e+00  0.00000000e+00  0.00000000e+00  2.81877061e-06]","[[ 0.00016063  0.01005698]
 [-0.00038946  0.0031681 ]]",[],0.0,0.0
1787152696.7921426,2.253169148797505,0.2185277898148296,1.950292270504609,"[ 1.68639296e-05 -4.45313197e-07  0.00000000e+00  0.00000000e+00
  0.00000000e+00 -3.66604631e-07 -4.45313197e-07  1.65029927e-05
  0.00000000e+00  0.00000000e+00  0.00000000e+00  8.61862891e-08
  0.00000000e+00  0.00000000e+00  0.00000000e+00  0.00000000e+00
  0.00000000e+00  0.00000000e+00  0.00000000e+00  0.00000000e+00
  0.00000000e+00  0.00000000e+00  0.00000000e+00  0.00000000e+00
  0.00000000e+00  0.00000000e+00  0.00000000e+00  0.00000000e+00
  0.00000000e+00  0.00000000e+00 -3.66604631e-07  8.61862891e-08
  0.00000000e+00  0.00000000e+00  0.00000000e+00  2.81877061e-06]","[[ 0.00016063  0.01005698]
 [-0.00038946  0.0031681 ]]",[],0.0,0.0
1787152696.842104,2.253169148797505,0.2185277898148296,1.950292270504609,"[ 1.68639296e-05 -4.45313197e-07  0.00000000e+00  0.00000000e+00
  0.00000000e+00 -3.66604631e-07 -4.45313197e-07  1.65029927e-05
  0.00000000e+00  0.00000000e+00  0.00000000e+00  8.61862891e-08
  0.00000000e+00  0.00000000e+00  0.00000000e+00  0.00000000e+00
  0.00000000e+00  0.00000000e+00  0.00000000e+00  0.00000000e+00
  0.00000000e+00  0.00000000e+00  0.00000000e+00  0.00000000e+00
  0.00000000e+00  0.00000000e+00  0.00000000e+00  0.00000000e+00
  0.00000000e+00  0.00000000e+00 -3.66604631e-07  8.61862891e-08
  0.00000000e+00  0.00000000e+00  0.00000000e+00  2.81877061e-06]","[[ 0.00016063  0.01005698]
 [-0.00038946  0.0031681 ]]",[],0.0,0.0
1787152696.893911,2.253169148797505,0.2185277898148296,1.950292270504609,"[ 1.68639296e-05 -4.45313197e-07  0.00000000e+00  0.00000000e+00
  0.00000000e+00 -3.66604631e-07 -4.45313197e-07  1.65029927e-05
  0.00000000e+00  0.00000000e+00  0.00000000e+00  8.61862891e-08
  0.00000000e+00  0.00000000e+00  0.00000000e+00  0.00000000e+00
  0.00000000e+00  0.00000000e+00  0.00000000e+00  0.00000000e+00
  0.00000000e+00  0.00000000e+00  0.00000000e+00  0.00000000e+00
  0.00000000e+00  0.00000000e+00  0.00000000e+00  0.00000000e+00
  0.00000000e+00  0.00000000e+00 -3.66604631e-07  8.61862891e-08
  0.00000000e+00  0.00000000e+00  0.00000000e+00  2.81877061e-06]","[[ 0.00016063  0.01005698]
 [-0.00038946  0.0031681 ]]",[],0.0,0.0
1787152696.9487772,2.253169148797505,0.2185277898148296,1.950292270504609,"[ 1.68639296e-05 -4.45313197e-07  0.00000000e+00  0.00000000e+00
  0.00000000e+00 -3.66604631e-07 -4.45313197e-07  1.65029927e-05
  0.00000000e+00  0.00000000e+00  0.00000000e+00  8.61862891e-08
  0.00000000e+00  0.00000000e+00  0.00000000e+00  0.00000000e+00
  0.00000000e+00  0.00000000e+00  0.00000000e+00  0.00000000e+00
  0.00000000e+00  0.00000000e+00  0.00000000e+00  0.00000000e+00
  0.00000000e+00  0.00000000e+00  0.00000000e+00  0.00000000e+00
  0.00000000e+00  0.00000000e+00 -3.66604631e-07  8.61862891e-08
  0.00000000e+00  0.00000000e+00  0.00000000e+00  2.81877061e-06]","[[ 0.00016063  0.01005698]
 [-0.00038946  0.0031681 ]]",[],0.0,0.0
1787152696.99271,2.253169148797505,0.2185277898148296,1.950292270504609,"[ 1.68639296e-05 -4.45313197e-07  0.00000000e+00  0.00000000e+00
  0.00000000e+00 -3.66604631e-07 -4.45313197e-07  1.65029927e-05
  0.00000000e+00  0.00000000e+00  0.00000000e+00  8.61862891e-08
  0.00000000e+00  0.00000000e+00  0.00000000e+00  0.00000000e+00
  0.00000000e+00  0.00000000e+00  0.00000000e+00  0.00000000e+00
  0.00000000e+00  0.00000000e+00  0.00000000e+00  0.00000000e+00
  0.00000000e+00  0.00000000e+00  0.00000000e+00  0.00000000e+00
  0.00000000e+00  0.00000000e+00 -3.66604631e-07  8.61862891e-08
  0.00000000e+00  0.00000000e+00  0.00000000e+00  2.81877061e-06]","[[ 0.00016063  0.01005698]
 [-0.00038946  0.0031681 ]]",[],0.0,0.0
1787152697.0417438,2.253169148797505,0.2185277898148296,1.950292270504609,"[ 1.68639296e-05 -4.45313197e-07  0.00000000e+00  0.00000000e+00
  0.00000000e+00 -3.66604631e-07 -4.45313197e-07  1.65029927e-05
  0.00000000e+00  0.00000000e+00  0.00000000e+00  8.61862891e-08
  0.00000000e+00  0.00000000e+00  0.00000000e+00  0.00000000e+00
  0.00000000e+00  0.00000000e+00  0.00000000e+00  0.00000000e+00
  0.00000000e+00  0.00000000e+00  0.00000000e+00  0.00000000e+00
  0.00000000e+00  0.00000000e+00  0.00000000e+00  0.00000000e+00
  0.00000000e+00  0.00000000e+00 -3.66604631e-07  8.61862891e-08
  0.00000000e+00  0.00000000e+00  0.00000000e+00  2.81877061e-06]","[[ 0.00016063  0.01005698]
 [-0.00038946  0.0031681 ]]",[],0.0,0.0
1787152697.0920413,2.253169148797505,0.2185277898148296,1.950292270504609,"[ 1.68639296e-05 -4.45313197e-07  0.00000000e+00  0.00000000e+00
  0.00000000e+00 -3.66604631e-07 -4.45313197e-07  1.65029927e-05
  0.00000000e+00  0.00000000e+00  0.00000000e+00  8.61862891e-08
  0.00000000e+00  0.00000000e+00  0.00000000e+00  0.00000000e+00
  0.00000000e+00  0.00000000e+00  0.00000000e+00  0.00000000e+00
  0.00000000e+00  0.00000000e+00  0.00000000e+00  0.00000000e+00
  0.00000000e+00  0.00000000e+00  0.00000000e+00  0.00000000e+00
  0.00000000e+00  0.00000000e+00 -3.66604631e-07  8.61862891e-08
  0.00000000e+00  0.00000000e+00  0.00000000e+00  2.81877061e-06]","[[ 0.00016063  0.01005698]
 [-0.00038946  0.0031681 ]]",[],0.0,0.0
1787152697.142092,2.2494663591073185,0.21101359220851953,1.957822256556418,"[ 1.25659642e-05 -4.42722899e-07  0.00000000e+00  0.00000000e+00
  0.00000000e+00 -2.95249498e-07 -4.42722899e-07  1.23873147e-05
  0.00000000e+00  0.00000000e+00  0.00000000e+00  4.85468226e-08
  0.00000000e+00  0.00000000e+00  0.00000000e+00  0.00000000e+00
  0.00000000e+00  0.00000000e+00  0.00000000e+00  0.00000000e+00
  0.00000000e+00  0.00000000e+00  0.00000000e+00  0.00000000e+00
  0.00000000e+00  0.00000000e+00  0.00000000e+00  0.00000000e+00
  0.00000000e+00  0.00000000e+00 -2.95249498e-07  4.85468226e-08
  0.00000000e+00  0.00000000e+00  0.00000000e+00  2.76261308e-06]","[[ 0.00012167  0.00750716]
 [-0.00029351  0.00232656]]",[],0.0,0.0
1787152697.192157,2.2494663591073185,0.21101359220851953,1.957822256556418,"[ 1.25659642e-05 -4.42722899e-07  0.00000000e+00  0.00000000e+00
  0.00000000e+00 -2.95249498e-07 -4.42722899e-07  1.23873147e-05
  0.00000000e+00  0.00000000e+00  0.00000000e+00  4.85468226e-08
  0.00000000e+00  0.00000000e+00  0.00000000e+00  0.00000000e+00
  0.00000000e+00  0.00000000e+00  0.00000000e+00  0.00000000e+00
  0.00000000e+00  0.00000000e+00  0.00000000e+00  0.00000000e+00
  0.00000000e+00  0.00000000e+00  0.00000000e+00  0.00000000e+00
  0.00000000e+00  0.00000000e+00 -2.95249498e-07  4.85468226e-08
  0.00000000e+00  0.00000000e+00  0.00000000e+00  2.76261308e-06]","[[ 0.00012167  0.00750716]
 [-0.00029351  0.00232656]]",[],0.0,0.0
1787152697.2419684,2.2494663591073185,0.21101359220851953,1.957822256556418,"[ 1.25659642e-05 -4.42722899e-07  0.00000000e+00  0.00000000e+00
  0.00000000e+00 -2.95249498e-07 -4.42722899e-07  1.23873147e-05
  0.00000000e+00  0.00000000e+00  0.00000000e+00  4.85468226e-08
  0.00000000e+00  0.00000000e+00  0.00000000e+00  0.00000000e+00
  0.00000000e+00  0.00000000e+00  0.00000000e+00  0.00000000e+00
  0.00000000e+00  0.00000000e+00  0.00000000e+00  0.00000000e+00
  0.00000000e+00  0.00000000e+00  0.00000000e+00  0.00000000e+00
  0.00000000e+00  0.00000000e+00 -2.95249498e-07  4.85468226e-08
  0.00000000e+00  0.00000000e+00  0.00000000e+00  2.76261308e-06]","[[ 0.00012167  0.00750716]
 [-0.00029351  0.00232656]]",[],0.0,0.0
1787152697.692576,2.2494663591073185,0.21101359220851953,1.957822256556418,"[ 1.25659642e-05 -4.42722899e-07  0.00000000e+00  0.00000000e+00
  0.00000000e+00 -2.95249498e-07 -4.42722899e-07  1.23873147e-05
  0.00000000e+00  0.00000000e+00  0.00000000e+00  4.85468226e-08
  0.00000000e+00  0.00000000e+00  0.00000000e+00  0.00000000e+00
  0.00000000e+00  0.00000000e+00  0.00000000e+00  0.00000000e+00
  0.00000000e+00  0.00000000e+00  0.00000000e+00  0.00000000e+00
  0.00000000e+00  0.00000000e+00  0.00000000e+00  0.00000000e+00
  0.00000000e+00  0.00000000e+00 -2.95249498e-07  4.85468226e-08
  0.00000000e+00  0.00000000e+00  0.00000000e+00  2.76261308e-06]","[[ 0.00012167  0.00750716]
 [-0.00029351  0.00232656]]",[],0.0,0.0
1787152698.2385066,2.241796228876499,0.20243474470969758,1.9567508418192485,"[ 1.01316851e-05 -3.52477403e-07  0.00000000e+00  0.00000000e+00
  0.00000000e+00 -1.76718483e-07 -3.52477403e-07  1.00160772e-05
  0.00000000e+00  0.00000000e+00  0.00000000e+00  8.80279973e-08
  0.00000000e+00  0.00000000e+00  0.00000000e+00  0.00000000e+00
  0.00000000e+00  0.00000000e+00  0.00000000e+00  0.00000000e+00
  0.00000000e+00  0.00000000e+00  0.00000000e+00  0.00000000e+00
  0.00000000e+00  0.00000000e+00  0.00000000e+00  0.00000000e+00
  0.00000000e+00  0.00000000e+00 -1.76718483e-07  8.80279973e-08
  0.00000000e+00  0.00000000e+00  0.00000000e+00  2.70217627e-06]","[[ 9.74747167e-05  5.94584258e-03]
 [-2.37454806e-04  1.78673579e-03]]",[],0.0,0.0
1787152698.24321,2.241796228876499,0.20243474470969758,1.9567508418192485,"[ 1.01316851e-05 -3.52477403e-07  0.00000000e+00  0.00000000e+00
  0.00000000e+00 -1.76718483e-07 -3.52477403e-07  1.00160772e-05
  0.00000000e+00  0.00000000e+00  0.00000000e+00  8.80279973e-08
  0.00000000e+00  0.00000000e+00  0.00000000e+00  0.00000000e+00
  0.00000000e+00  0.00000000e+00  0.00000000e+00  0.00000000e+00
  0.00000000e+00  0.00000000e+00  0.00000000e+00  0.00000000e+00
  0.00000000e+00  0.00000000e+00  0.00000000e+00  0.00000000e+00
  0.00000000e+00  0.00000000e+00 -1.76718483e-07  8.80279973e-08
  0.00000000e+00  0.00000000e+00  0.00000000e+00  2.70217627e-06]","[[ 9.74747167e-05  5.94584258e-03]
 [-2.37454806e-04  1.78673579e-03]]",[],0.0,0.0
1787152698.790269,2.236511289944481,0.1960982124249182,1.9563955531393946,"[ 8.60199497e-06 -2.79233574e-07  0.00000000e+00  0.00000000e+00
  0.00000000e+00 -1.83788373e-07 -2.79233574e-07  8.48578039e-06
  0.00000000e+00  0.00000000e+00  0.00000000e+00  1.08180912e-07
  0.00000000e+00  0.00000000e+00  0.00000000e+00  0.00000000e+00
  0.00000000e+00  0.00000000e+00  0.00000000e+00  0.00000000e+00
  0.00000000e+00  0.00000000e+00  0.00000000e+00  0.00000000e+00
  0.00000000e+00  0.00000000e+00  0.00000000e+00  0.00000000e+00
  0.00000000e+00  0.00000000e+00 -1.83788373e-07  1.08180912e-07
  0.00000000e+00  0.00000000e+00  0.00000000e+00  2.73533345e-06]","[[ 9.27704234e-05  4.87946758e-03]
 [-1.97083294e-04  1.67867565e-03]]",[],0.0,0.0
1787152698.7920263,2.236511289944481,0.1960982124249182,1.9563955531393946,"[ 8.60199497e-06 -2.79233574e-07  0.00000000e+00  0.00000000e+00
  0.00000000e+00 -1.83788373e-07 -2.79233574e-07  8.48578039e-06
  0.00000000e+00  0.00000000e+00  0.00000000e+00  1.08180912e-07
  0.00000000e+00  0.00000000e+00  0.00000000e+00  0.00000000e+00
  0.00000000e+00  0.00000000e+00  0.00000000e+00  0.00000000e+00
  0.00000000e+00  0.00000000e+00  0.00000000e+00  0.00000000e+00
  0.00000000e+00  0.00000000e+00  0.00000000e+00  0.00000000e+00
  0.00000000e+00  0.00000000e+00 -1.83788373e-07  1.08180912e-07
  0.00000000e+00  0.00000000e+00  0.00000000e+00  2.73533345e-06]","[[ 9.27704234e-05  4.87946758e-03]
 [-1.97083294e-04  1.67867565e-03]]",[],0.0,0.0
1787152698.8535104,2.233375541850481,0.19264122618008628,1.9530919810991678,"[ 7.42848184e-06 -2.43427432e-07  0.00000000e+00  0.00000000e+00
  0.00000000e+00 -1.56168057e-07 -2.43427432e-07  7.38571785e-06
  0.00000000e+00  0.00000000e+00  0.00000000e+00  5.39304361e-08
  0.00000000e+00  0.00000000e+00  0.00000000e+00  0.00000000e+00
  0.00000000e+00  0.00000000e+00  0.00000000e+00  0.00000000e+00
  0.00000000e+00  0.00000000e+00  0.00000000e+00  0.00000000e+00
  0.00000000e+00  0.00000000e+00  0.00000000e+00  0.00000000e+00
  0.00000000e+00  0.00000000e+00 -1.56168057e-07  5.39304361e-08
  0.00000000e+00  0.00000000e+00  0.00000000e+00  2.72289265e-06]","[[ 7.00293085e-05  4.40312054e-03]
 [-1.75322679e-04  1.31338090e-03]]",[],0.0,0.0
1787152699.3292096,2.233375541850481,0.19264122618008628,1.9530919810991678,"[ 7.42848184e-06 -2.43427432e-07  0.00000000e+00  0.00000000e+00
  0.00000000e+00 -1.56168057e-07 -2.43427432e-07  7.38571785e-06
  0.00000000e+00  0.00000000e+00  0.00000000e+00  5.39304361e-08
  0.00000000e+00  0.00000000e+00  0.00000000e+00  0.00000000e+00
  0.00000000e+00  0.00000000e+00  0.00000000e+00  0.00000000e+00
  0.00000000e+00  0.00000000e+00  0.00000000e+00  0.00000000e+00
  0.00000000e+00  0.00000000e+00  0.00000000e+00  0.00000000e+00
  0.00000000e+00  0.00000000e+00 -1.56168057e-07  5.39304361e-08
  0.00000000e+00  0.00000000e+00  0.00000000e+00  2.72289265e-06]","[[ 7.00293085e-05  4.40312054e-03]
 [-1.75322679e-04  1.31338090e-03]]",[],0.0,0.0
1787152699.4264784,2.230669518348824,0.1880962541885539,1.952972899665615,"[ 6.52934697e-06 -2.27252060e-07  0.00000000e+00  0.00000000e+00
  0.00000000e+00 -1.68877667e-07 -2.27252060e-07  6.52041268e-06
  0.00000000e+00  0.00000000e+00  0.00000000e+00  3.85688637e-08
  0.00000000e+00  0.00000000e+00  0.00000000e+00  0.00000000e+00
  0.00000000e+00  0.00000000e+00  0.00000000e+00  0.00000000e+00
  0.00000000e+00  0.00000000e+00  0.00000000e+00  0.00000000e+00
  0.00000000e+00  0.00000000e+00  0.00000000e+00  0.00000000e+00
  0.00000000e+00  0.00000000e+00 -1.68877667e-07  3.85688637e-08
  0.00000000e+00  0.00000000e+00  0.00000000e+00  2.65864946e-06]","[[ 6.16370653e-05  3.91906362e-03]
 [-1.54965684e-04  1.16091157e-03]]",[],0.0,0.0
1787152699.470982,2.230669518348824,0.1880962541885539,1.952972899665615,"[ 6.52934697e-06 -2.27252060e-07  0.00000000e+00  0.00000000e+00
  0.00000000e+00 -1.68877667e-07 -2.27252060e-07  6.52041268e-06
  0.00000000e+00  0.00000000e+00  0.00000000e+00  3.85688637e-08
  0.00000000e+00  0.00000000e+00  0.00000000e+00  0.00000000e+00
  0.00000000e+00  0.00000000e+00  0.00000000e+00  0.00000000e+00
  0.00000000e+00  0.00000000e+00  0.00000000e+00  0.00000000e+00
  0.00000000e+00  0.00000000e+00  0.00000000e+00  0.00000000e+00
  0.00000000e+00  0.00000000e+00 -1.68877667e-07  3.85688637e-08
  0.00000000e+00  0.00000000e+00  0.00000000e+00  2.65864946e-06]","[[ 6.16370653e-05  3.91906362e-03]
 [-1.54965684e-04  1.16091157e-03]]",[],0.0,0.0
1787152699.8966303,2.230669518348824,0.1880962541885539,1.952972899665615,"[ 6.52934697e-06 -2.27252060e-07  0.00000000e+00  0.00000000e+00
  0.00000000e+00 -1.68877667e-07 -2.27252060e-07  6.52041268e-06
  0.00000000e+00  0.00000000e+00  0.00000000e+00  3.85688637e-08
  0.00000000e+00  0.00000000e+00  0.00000000e+00  0.00000000e+00
  0.00000000e+00  0.00000000e+00  0.00000000e+00  0.00000000e+00
  0.00000000e+00  0.00000000e+00  0.00000000e+00  0.00000000e+00
  0.00000000e+00  0.00000000e+00  0.00000000e+00  0.00000000e+00
  0.00000000e+00  0.00000000e+00 -1.68877667e-07  3.85688637e-08
  0.00000000e+00  0.00000000e+00  0.00000000e+00  2.65864946e-06]","[[ 6.16370653e-05  3.91906362e-03]
 [-1.54965684e-04  1.16091157e-03]]",[],0.0,0.0
1787152700.3585062,2.2307387952554745,0.1856137734251158,1.9554366794151845,"[ 5.74610961e-06 -2.30657981e-07  0.00000000e+00  0.00000000e+00
  0.00000000e+00 -1.59748787e-07 -2.30657981e-07  5.83319362e-06
  0.00000000e+00  0.00000000e+00  0.00000000e+00  3.13125260e-08
  0.00000000e+00  0.00000000e+00  0.00000000e+00  0.00000000e+00
  0.00000000e+00  0.00000000e+00  0.00000000e+00  0.00000000e+00
  0.00000000e+00  0.00000000e+00  0.00000000e+00  0.00000000e+00
  0.00000000e+00  0.00000000e+00  0.00000000e+00  0.00000000e+00
  0.00000000e+00  0.00000000e+00 -1.59748787e-07  3.13125260e-08
  0.00000000e+00  0.00000000e+00  0.00000000e+00  2.61400233e-06]","[[ 5.47646074e-05  3.45908437e-03]
 [-1.38935810e-04  1.02209748e-03]]",[],0.0,0.0
1787152700.8606231,2.2298554073054886,0.18222956649267938,1.950919105877558,"[ 5.18275035e-06 -2.23490496e-07  0.00000000e+00  0.00000000e+00
  0.00000000e+00 -1.57716467e-07 -2.23490496e-07  5.29522821e-06
  0.00000000e+00  0.00000000e+00  0.00000000e+00  8.42851686e-08
  0.00000000e+00  0.00000000e+00  0.00000000e+00  0.00000000e+00
  0.00000000e+00  0.00000000e+00  0.00000000e+00  0.00000000e+00
  0.00000000e+00  0.00000000e+00  0.00000000e+00  0.00000000e+00
  0.00000000e+00  0.00000000e+00  0.00000000e+00  0.00000000e+00
  0.00000000e+00  0.00000000e+00 -1.57716467e-07  8.42851686e-08
  0.00000000e+00  0.00000000e+00  0.00000000e+00  2.51502379e-06]","[[ 5.64612262e-05  3.00180715e-03]
 [-1.23762499e-04  9.71376649e-04]]",[],0.0,0.0
1787152701.4457598,2.229095131916316,0.1803704196339043,1.9513936617457122,"[ 4.71442738e-06 -2.19296014e-07  0.00000000e+00  0.00000000e+00
  0.00000000e+00 -1.00156580e-07 -2.19296014e-07  4.82710223e-06
  0.00000000e+00  0.00000000e+00  0.00000000e+00  4.28628959e-08
  0.00000000e+00  0.00000000e+00  0.00000000e+00  0.00000000e+00
  0.00000000e+00  0.00000000e+00  0.00000000e+00  0.00000000e+00
  0.00000000e+00  0.00000000e+00  0.00000000e+00  0.00000000e+00
  0.00000000e+00  0.00000000e+00  0.00000000e+00  0.00000000e+00
  0.00000000e+00  0.00000000e+00 -1.00156580e-07  4.28628959e-08
  0.00000000e+00  0.00000000e+00  0.00000000e+00  2.51861158e-06]","[[ 4.55277917e-05  2.77683874e-03]
 [-1.15253215e-04  7.97292968e-04]]",[],0.0,0.0
1787152701.9716518,2.229234999513075,0.17940180115679194,1.9577495452283713,"[ 4.33710018e-06 -2.29548026e-07  0.00000000e+00  0.00000000e+00
  0.00000000e+00 -1.49566723e-07 -2.29548026e-07  4.47677244e-06
  0.00000000e+00  0.00000000e+00  0.00000000e+00  6.43563290e-09
  0.00000000e+00  0.00000000e+00  0.00000000e+00  0.00000000e+00
  0.00000000e+00  0.00000000e+00  0.00000000e+00  0.00000000e+00
  0.00000000e+00  0.00000000e+00  0.00000000e+00  0.00000000e+00
  0.00000000e+00  0.00000000e+00  0.00000000e+00  0.00000000e+00
  0.00000000e+00  0.00000000e+00 -1.49566723e-07  6.43563290e-09
  0.00000000e+00  0.00000000e+00  0.00000000e+00  2.65776940e-06]","[[ 4.24880069e-05  2.64306784e-03]
 [-1.07128881e-04  7.78107012e-04]]",[],0.0,0.0
1787152702.5268497,2.2284481044068176,0.1777777235288315,1.9594048338171426,"[ 3.99206556e-06 -2.36702131e-07  0.00000000e+00  0.00000000e+00
  0.00000000e+00 -1.48552373e-07 -2.36702131e-07  4.17734390e-06
  0.00000000e+00  0.00000000e+00  0.00000000e+00  4.02788318e-08
  0.00000000e+00  0.00000000e+00  0.00000000e+00  0.00000000e+00
  0.00000000e+00  0.00000000e+00  0.00000000e+00  0.00000000e+00
  0.00000000e+00  0.00000000e+00  0.00000000e+00  0.00000000e+00
  0.00000000e+00  0.00000000e+00  0.00000000e+00  0.00000000e+00
  0.00000000e+00  0.00000000e+00 -1.48552373e-07  4.02788318e-08
  0.00000000e+00  0.00000000e+00  0.00000000e+00  2.55317277e-06]","[[ 4.48501364e-05  2.33957228e-03]
 [-9.82817562e-05  7.72457777e-04]]",[],0.0,0.0
1787152702.5437896,2.227123411133677,0.1762669169387247,1.9646631191141566,"[ 3.69787543e-06 -2.40956737e-07  0.00000000e+00  0.00000000e+00
  0.00000000e+00 -1.21301741e-07 -2.40956737e-07  3.93201951e-06
  0.00000000e+00  0.00000000e+00  0.00000000e+00  6.23461734e-08
  0.00000000e+00  0.00000000e+00  0.00000000e+00  0.00000000e+00
  0.00000000e+00  0.00000000e+00  0.00000000e+00  0.00000000e+00
  0.00000000e+00  0.00000000e+00  0.00000000e+00  0.00000000e+00
  0.00000000e+00  0.00000000e+00  0.00000000e+00  0.00000000e+00
  0.00000000e+00  0.00000000e+00 -1.21301741e-07  6.23461734e-08
  0.00000000e+00  0.00000000e+00  0.00000000e+00  2.58533321e-06]","[[ 4.20034407e-05  2.13484120e-03]
 [-9.27052447e-05  6.75534901e-04]]",[],0.0,0.0
1787152702.5933616,2.227123411133677,0.1762669169387247,1.9646631191141566,"[ 3.69787543e-06 -2.40956737e-07  0.00000000e+00  0.00000000e+00
  0.00000000e+00 -1.21301741e-07 -2.40956737e-07  3.93201951e-06
  0.00000000e+00  0.00000000e+00  0.00000000e+00  6.23461734e-08
  0.00000000e+00  0.00000000e+00  0.00000000e+00  0.00000000e+00
  0.00000000e+00  0.00000000e+00  0.00000000e+00  0.00000000e+00
  0.00000000e+00  0.00000000e+00  0.00000000e+00  0.00000000e+00
  0.00000000e+00  0.00000000e+00  0.00000000e+00  0.00000000e+00
  0.00000000e+00  0.00000000e+00 -1.21301741e-07  6.23461734e-08
  0.00000000e+00  0.00000000e+00  0.00000000e+00  2.58533321e-06]","[[ 4.20034407e-05  2.13484120e-03]
 [-9.27052447e-05  6.75534901e-04]]",[],0.0,0.0
1787152702.647334,2.227123411133677,0.1762669169387247,1.9646631191141566,"[ 3.69787543e-06 -2.40956737e-07  0.00000000e+00  0.00000000e+00
  0.00000000e+00 -1.21301741e-07 -2.40956737e-07  3.93201951e-06
  0.00000000e+00  0.00000000e+00  0.00000000e+00  6.23461734e-08
  0.00000000e+00  0.00000000e+00  0.00000000e+00  0.00000000e+00
  0.00000000e+00  0.00000000e+00  0.00000000e+00  0.00000000e+00
  0.00000000e+00  0.00000000e+00  0.00000000e+00  0.00000000e+00
  0.00000000e+00  0.00000000e+00  0.00000000e+00  0.00000000e+00
  0.00000000e+00  0.00000000e+00 -1.21301741e-07  6.23461734e-08
  0.00000000e+00  0.00000000e+00  0.00000000e+00  2.58533321e-06]","[[ 4.20034407e-05  2.13484120e-03]
 [-9.27052447e-05  6.75534901e-04]]",[],0.0,0.0
1787152702.6928515,2.227123411133677,0.1762669169387247,1.9646631191141566,"[ 3.69787543e-06 -2.40956737e-07  0.00000000e+00  0.00000000e+00
  0.00000000e+00 -1.21301741e-07 -2.40956737e-07  3.93201951e-06
  0.00000000e+00  0.00000000e+00  0.00000000e+00  6.23461734e-08
  0.00000000e+00  0.00000000e+00  0.00000000e+00  0.00000000e+00
  0.00000000e+00  0.00000000e+00  0.00000000e+00  0.00000000e+00
  0.00000000e+00  0.00000000e+00  0.00000000e+00  0.00000000e+00
  0.00000000e+00  0.00000000e+00  0.00000000e+00  0.00000000e+00
  0.00000000e+00  0.00000000e+00 -1.21301741e-07  6.23461734e-08
  0.00000000e+00  0.00000000e+00  0.00000000e+00  2.58533321e-06]","[[ 4.20034407e-05  2.13484120e-03]
 [-9.27052447e-05  6.75534901e-04]]",[],0.0,0.0
1787152702.742103,2.227123411133677,0.1762669169387247,1.9646631191141566,"[ 3.69787543e-06 -2.40956737e-07  0.00000000e+00  0.00000000e+00
  0.00000000e+00 -1.21301741e-07 -2.40956737e-07  3.93201951e-06
  0.00000000e+00  0.00000000e+00  0.00000000e+00  6.23461734e-08
  0.00000000e+00  0.00000000e+00  0.00000000e+00  0.00000000e+00
  0.00000000e+00  0.00000000e+00  0.00000000e+00  0.00000000e+00
  0.00000000e+00  0.00000000e+00  0.00000000e+00  0.00000000e+00
  0.00000000e+00  0.00000000e+00  0.00000000e+00  0.00000000e+00
  0.00000000e+00  0.00000000e+00 -1.21301741e-07  6.23461734e-08
  0.00000000e+00  0.00000000e+00  0.00000000e+00  2.58533321e-06]","[[ 4.20034407e-05  2.13484120e-03]
 [-9.27052447e-05  6.75534901e-04]]",[],0.0,0.0
1787152702.792359,2.227123411133677,0.1762669169387247,1.9646631191141566,"[ 3.69787543e-06 -2.40956737e-07  0.00000000e+00  0.00000000e+00
  0.00000000e+00 -1.21301741e-07 -2.40956737e-07  3.93201951e-06
  0.00000000e+00  0.00000000e+00  0.00000000e+00  6.23461734e-08
  0.00000000e+00  0.00000000e+00  0.00000000e+00  0.00000000e+00
  0.00000000e+00  0.00000000e+00  0.00000000e+00  0.00000000e+00
  0.00000000e+00  0.00000000e+00  0.00000000e+00  0.00000000e+00
  0.00000000e+00  0.00000000e+00  0.00000000e+00  0.00000000e+00
  0.00000000e+00  0.00000000e+00 -1.21301741e-07  6.23461734e-08
  0.00000000e+00  0.00000000e+00  0.00000000e+00  2.58533321e-06]","[[ 4.20034407e-05  2.13484120e-03]
 [-9.27052447e-05  6.75534901e-04]]",[],0.0,0.0
1787152702.8418567,2.227123411133677,0.1762669169387247,1.9646631191141566,"[ 3.69787543e-06 -2.40956737e-07  0.00000000e+00  0.00000000e+00
  0.00000000e+00 -1.21301741e-07 -2.40956737e-07  3.93201951e-06
  0.00000000e+00  0.00000000e+00  0.00000000e+00  6.23461734e-08
  0.00000000e+00  0.00000000e+00  0.00000000e+00  0.00000000e+00
  0.00000000e+00  0.00000000e+00  0.00000000e+00  0.00000000e+00
  0.00000000e+00  0.00000000e+00  0.00000000e+00  0.00000000e+00
  0.00000000e+00  0.00000000e+00  0.00000000e+00  0.00000000e+00
  0.00000000e+00  0.00000000e+00 -1.21301741e-07  6.23461734e-08
  0.00000000e+00  0.00000000e+00  0.00000000e+00  2.58533321e-06]","[[ 4.20034407e-05  2.13484120e-03]
 [-9.27052447e-05  6.75534901e-04]]",[],0.0,0.0
1787152702.892367,2.227123411133677,0.1762669169387247,1.9646631191141566,"[ 3.69787543e-06 -2.40956737e-07  0.00000000e+00  0.00000000e+00
  0.00000000e+00 -1.21301741e-07 -2.40956737e-07  3.93201951e-06
  0.00000000e+00  0.00000000e+00  0.00000000e+00  6.23461734e-08
  0.00000000e+00  0.00000000e+00  0.00000000e+00  0.00000000e+00
  0.00000000e+00  0.00000000e+00  0.00000000e+00  0.00000000e+00
  0.00000000e+00  0.00000000e+00  0.00000000e+00  0.00000000e+00
  0.00000000e+00  0.00000000e+00  0.00000000e+00  0.00000000e+00
  0.00000000e+00  0.00000000e+00 -1.21301741e-07  6.23461734e-08
  0.00000000e+00  0.00000000e+00  0.00000000e+00  2.58533321e-06]","[[ 4.20034407e-05  2.13484120e-03]
 [-9.27052447e-05  6.75534901e-04]]",[],0.0,0.0
1787152702.945536,2.227123411133677,0.1762669169387247,1.9646631191141566,"[ 3.69787543e-06 -2.40956737e-07  0.00000000e+00  0.00000000e+00
  0.00000000e+00 -1.21301741e-07 -2.40956737e-07  3.93201951e-06
  0.00000000e+00  0.00000000e+00  0.00000000e+00  6.23461734e-08
  0.00000000e+00  0.00000000e+00  0.00000000e+00  0.00000000e+00
  0.00000000e+00  0.00000000e+00  0.00000000e+00  0.00000000e+00
  0.00000000e+00  0.00000000e+00  0.00000000e+00  0.00000000e+00
  0.00000000e+00  0.00000000e+00  0.00000000e+00  0.00000000e+00
  0.00000000e+00  0.00000000e+00 -1.21301741e-07  6.23461734e-08
  0.00000000e+00  0.00000000e+00  0.00000000e+00  2.58533321e-06]","[[ 4.20034407e-05  2.13484120e-03]
 [-9.27052447e-05  6.75534901e-04]]",[],0.0,0.0
1787152702.9937682,2.227123411133677,0.1762669169387247,1.9646631191141566,"[ 3.69787543e-06 -2.40956737e-07  0.00000000e+00  0.00000000e+00
  0.00000000e+00 -1.21301741e-07 -2.40956737e-07  3.93201951e-06
  0.00000000e+00  0.00000000e+00  0.00000000e+00  6.23461734e-08
  0.00000000e+00  0.00000000e+00  0.00000000e+00  0.00000000e+00
  0.00000000e+00  0.00000000e+00  0.00000000e+00  0.00000000e+00
  0.00000000e+00  0.00000000e+00  0.00000000e+00  0.00000000e+00
  0.00000000e+00  0.00000000e+00  0.00000000e+00  0.00000000e+00
  0.00000000e+00  0.00000000e+00 -1.21301741e-07  6.23461734e-08
  0.00000000e+00  0.00000000e+00  0.00000000e+00  2.58533321e-06]","[[ 4.20034407e-05  2.13484120e-03]
 [-9.27052447e-05  6.75534901e-04]]",[],0.0,0.0
1787152703.0434976,2.227123411133677,0.1762669169387247,1.9646631191141566,"[ 3.69787543e-06 -2.40956737e-07  0.00000000e+00  0.00000000e+00
  0.00000000e+00 -1.21301741e-07 -2.40956737e-07  3.93201951e-06
  0.00000000e+00  0.00000000e+00  0.00000000e+00  6.23461734e-08
  0.00000000e+00  0.00000000e+00  0.00000000e+00  0.00000000e+00
  0.00000000e+00  0.00000000e+00  0.00000000e+00  0.00000000e+00
  0.00000000e+00  0.00000000e+00  0.00000000e+00  0.00000000e+00
  0.00000000e+00  0.00000000e+00  0.00000000e+00  0.00000000e+00
  0.00000000e+00  0.00000000e+00 -1.21301741e-07  6.23461734e-08
  0.00000000e+00  0.00000000e+00  0.00000000e+00  2.58533321e-06]","[[ 4.20034407e-05  2.13484120e-03]
 [-9.27052447e-05  6.75534901e-04]]",[],0.0,0.0
1787152703.0946608,2.227123411133677,0.1762669169387247,1.9646631191141566,"[ 3.69787543e-06 -2.40956737e-07  0.00000000e+00  0.00000000e+00
  0.00000000e+00 -1.21301741e-07 -2.40956737e-07  3.93201951e-06
  0.00000000e+00  0.00000000e+00  0.00000000e+00  6.23461734e-08
  0.00000000e+00  0.00000000e+00  0.00000000e+00  0.00000000e+00
  0.00000000e+00  0.00000000e+00  0.00000000e+00  0.00000000e+00
  0.00000000e+00  0.00000000e+00  0.00000000e+00  0.00000000e+00
  0.00000000e+00  0.00000000e+00  0.00000000e+00  0.00000000e+00
  0.00000000e+00  0.00000000e+00 -1.21301741e-07  6.23461734e-08
  0.00000000e+00  0.00000000e+00  0.00000000e+00  2.58533321e-06]","[[ 4.20034407e-05  2.13484120e-03]
 [-9.27052447e-05  6.75534901e-04]]",[],0.0,0.0
1787152703.1432545,2.227123411133677,0.1762669169387247,1.9646631191141566,"[ 3.69787543e-06 -2.40956737e-07  0.00000000e+00  0.00000000e+00
  0.00000000e+00 -1.21301741e-07 -2.40956737e-07  3.93201951e-06
  0.00000000e+00  0.00000000e+00  0.00000000e+00  6.23461734e-08
  0.00000000e+00  0.00000000e+00  0.00000000e+00  0.00000000e+00
  0.00000000e+00  0.00000000e+00  0.00000000e+00  0.00000000e+00
  0.00000000e+00  0.00000000e+00  0.00000000e+00  0.00000000e+00
  0.00000000e+00  0.00000000e+00  0.00000000e+00  0.00000000e+00
  0.00000000e+00  0.00000000e+00 -1.21301741e-07  6.23461734e-08
  0.00000000e+00  0.00000000e+00  0.00000000e+00  2.58533321e-06]","[[ 4.20034407e-05  2.13484120e-03]
 [-9.27052447e-05  6.75534901e-04]]",[],0.0,0.0
1787152703.2012413,2.2255503292120378,0.17333665287392258,1.963049627891517,"[ 3.45903231e-06 -2.62508979e-07  0.00000000e+00  0.00000000e+00
  0.00000000e+00 -8.18101344e-08 -2.62508979e-07  3.75110836e-06
  0.00000000e+00  0.00000000e+00  0.00000000e+00  6.20230331e-08
  0.00000000e+00  0.00000000e+00  0.00000000e+00  0.00000000e+00
  0.00000000e+00  0.00000000e+00  0.00000000e+00  0.00000000e+00
  0.00000000e+00  0.00000000e+00  0.00000000e+00  0.00000000e+00
  0.00000000e+00  0.00000000e+00  0.00000000e+00  0.00000000e+00
  0.00000000e+00  0.00000000e+00 -8.18101344e-08  6.20230331e-08
  0.00000000e+00  0.00000000e+00  0.00000000e+00  2.74964817e-06]","[[ 4.00937642e-05  1.93607032e-03]
 [-8.87816328e-05  6.21123945e-04]]",[],0.0,0.0
1787152703.2421534,2.2255503292120378,0.17333665287392258,1.963049627891517,"[ 3.45903231e-06 -2.62508979e-07  0.00000000e+00  0.00000000e+00
  0.00000000e+00 -8.18101344e-08 -2.62508979e-07  3.75110836e-06
  0.00000000e+00  0.00000000e+00  0.00000000e+00  6.20230331e-08
  0.00000000e+00  0.00000000e+00  0.00000000e+00  0.00000000e+00
  0.00000000e+00  0.00000000e+00  0.00000000e+00  0.00000000e+00
  0.00000000e+00  0.00000000e+00  0.00000000e+00  0.00000000e+00
  0.00000000e+00  0.00000000e+00  0.00000000e+00  0.00000000e+00
  0.00000000e+00  0.00000000e+00 -8.18101344e-08  6.20230331e-08
  0.00000000e+00  0.00000000e+00  0.00000000e+00  2.74964817e-06]","[[ 4.00937642e-05  1.93607032e-03]
 [-8.87816328e-05  6.21123945e-04]]",[],0.0,0.0
1787152703.2918155,2.2255503292120378,0.17333665287392258,1.963049627891517,"[ 3.45903231e-06 -2.62508979e-07  0.00000000e+00  0.00000000e+00
  0.00000000e+00 -8.18101344e-08 -2.62508979e-07  3.75110836e-06
  0.00000000e+00  0.00000000e+00  0.00000000e+00  6.20230331e-08
  0.00000000e+00  0.00000000e+00  0.00000000e+00  0.00000000e+00
  0.00000000e+00  0.00000000e+00  0.00000000e+00  0.00000000e+00
  0.00000000e+00  0.00000000e+00  0.00000000e+00  0.00000000e+00
  0.00000000e+00  0.00000000e+00  0.00000000e+00  0.00000000e+00
  0.00000000e+00  0.00000000e+00 -8.18101344e-08  6.20230331e-08
  0.00000000e+00  0.00000000e+00  0.00000000e+00  2.74964817e-06]","[[ 4.00937642e-05  1.93607032e-03]
 [-8.87816328e-05  6.21123945e-04]]",[],0.0,0.0
1787152703.347274,2.2255503292120378,0.17333665287392258,1.963049627891517,"[ 3.45903231e-06 -2.62508979e-07  0.00000000e+00  0.00000000e+00
  0.00000000e+00 -8.18101344e-08 -2.62508979e-07  3.75110836e-06
  0.00000000e+00  0.00000000e+00  0.00000000e+00  6.20230331e-08
  0.00000000e+00  0.00000000e+00  0.00000000e+00  0.00000000e+00
  0.00000000e+00  0.00000000e+00  0.00000000e+00  0.00000000e+00
  0.00000000e+00  0.00000000e+00  0.00000000e+00  0.00000000e+00
  0.00000000e+00  0.00000000e+00  0.00000000e+00  0.00000000e+00
  0.00000000e+00  0.00000000e+00 -8.18101344e-08  6.20230331e-08
  0.00000000e+00  0.00000000e+00  0.00000000e+00  2.74964817e-06]","[[ 4.00937642e-05  1.93607032e-03]
 [-8.87816328e-05  6.21123945e-04]]",[],0.0,0.0
1787152703.4036787,2.2255503292120378,0.17333665287392258,1.963049627891517,"[ 3.45903231e-06 -2.62508979e-07  0.00000000e+00  0.00000000e+00
  0.00000000e+00 -8.18101344e-08 -2.62508979e-07  3.75110836e-06
  0.00000000e+00  0.00000000e+00  0.00000000e+00  6.20230331e-08
  0.00000000e+00  0.00000000e+00  0.00000000e+00  0.00000000e+00
  0.00000000e+00  0.00000000e+00  0.00000000e+00  0.00000000e+00
  0.00000000e+00  0.00000000e+00  0.00000000e+00  0.00000000e+00
  0.00000000e+00  0.00000000e+00  0.00000000e+00  0.00000000e+00
  0.00000000e+00  0.00000000e+00 -8.18101344e-08  6.20230331e-08
  0.00000000e+00  0.00000000e+00  0.00000000e+00  2.74964817e-06]","[[ 4.00937642e-05  1.93607032e-03]
 [-8.87816328e-05  6.21123945e-04]]",[],0.0,0.0
1787152703.4418452,2.2255503292120378,0.17333665287392258,1.963049627891517,"[ 3.45903231e-06 -2.62508979e-07  0.00000000e+00  0.00000000e+00
  0.00000000e+00 -8.18101344e-08 -2.62508979e-07  3.75110836e-06
  0.00000000e+00  0.00000000e+00  0.00000000e+00  6.20230331e-08
  0.00000000e+00  0.00000000e+00  0.00000000e+00  0.00000000e+00
  0.00000000e+00  0.00000000e+00  0.00000000e+00  0.00000000e+00
  0.00000000e+00  0.00000000e+00  0.00000000e+00  0.00000000e+00
  0.00000000e+00  0.00000000e+00  0.00000000e+00  0.00000000e+00
  0.00000000e+00  0.00000000e+00 -8.18101344e-08  6.20230331e-08
  0.00000000e+00  0.00000000e+00  0.00000000e+00  2.74964817e-06]","[[ 4.00937642e-05  1.93607032e-03]
 [-8.87816328e-05  6.21123945e-04]]",[],0.0,0.0
1787152703.4921286,2.2255503292120378,0.17333665287392258,1.963049627891517,"[ 3.45903231e-06 -2.62508979e-07  0.00000000e+00  0.00000000e+00
  0.00000000e+00 -8.18101344e-08 -2.62508979e-07  3.75110836e-06
  0.00000000e+00  0.00000000e+00  0.00000000e+00  6.20230331e-08
  0.00000000e+00  0.00000000e+00  0.00000000e+00  0.00000000e+00
  0.00000000e+00  0.00000000e+00  0.00000000e+00  0.00000000e+00
  0.00000000e+00  0.00000000e+00  0.00000000e+00  0.00000000e+00
  0.00000000e+00  0.00000000e+00  0.00000000e+00  0.00000000e+00
  0.00000000e+00  0.00000000e+00 -8.18101344e-08  6.20230331e-08
  0.00000000e+00  0.00000000e+00  0.00000000e+00  2.74964817e-06]","[[ 4.00937642e-05  1.93607032e-03]
 [-8.87816328e-05  6.21123945e-04]]",[],0.0,0.0
1787152703.5454087,2.2255503292120378,0.17333665287392258,1.963049627891517,"[ 3.45903231e-06 -2.62508979e-07  0.00000000e+00  0.00000000e+00
  0.00000000e+00 -8.18101344e-08 -2.62508979e-07  3.75110836e-06
  0.00000000e+00  0.00000000e+00  0.00000000e+00  6.20230331e-08
  0.00000000e+00  0.00000000e+00  0.00000000e+00  0.00000000e+00
  0.00000000e+00  0.00000000e+00  0.00000000e+00  0.00000000e+00
  0.00000000e+00  0.00000000e+00  0.00000000e+00  0.00000000e+00
  0.00000000e+00  0.00000000e+00  0.00000000e+00  0.00000000e+00
  0.00000000e+00  0.00000000e+00 -8.18101344e-08  6.20230331e-08
  0.00000000e+00  0.00000000e+00  0.00000000e+00  2.74964817e-06]","[[ 4.00937642e-05  1.93607032e-03]
 [-8.87816328e-05  6.21123945e-04]]",[],0.0,0.0
1787152703.5949411,2.2255503292120378,0.17333665287392258,1.963049627891517,"[ 3.45903231e-06 -2.62508979e-07  0.00000000e+00  0.00000000e+00
  0.00000000e+00 -8.18101344e-08 -2.62508979e-07  3.75110836e-06
  0.00000000e+00  0.00000000e+00  0.00000000e+00  6.20230331e-08
  0.00000000e+00  0.00000000e+00  0.00000000e+00  0.00000000e+00
  0.00000000e+00  0.00000000e+00  0.00000000e+00  0.00000000e+00
  0.00000000e+00  0.00000000e+00  0.00000000e+00  0.00000000e+00
  0.00000000e+00  0.00000000e+00  0.00000000e+00  0.00000000e+00
  0.00000000e+00  0.00000000e+00 -8.18101344e-08  6.20230331e-08
  0.00000000e+00  0.00000000e+00  0.00000000e+00  2.74964817e-06]","[[ 4.00937642e-05  1.93607032e-03]
 [-8.87816328e-05  6.21123945e-04]]",[],0.0,0.0
1787152703.643834,2.2255503292120378,0.17333665287392258,1.963049627891517,"[ 3.45903231e-06 -2.62508979e-07  0.00000000e+00  0.00000000e+00
  0.00000000e+00 -8.18101344e-08 -2.62508979e-07  3.75110836e-06
  0.00000000e+00  0.00000000e+00  0.00000000e+00  6.20230331e-08
  0.00000000e+00  0.00000000e+00  0.00000000e+00  0.00000000e+00
  0.00000000e+00  0.00000000e+00  0.00000000e+00  0.00000000e+00
  0.00000000e+00  0.00000000e+00  0.00000000e+00  0.00000000e+00
  0.00000000e+00  0.00000000e+00  0.00000000e+00  0.00000000e+00
  0.00000000e+00  0.00000000e+00 -8.18101344e-08  6.20230331e-08
  0.00000000e+00  0.00000000e+00  0.00000000e+00  2.74964817e-06]","[[ 4.00937642e-05  1.93607032e-03]
 [-8.87816328e-05  6.21123945e-04]]",[],0.0,0.0
1787152703.6979337,2.2255503292120378,0.17333665287392258,1.963049627891517,"[ 3.45903231e-06 -2.62508979e-07  0.00000000e+00  0.00000000e+00
  0.00000000e+00 -8.18101344e-08 -2.62508979e-07  3.75110836e-06
  0.00000000e+00  0.00000000e+00  0.00000000e+00  6.20230331e-08
  0.00000000e+00  0.00000000e+00  0.00000000e+00  0.00000000e+00
  0.00000000e+00  0.00000000e+00  0.00000000e+00  0.00000000e+00
  0.00000000e+00  0.00000000e+00  0.00000000e+00  0.00000000e+00
  0.00000000e+00  0.00000000e+00  0.00000000e+00  0.00000000e+00
  0.00000000e+00  0.00000000e+00 -8.18101344e-08  6.20230331e-08
  0.00000000e+00  0.00000000e+00  0.00000000e+00  2.74964817e-06]","[[ 4.00937642e-05  1.93607032e-03]
 [-8.87816328e-05  6.21123945e-04]]",[],0.0,0.0
1787152703.7452824,2.2255503292120378,0.17333665287392258,1.963049627891517,"[ 3.45903231e-06 -2.62508979e-07  0.00000000e+00  0.00000000e+00
  0.00000000e+00 -8.18101344e-08 -2.62508979e-07  3.75110836e-06
  0.00000000e+00  0.00000000e+00  0.00000000e+00  6.20230331e-08
  0.00000000e+00  0.00000000e+00  0.00000000e+00  0.00000000e+00
  0.00000000e+00  0.00000000e+00  0.00000000e+00  0.00000000e+00
  0.00000000e+00  0.00000000e+00  0.00000000e+00  0.00000000e+00
  0.00000000e+00  0.00000000e+00  0.00000000e+00  0.00000000e+00
  0.00000000e+00  0.00000000e+00 -8.18101344e-08  6.20230331e-08
  0.00000000e+00  0.00000000e+00  0.00000000e+00  2.74964817e-06]","[[ 4.00937642e-05  1.93607032e-03]
 [-8.87816328e-05  6.21123945e-04]]",[],0.0,0.0
1787152703.8090894,2.224521417704435,0.17113269171186896,1.9640825577606134,"[ 3.27070056e-06 -2.71018196e-07  0.00000000e+00  0.00000000e+00
  0.00000000e+00 -7.49849494e-08 -2.71018196e-07  3.58944652e-06
  0.00000000e+00  0.00000000e+00  0.00000000e+00  8.61273230e-08
  0.00000000e+00  0.00000000e+00  0.00000000e+00  0.00000000e+00
  0.00000000e+00  0.00000000e+00  0.00000000e+00  0.00000000e+00
  0.00000000e+00  0.00000000e+00  0.00000000e+00  0.00000000e+00
  0.00000000e+00  0.00000000e+00  0.00000000e+00  0.00000000e+00
  0.00000000e+00  0.00000000e+00 -7.49849494e-08  8.61273230e-08
  0.00000000e+00  0.00000000e+00  0.00000000e+00  2.75884909e-06]","[[ 3.83680902e-05  1.82105961e-03]
 [-8.51773405e-05  5.37066560e-04]]",[],0.0,0.0
1787152703.8479111,2.224521417704435,0.17113269171186896,1.9640825577606134,"[ 3.27070056e-06 -2.71018196e-07  0.00000000e+00  0.00000000e+00
  0.00000000e+00 -7.49849494e-08 -2.71018196e-07  3.58944652e-06
  0.00000000e+00  0.00000000e+00  0.00000000e+00  8.61273230e-08
  0.00000000e+00  0.00000000e+00  0.00000000e+00  0.00000000e+00
  0.00000000e+00  0.00000000e+00  0.00000000e+00  0.00000000e+00
  0.00000000e+00  0.00000000e+00  0.00000000e+00  0.00000000e+00
  0.00000000e+00  0.00000000e+00  0.00000000e+00  0.00000000e+00
  0.00000000e+00  0.00000000e+00 -7.49849494e-08  8.61273230e-08
  0.00000000e+00  0.00000000e+00  0.00000000e+00  2.75884909e-06]","[[ 3.83680902e-05  1.82105961e-03]
 [-8.51773405e-05  5.37066560e-04]]",[],0.0,0.0
1787152703.8918612,2.224521417704435,0.17113269171186896,1.9640825577606134,"[ 3.27070056e-06 -2.71018196e-07  0.00000000e+00  0.00000000e+00
  0.00000000e+00 -7.49849494e-08 -2.71018196e-07  3.58944652e-06
  0.00000000e+00  0.00000000e+00  0.00000000e+00  8.61273230e-08
  0.00000000e+00  0.00000000e+00  0.00000000e+00  0.00000000e+00
  0.00000000e+00  0.00000000e+00  0.00000000e+00  0.00000000e+00
  0.00000000e+00  0.00000000e+00  0.00000000e+00  0.00000000e+00
  0.00000000e+00  0.00000000e+00  0.00000000e+00  0.00000000e+00
  0.00000000e+00  0.00000000e+00 -7.49849494e-08  8.61273230e-08
  0.00000000e+00  0.00000000e+00  0.00000000e+00  2.75884909e-06]","[[ 3.83680902e-05  1.82105961e-03]
 [-8.51773405e-05  5.37066560e-04]]",[],0.0,0.0
1787152703.9424355,2.224521417704435,0.17113269171186896,1.9640825577606134,"[ 3.27070056e-06 -2.71018196e-07  0.00000000e+00  0.00000000e+00
  0.00000000e+00 -7.49849494e-08 -2.71018196e-07  3.58944652e-06
  0.00000000e+00  0.00000000e+00  0.00000000e+00  8.61273230e-08
  0.00000000e+00  0.00000000e+00  0.00000000e+00  0.00000000e+00
  0.00000000e+00  0.00000000e+00  0.00000000e+00  0.00000000e+00
  0.00000000e+00  0.00000000e+00  0.00000000e+00  0.00000000e+00
  0.00000000e+00  0.00000000e+00  0.00000000e+00  0.00000000e+00
  0.00000000e+00  0.00000000e+00 -7.49849494e-08  8.61273230e-08
  0.00000000e+00  0.00000000e+00  0.00000000e+00  2.75884909e-06]","[[ 3.83680902e-05  1.82105961e-03]
 [-8.51773405e-05  5.37066560e-04]]",[],0.0,0.0
1787152703.9923813,2.224521417704435,0.17113269171186896,1.9640825577606134,"[ 3.27070056e-06 -2.71018196e-07  0.00000000e+00  0.00000000e+00
  0.00000000e+00 -7.49849494e-08 -2.71018196e-07  3.58944652e-06
  0.00000000e+00  0.00000000e+00  0.00000000e+00  8.61273230e-08
  0.00000000e+00  0.00000000e+00  0.00000000e+00  0.00000000e+00
  0.00000000e+00  0.00000000e+00  0.00000000e+00  0.00000000e+00
  0.00000000e+00  0.00000000e+00  0.00000000e+00  0.00000000e+00
  0.00000000e+00  0.00000000e+00  0.00000000e+00  0.00000000e+00
  0.00000000e+00  0.00000000e+00 -7.49849494e-08  8.61273230e-08
  0.00000000e+00  0.00000000e+00  0.00000000e+00  2.75884909e-06]","[[ 3.83680902e-05  1.82105961e-03]
 [-8.51773405e-05  5.37066560e-04]]",[],0.0,0.0
1787152704.0418518,2.224521417704435,0.17113269171186896,1.9640825577606134,"[ 3.27070056e-06 -2.71018196e-07  0.00000000e+00  0.00000000e+00
  0.00000000e+00 -7.49849494e-08 -2.71018196e-07  3.58944652e-06
  0.00000000e+00  0.00000000e+00  0.00000000e+00  8.61273230e-08
  0.00000000e+00  0.00000000e+00  0.00000000e+00  0.00000000e+00
  0.00000000e+00  0.00000000e+00  0.00000000e+00  0.00000000e+00
  0.00000000e+00  0.00000000e+00  0.00000000e+00  0.00000000e+00
  0.00000000e+00  0.00000000e+00  0.00000000e+00  0.00000000e+00
  0.00000000e+00  0.00000000e+00 -7.49849494e-08  8.61273230e-08
  0.00000000e+00  0.00000000e+00  0.00000000e+00  2.75884909e-06]","[[ 3.83680902e-05  1.82105961e-03]
 [-8.51773405e-05  5.37066560e-04]]",[],0.0,0.0
1787152704.0960767,2.224521417704435,0.17113269171186896,1.9640825577606134,"[ 3.27070056e-06 -2.71018196e-07  0.00000000e+00  0.00000000e+00
  0.00000000e+00 -7.49849494e-08 -2.71018196e-07  3.58944652e-06
  0.00000000e+00  0.00000000e+00  0.00000000e+00  8.61273230e-08
  0.00000000e+00  0.00000000e+00  0.00000000e+00  0.00000000e+00
  0.00000000e+00  0.00000000e+00  0.00000000e+00  0.00000000e+00
  0.00000000e+00  0.00000000e+00  0.00000000e+00  0.00000000e+00
  0.00000000e+00  0.00000000e+00  0.00000000e+00  0.00000000e+00
  0.00000000e+00  0.00000000e+00 -7.49849494e-08  8.61273230e-08
  0.00000000e+00  0.00000000e+00  0.00000000e+00  2.75884909e-06]","[[ 3.83680902e-05  1.82105961e-03]
 [-8.51773405e-05  5.37066560e-04]]",[],0.0,0.0
1787152704.1424727,2.224521417704435,0.17113269171186896,1.9640825577606134,"[ 3.27070056e-06 -2.71018196e-07  0.00000000e+00  0.00000000e+00
  0.00000000e+00 -7.49849494e-08 -2.71018196e-07  3.58944652e-06
  0.00000000e+00  0.00000000e+00  0.00000000e+00  8.61273230e-08
  0.00000000e+00  0.00000000e+00  0.00000000e+00  0.00000000e+00
  0.00000000e+00  0.00000000e+00  0.00000000e+00  0.00000000e+00
  0.00000000e+00  0.00000000e+00  0.00000000e+00  0.00000000e+00
  0.00000000e+00  0.00000000e+00  0.00000000e+00  0.00000000e+00
  0.00000000e+00  0.00000000e+00 -7.49849494e-08  8.61273230e-08
  0.00000000e+00  0.00000000e+00  0.00000000e+00  2.75884909e-06]","[[ 3.83680902e-05  1.82105961e-03]
 [-8.51773405e-05  5.37066560e-04]]",[],0.0,0.0
1787152704.1947901,2.224521417704435,0.17113269171186896,1.9640825577606134,"[ 3.27070056e-06 -2.71018196e-07  0.00000000e+00  0.00000000e+00
  0.00000000e+00 -7.49849494e-08 -2.71018196e-07  3.58944652e-06
  0.00000000e+00  0.00000000e+00  0.00000000e+00  8.61273230e-08
  0.00000000e+00  0.00000000e+00  0.00000000e+00  0.00000000e+00
  0.00000000e+00  0.00000000e+00  0.00000000e+00  0.00000000e+00
  0.00000000e+00  0.00000000e+00  0.00000000e+00  0.00000000e+00
  0.00000000e+00  0.00000000e+00  0.00000000e+00  0.00000000e+00
  0.00000000e+00  0.00000000e+00 -7.49849494e-08  8.61273230e-08
  0.00000000e+00  0.00000000e+00  0.00000000e+00  2.75884909e-06]","[[ 3.83680902e-05  1.82105961e-03]
 [-8.51773405e-05  5.37066560e-04]]",[],0.0,0.0
1787152704.2419004,2.224521417704435,0.17113269171186896,1.9640825577606134,"[ 3.27070056e-06 -2.71018196e-07  0.00000000e+00  0.00000000e+00
  0.00000000e+00 -7.49849494e-08 -2.71018196e-07  3.58944652e-06
  0.00000000e+00  0.00000000e+00  0.00000000e+00  8.61273230e-08
  0.00000000e+00  0.00000000e+00  0.00000000e+00  0.00000000e+00
  0.00000000e+00  0.00000000e+00  0.00000000e+00  0.00000000e+00
  0.00000000e+00  0.00000000e+00  0.00000000e+00  0.00000000e+00
  0.00000000e+00  0.00000000e+00  0.00000000e+00  0.00000000e+00
  0.00000000e+00  0.00000000e+00 -7.49849494e-08  8.61273230e-08
  0.00000000e+00  0.00000000e+00  0.00000000e+00  2.75884909e-06]","[[ 3.83680902e-05  1.82105961e-03]
 [-8.51773405e-05  5.37066560e-04]]",[],0.0,0.0
1787152704.3075721,2.224521417704435,0.17113269171186896,1.9640825577606134,"[ 3.27070056e-06 -2.71018196e-07  0.00000000e+00  0.00000000e+00
  0.00000000e+00 -7.49849494e-08 -2.71018196e-07  3.58944652e-06
  0.00000000e+00  0.00000000e+00  0.00000000e+00  8.61273230e-08
  0.00000000e+00  0.00000000e+00  0.00000000e+00  0.00000000e+00
  0.00000000e+00  0.00000000e+00  0.00000000e+00  0.00000000e+00
  0.00000000e+00  0.00000000e+00  0.00000000e+00  0.00000000e+00
  0.00000000e+00  0.00000000e+00  0.00000000e+00  0.00000000e+00
  0.00000000e+00  0.00000000e+00 -7.49849494e-08  8.61273230e-08
  0.00000000e+00  0.00000000e+00  0.00000000e+00  2.75884909e-06]","[[ 3.83680902e-05  1.82105961e-03]
 [-8.51773405e-05  5.37066560e-04]]",[],0.0,0.0
1787152704.3440104,2.224521417704435,0.17113269171186896,1.9640825577606134,"[ 3.27070056e-06 -2.71018196e-07  0.00000000e+00  0.00000000e+00
  0.00000000e+00 -7.49849494e-08 -2.71018196e-07  3.58944652e-06
  0.00000000e+00  0.00000000e+00  0.00000000e+00  8.61273230e-08
  0.00000000e+00  0.00000000e+00  0.00000000e+00  0.00000000e+00
  0.00000000e+00  0.00000000e+00  0.00000000e+00  0.00000000e+00
  0.00000000e+00  0.00000000e+00  0.00000000e+00  0.00000000e+00
  0.00000000e+00  0.00000000e+00  0.00000000e+00  0.00000000e+00
  0.00000000e+00  0.00000000e+00 -7.49849494e-08  8.61273230e-08
  0.00000000e+00  0.00000000e+00  0.00000000e+00  2.75884909e-06]","[[ 3.83680902e-05  1.82105961e-03]
 [-8.51773405e-05  5.37066560e-04]]",[],0.0,0.0
1787152704.3918881,2.224521417704435,0.17113269171186896,1.9640825577606134,"[ 3.27070056e-06 -2.71018196e-07  0.00000000e+00  0.00000000e+00
  0.00000000e+00 -7.49849494e-08 -2.71018196e-07  3.58944652e-06
  0.00000000e+00  0.00000000e+00  0.00000000e+00  8.61273230e-08
  0.00000000e+00  0.00000000e+00  0.00000000e+00  0.00000000e+00
  0.00000000e+00  0.00000000e+00  0.00000000e+00  0.00000000e+00
  0.00000000e+00  0.00000000e+00  0.00000000e+00  0.00000000e+00
  0.00000000e+00  0.00000000e+00  0.00000000e+00  0.00000000e+00
  0.00000000e+00  0.00000000e+00 -7.49849494e-08  8.61273230e-08
  0.00000000e+00  0.00000000e+00  0.00000000e+00  2.75884909e-06]","[[ 3.83680902e-05  1.82105961e-03]
 [-8.51773405e-05  5.37066560e-04]]",[],0.0,0.0
1787152704.445849,2.223278872219657,0.16928994902845512,1.960951150780655,"[ 3.09115361e-06 -2.81421921e-07  0.00000000e+00  0.00000000e+00
  0.00000000e+00 -1.09275357e-07 -2.81421921e-07  3.45971353e-06
  0.00000000e+00  0.00000000e+00  0.00000000e+00  6.20559762e-08
  0.00000000e+00  0.00000000e+00  0.00000000e+00  0.00000000e+00
  0.00000000e+00  0.00000000e+00  0.00000000e+00  0.00000000e+00
  0.00000000e+00  0.00000000e+00  0.00000000e+00  0.00000000e+00
  0.00000000e+00  0.00000000e+00  0.00000000e+00  0.00000000e+00
  0.00000000e+00  0.00000000e+00 -1.09275357e-07  6.20559762e-08
  0.00000000e+00  0.00000000e+00  0.00000000e+00  2.82968910e-06]","[[ 3.67992631e-05  1.77843789e-03]
 [-8.23148784e-05  5.39852490e-04]]",[],0.0,0.0
1787152704.4935677,2.223278872219657,0.16928994902845512,1.960951150780655,"[ 3.09115361e-06 -2.81421921e-07  0.00000000e+00  0.00000000e+00
  0.00000000e+00 -1.09275357e-07 -2.81421921e-07  3.45971353e-06
  0.00000000e+00  0.00000000e+00  0.00000000e+00  6.20559762e-08
  0.00000000e+00  0.00000000e+00  0.00000000e+00  0.00000000e+00
  0.00000000e+00  0.00000000e+00  0.00000000e+00  0.00000000e+00
  0.00000000e+00  0.00000000e+00  0.00000000e+00  0.00000000e+00
  0.00000000e+00  0.00000000e+00  0.00000000e+00  0.00000000e+00
  0.00000000e+00  0.00000000e+00 -1.09275357e-07  6.20559762e-08
  0.00000000e+00  0.00000000e+00  0.00000000e+00  2.82968910e-06]","[[ 3.67992631e-05  1.77843789e-03]
 [-8.23148784e-05  5.39852490e-04]]",[],0.0,0.0
1787152704.5461495,2.223278872219657,0.16928994902845512,1.960951150780655,"[ 3.09115361e-06 -2.81421921e-07  0.00000000e+00  0.00000000e+00
  0.00000000e+00 -1.09275357e-07 -2.81421921e-07  3.45971353e-06
  0.00000000e+00  0.00000000e+00  0.00000000e+00  6.20559762e-08
  0.00000000e+00  0.00000000e+00  0.00000000e+00  0.00000000e+00
  0.00000000e+00  0.00000000e+00  0.00000000e+00  0.00000000e+00
  0.00000000e+00  0.00000000e+00  0.00000000e+00  0.00000000e+00
  0.00000000e+00  0.00000000e+00  0.00000000e+00  0.00000000e+00
  0.00000000e+00  0.00000000e+00 -1.09275357e-07  6.20559762e-08
  0.00000000e+00  0.00000000e+00  0.00000000e+00  2.82968910e-06]","[[ 3.67992631e-05  1.77843789e-03]
 [-8.23148784e-05  5.39852490e-04]]",[],0.0,0.0
1787152704.5927749,2.223278872219657,0.16928994902845512,1.960951150780655,"[ 3.09115361e-06 -2.81421921e-07  0.00000000e+00  0.00000000e+00
  0.00000000e+00 -1.09275357e-07 -2.81421921e-07  3.45971353e-06
  0.00000000e+00  0.00000000e+00  0.00000000e+00  6.20559762e-08
  0.00000000e+00  0.00000000e+00  0.00000000e+00  0.00000000e+00
  0.00000000e+00  0.00000000e+00  0.00000000e+00  0.00000000e+00
  0.00000000e+00  0.00000000e+00  0.00000000e+00  0.00000000e+00
  0.00000000e+00  0.00000000e+00  0.00000000e+00  0.00000000e+00
  0.00000000e+00  0.00000000e+00 -1.09275357e-07  6.20559762e-08
  0.00000000e+00  0.00000000e+00  0.00000000e+00  2.82968910e-06]","[[ 3.67992631e-05  1.77843789e-03]
 [-8.23148784e-05  5.39852490e-04]]",[],0.0,0.0
1787152704.644101,2.223278872219657,0.16928994902845512,1.960951150780655,"[ 3.09115361e-06 -2.81421921e-07  0.00000000e+00  0.00000000e+00
  0.00000000e+00 -1.09275357e-07 -2.81421921e-07  3.45971353e-06
  0.00000000e+00  0.00000000e+00  0.00000000e+00  6.20559762e-08
  0.00000000e+00  0.00000000e+00  0.00000000e+00  0.00000000e+00
  0.00000000e+00  0.00000000e+00  0.00000000e+00  0.00000000e+00
  0.00000000e+00  0.00000000e+00  0.00000000e+00  0.00000000e+00
  0.00000000e+00  0.00000000e+00  0.00000000e+00  0.00000000e+00
  0.00000000e+00  0.00000000e+00 -1.09275357e-07  6.20559762e-08
  0.00000000e+00  0.00000000e+00  0.00000000e+00  2.82968910e-06]","[[ 3.67992631e-05  1.77843789e-03]
 [-8.23148784e-05  5.39852490e-04]]",[],0.0,0.0
1787152704.6940641,2.223278872219657,0.16928994902845512,1.960951150780655,"[ 3.09115361e-06 -2.81421921e-07  0.00000000e+00  0.00000000e+00
  0.00000000e+00 -1.09275357e-07 -2.81421921e-07  3.45971353e-06
  0.00000000e+00  0.00000000e+00  0.00000000e+00  6.20559762e-08
  0.00000000e+00  0.00000000e+00  0.00000000e+00  0.00000000e+00
  0.00000000e+00  0.00000000e+00  0.00000000e+00  0.00000000e+00
  0.00000000e+00  0.00000000e+00  0.00000000e+00  0.00000000e+00
  0.00000000e+00  0.00000000e+00  0.00000000e+00  0.00000000e+00
  0.00000000e+00  0.00000000e+00 -1.09275357e-07  6.20559762e-08
  0.00000000e+00  0.00000000e+00  0.00000000e+00  2.82968910e-06]","[[ 3.67992631e-05  1.77843789e-03]
 [-8.23148784e-05  5.39852490e-04]]",[],0.0,0.0
1787152704.7468092,2.223278872219657,0.16928994902845512,1.960951150780655,"[ 3.09115361e-06 -2.81421921e-07  0.00000000e+00  0.00000000e+00
  0.00000000e+00 -1.09275357e-07 -2.81421921e-07  3.45971353e-06
  0.00000000e+00  0.00000000e+00  0.00000000e+00  6.20559762e-08
  0.00000000e+00  0.00000000e+00  0.00000000e+00  0.00000000e+00
  0.00000000e+00  0.00000000e+00  0.00000000e+00  0.00000000e+00
  0.00000000e+00  0.00000000e+00  0.00000000e+00  0.00000000e+00
  0.00000000e+00  0.00000000e+00  0.00000000e+00  0.00000000e+00
  0.00000000e+00  0.00000000e+00 -1.09275357e-07  6.20559762e-08
  0.00000000e+00  0.00000000e+00  0.00000000e+00  2.82968910e-06]","[[ 3.67992631e-05  1.77843789e-03]
 [-8.23148784e-05  5.39852490e-04]]",[],0.0,0.0
1787152704.79222,2.223278872219657,0.16928994902845512,1.960951150780655,"[ 3.09115361e-06 -2.81421921e-07  0.00000000e+00  0.00000000e+00
  0.00000000e+00 -1.09275357e-07 -2.81421921e-07  3.45971353e-06
  0.00000000e+00  0.00000000e+00  0.00000000e+00  6.20559762e-08
  0.00000000e+00  0.00000000e+00  0.00000000e+00  0.00000000e+00
  0.00000000e+00  0.00000000e+00  0.00000000e+00  0.00000000e+00
  0.00000000e+00  0.00000000e+00  0.00000000e+00  0.00000000e+00
  0.00000000e+00  0.00000000e+00  0.00000000e+00  0.00000000e+00
  0.00000000e+00  0.00000000e+00 -1.09275357e-07  6.20559762e-08
  0.00000000e+00  0.00000000e+00  0.00000000e+00  2.82968910e-06]","[[ 3.67992631e-05  1.77843789e-03]
 [-8.23148784e-05  5.39852490e-04]]",[],0.0,0.0
1787152704.8438745,2.223278872219657,0.16928994902845512,1.960951150780655,"[ 3.09115361e-06 -2.81421921e-07  0.00000000e+00  0.00000000e+00
  0.00000000e+00 -1.09275357e-07 -2.81421921e-07  3.45971353e-06
  0.00000000e+00  0.00000000e+00  0.00000000e+00  6.20559762e-08
  0.00000000e+00  0.00000000e+00  0.00000000e+00  0.00000000e+00
  0.00000000e+00  0.00000000e+00  0.00000000e+00  0.00000000e+00
  0.00000000e+00  0.00000000e+00  0.00000000e+00  0.00000000e+00
  0.00000000e+00  0.00000000e+00  0.00000000e+00  0.00000000e+00
  0.00000000e+00  0.00000000e+00 -1.09275357e-07  6.20559762e-08
  0.00000000e+00  0.00000000e+00  0.00000000e+00  2.82968910e-06]","[[ 3.67992631e-05  1.77843789e-03]
 [-8.23148784e-05  5.39852490e-04]]",[],0.0,0.0
1787152705.0373027,2.223278872219657,0.16928994902845512,1.960951150780655,"[ 3.09115361e-06 -2.81421921e-07  0.00000000e+00  0.00000000e+00
  0.00000000e+00 -1.09275357e-07 -2.81421921e-07  3.45971353e-06
  0.00000000e+00  0.00000000e+00  0.00000000e+00  6.20559762e-08
  0.00000000e+00  0.00000000e+00  0.00000000e+00  0.00000000e+00
  0.00000000e+00  0.00000000e+00  0.00000000e+00  0.00000000e+00
  0.00000000e+00  0.00000000e+00  0.00000000e+00  0.00000000e+00
  0.00000000e+00  0.00000000e+00  0.00000000e+00  0.00000000e+00
  0.00000000e+00  0.00000000e+00 -1.09275357e-07  6.20559762e-08
  0.00000000e+00  0.00000000e+00  0.00000000e+00  2.82968910e-06]","[[ 3.67992631e-05  1.77843789e-03]
 [-8.23148784e-05  5.39852490e-04]]",[],0.0,0.0
1787152705.0442057,2.223278872219657,0.16928994902845512,1.960951150780655,"[ 3.09115361e-06 -2.81421921e-07  0.00000000e+00  0.00000000e+00
  0.00000000e+00 -1.09275357e-07 -2.81421921e-07  3.45971353e-06
  0.00000000e+00  0.00000000e+00  0.00000000e+00  6.20559762e-08
  0.00000000e+00  0.00000000e+00  0.00000000e+00  0.00000000e+00
  0.00000000e+00  0.00000000e+00  0.00000000e+00  0.00000000e+00
  0.00000000e+00  0.00000000e+00  0.00000000e+00  0.00000000e+00
  0.00000000e+00  0.00000000e+00  0.00000000e+00  0.00000000e+00
  0.00000000e+00  0.00000000e+00 -1.09275357e-07  6.20559762e-08
  0.00000000e+00  0.00000000e+00  0.00000000e+00  2.82968910e-06]","[[ 3.67992631e-05  1.77843789e-03]
 [-8.23148784e-05  5.39852490e-04]]",[],0.0,0.0
1787152705.5721257,2.222209204795657,0.1690853604392924,1.9585636280633407,"[ 2.92826590e-06 -2.96275760e-07  0.00000000e+00  0.00000000e+00
  0.00000000e+00 -1.22195342e-07 -2.96275760e-07  3.34706176e-06
  0.00000000e+00  0.00000000e+00  0.00000000e+00  5.91745446e-08
  0.00000000e+00  0.00000000e+00  0.00000000e+00  0.00000000e+00
  0.00000000e+00  0.00000000e+00  0.00000000e+00  0.00000000e+00
  0.00000000e+00  0.00000000e+00  0.00000000e+00  0.00000000e+00
  0.00000000e+00  0.00000000e+00  0.00000000e+00  0.00000000e+00
  0.00000000e+00  0.00000000e+00 -1.22195342e-07  5.91745446e-08
  0.00000000e+00  0.00000000e+00  0.00000000e+00  2.79818125e-06]","[[ 3.55001947e-05  1.70871065e-03]
 [-7.98874049e-05  5.09291948e-04]]",[],0.0,0.0
1787152706.025184,2.2212228787152863,0.16768681176180159,1.956162069270201,"[ 2.79123476e-06 -2.98555335e-07  0.00000000e+00  0.00000000e+00
  0.00000000e+00 -8.65883029e-08 -2.98555335e-07  3.22332555e-06
  0.00000000e+00  0.00000000e+00  0.00000000e+00  5.86576524e-08
  0.00000000e+00  0.00000000e+00  0.00000000e+00  0.00000000e+00
  0.00000000e+00  0.00000000e+00  0.00000000e+00  0.00000000e+00
  0.00000000e+00  0.00000000e+00  0.00000000e+00  0.00000000e+00
  0.00000000e+00  0.00000000e+00  0.00000000e+00  0.00000000e+00
  0.00000000e+00  0.00000000e+00 -8.65883029e-08  5.86576524e-08
  0.00000000e+00  0.00000000e+00  0.00000000e+00  2.71350731e-06]","[[ 3.41872073e-05  1.57603470e-03]
 [-7.70729929e-05  4.79955570e-04]]",[],0.0,0.0
1787152706.587524,2.220511721915312,0.16719381335957423,1.9578781455323409,"[ 2.65908178e-06 -2.91798855e-07  0.00000000e+00  0.00000000e+00
  0.00000000e+00 -8.70555236e-08 -2.91798855e-07  3.08599547e-06
  0.00000000e+00  0.00000000e+00  0.00000000e+00  7.47030775e-08
  0.00000000e+00  0.00000000e+00  0.00000000e+00  0.00000000e+00
  0.00000000e+00  0.00000000e+00  0.00000000e+00  0.00000000e+00
  0.00000000e+00  0.00000000e+00  0.00000000e+00  0.00000000e+00
  0.00000000e+00  0.00000000e+00  0.00000000e+00  0.00000000e+00
  0.00000000e+00  0.00000000e+00 -8.70555236e-08  7.47030775e-08
  0.00000000e+00  0.00000000e+00  0.00000000e+00  2.52730348e-06]","[[ 2.93436414e-05  1.57999089e-03]
 [-7.50722130e-05  3.35764463e-04]]",[],0.0,0.0
1787152706.5984263,2.220511721915312,0.16719381335957423,1.9578781455323409,"[ 2.65908178e-06 -2.91798855e-07  0.00000000e+00  0.00000000e+00
  0.00000000e+00 -8.70555236e-08 -2.91798855e-07  3.08599547e-06
  0.00000000e+00  0.00000000e+00  0.00000000e+00  7.47030775e-08
  0.00000000e+00  0.00000000e+00  0.00000000e+00  0.00000000e+00
  0.00000000e+00  0.00000000e+00  0.00000000e+00  0.00000000e+00
  0.00000000e+00  0.00000000e+00  0.00000000e+00  0.00000000e+00
  0.00000000e+00  0.00000000e+00  0.00000000e+00  0.00000000e+00
  0.00000000e+00  0.00000000e+00 -8.70555236e-08  7.47030775e-08
  0.00000000e+00  0.00000000e+00  0.00000000e+00  2.52730348e-06]","[[ 2.93436414e-05  1.57999089e-03]
 [-7.50722130e-05  3.35764463e-04]]",[],0.0,0.0
1787152707.048908,2.220118550522333,0.16604582660447512,1.9572000278349062,"[ 2.52957245e-06 -3.00443767e-07  0.00000000e+00  0.00000000e+00
  0.00000000e+00 -7.40528833e-08 -3.00443767e-07  2.98313265e-06
  0.00000000e+00  0.00000000e+00  0.00000000e+00  4.81357146e-08
  0.00000000e+00  0.00000000e+00  0.00000000e+00  0.00000000e+00
  0.00000000e+00  0.00000000e+00  0.00000000e+00  0.00000000e+00
  0.00000000e+00  0.00000000e+00  0.00000000e+00  0.00000000e+00
  0.00000000e+00  0.00000000e+00  0.00000000e+00  0.00000000e+00
  0.00000000e+00  0.00000000e+00 -7.40528833e-08  4.81357146e-08
  0.00000000e+00  0.00000000e+00  0.00000000e+00  2.56800429e-06]","[[ 3.16246933e-05  1.41425678e-03]
 [-7.15840670e-05  4.39825307e-04]]",[],0.0,0.0
1787152707.6445076,2.2192104948332583,0.16564292970067324,1.955716075737267,"[ 2.41401063e-06 -2.96727427e-07  0.00000000e+00  0.00000000e+00
  0.00000000e+00 -8.72916140e-08 -2.96727427e-07  2.87340950e-06
  0.00000000e+00  0.00000000e+00  0.00000000e+00  6.07374996e-08
  0.00000000e+00  0.00000000e+00  0.00000000e+00  0.00000000e+00
  0.00000000e+00  0.00000000e+00  0.00000000e+00  0.00000000e+00
  0.00000000e+00  0.00000000e+00  0.00000000e+00  0.00000000e+00
  0.00000000e+00  0.00000000e+00  0.00000000e+00  0.00000000e+00
  0.00000000e+00  0.00000000e+00 -8.72916140e-08  6.07374996e-08
  0.00000000e+00  0.00000000e+00  0.00000000e+00  2.46572317e-06]","[[ 3.03952067e-05  1.37466545e-03]
 [-6.90288440e-05  3.95312363e-04]]",[],0.0,0.0
1787152708.1074135,2.2188949931400654,0.16502817385435503,1.9542000313992522,"[ 2.30711841e-06 -3.09366151e-07  0.00000000e+00  0.00000000e+00
  0.00000000e+00 -7.15600442e-08 -3.09366151e-07  2.80213546e-06
  0.00000000e+00  0.00000000e+00  0.00000000e+00  5.13625099e-08
  0.00000000e+00  0.00000000e+00  0.00000000e+00  0.00000000e+00
  0.00000000e+00  0.00000000e+00  0.00000000e+00  0.00000000e+00
  0.00000000e+00  0.00000000e+00  0.00000000e+00  0.00000000e+00
  0.00000000e+00  0.00000000e+00  0.00000000e+00  0.00000000e+00
  0.00000000e+00  0.00000000e+00 -7.15600442e-08  5.13625099e-08
  0.00000000e+00  0.00000000e+00  0.00000000e+00  2.57310184e-06]","[[ 2.96250241e-05  1.28852574e-03]
 [-6.75189309e-05  3.87212056e-04]]",[],0.0,0.0
1787152708.5987399,2.217825176366617,0.1635482800803499,1.952220766220579,"[ 2.21999537e-06 -3.06116368e-07  0.00000000e+00  0.00000000e+00
  0.00000000e+00 -7.07987699e-08 -3.06116368e-07  2.71632077e-06
  0.00000000e+00  0.00000000e+00  0.00000000e+00  5.62656375e-08
  0.00000000e+00  0.00000000e+00  0.00000000e+00  0.00000000e+00
  0.00000000e+00  0.00000000e+00  0.00000000e+00  0.00000000e+00
  0.00000000e+00  0.00000000e+00  0.00000000e+00  0.00000000e+00
  0.00000000e+00  0.00000000e+00  0.00000000e+00  0.00000000e+00
  0.00000000e+00  0.00000000e+00 -7.07987699e-08  5.62656375e-08
  0.00000000e+00  0.00000000e+00  0.00000000e+00  2.53015700e-06]","[[ 2.59133267e-05  1.30331015e-03]
 [-6.65132887e-05  2.81531271e-04]]",[],0.0,0.0
1787152709.1163633,2.217536719151809,0.16248204357418153,1.9538824797694145,"[ 2.14334730e-06 -3.07271094e-07  0.00000000e+00  0.00000000e+00
  0.00000000e+00 -6.07152229e-08 -3.07271094e-07  2.64341312e-06
  0.00000000e+00  0.00000000e+00  0.00000000e+00  6.09509745e-08
  0.00000000e+00  0.00000000e+00  0.00000000e+00  0.00000000e+00
  0.00000000e+00  0.00000000e+00  0.00000000e+00  0.00000000e+00
  0.00000000e+00  0.00000000e+00  0.00000000e+00  0.00000000e+00
  0.00000000e+00  0.00000000e+00  0.00000000e+00  0.00000000e+00
  0.00000000e+00  0.00000000e+00 -6.07152229e-08  6.09509745e-08
  0.00000000e+00  0.00000000e+00  0.00000000e+00  2.56190591e-06]","[[ 2.79451256e-05  1.18294897e-03]
 [-6.38587262e-05  3.34995605e-04]]",[],0.0,0.0
1787152709.6215882,2.2168924551935105,0.16186671113521747,1.9565737243803891,"[ 2.07209295e-06 -3.10521913e-07  0.00000000e+00  0.00000000e+00
  0.00000000e+00 -7.02473072e-08 -3.10521913e-07  2.58443399e-06
  0.00000000e+00  0.00000000e+00  0.00000000e+00  5.24398732e-08
  0.00000000e+00  0.00000000e+00  0.00000000e+00  0.00000000e+00
  0.00000000e+00  0.00000000e+00  0.00000000e+00  0.00000000e+00
  0.00000000e+00  0.00000000e+00  0.00000000e+00  0.00000000e+00
  0.00000000e+00  0.00000000e+00  0.00000000e+00  0.00000000e+00
  0.00000000e+00  0.00000000e+00 -7.02473072e-08  5.24398732e-08
  0.00000000e+00  0.00000000e+00  0.00000000e+00  2.61703169e-06]","[[ 2.73154312e-05  1.15949828e-03]
 [-6.25366623e-05  3.33435527e-04]]",[],0.0,0.0
1787152710.146878,2.216144563566134,0.1609695005360247,1.9584894691621326,"[ 2.00625677e-06 -3.14994789e-07  0.00000000e+00  0.00000000e+00
  0.00000000e+00 -6.80922311e-08 -3.14994789e-07  2.53471368e-06
  0.00000000e+00  0.00000000e+00  0.00000000e+00  6.28410952e-08
  0.00000000e+00  0.00000000e+00  0.00000000e+00  0.00000000e+00
  0.00000000e+00  0.00000000e+00  0.00000000e+00  0.00000000e+00
  0.00000000e+00  0.00000000e+00  0.00000000e+00  0.00000000e+00
  0.00000000e+00  0.00000000e+00  0.00000000e+00  0.00000000e+00
  0.00000000e+00  0.00000000e+00 -6.80922311e-08  6.28410952e-08
  0.00000000e+00  0.00000000e+00  0.00000000e+00  2.63357528e-06]","[[ 2.67650681e-05  1.11959895e-03]
 [-6.14403365e-05  3.02066257e-04]]",[],0.0,0.0
1787152710.7209232,2.2162192286317937,0.15979483577475384,1.960525587300637,"[ 1.94018433e-06 -3.23556822e-07  0.00000000e+00  0.00000000e+00
  0.00000000e+00 -5.55634231e-08 -3.23556822e-07  2.48274021e-06
  0.00000000e+00  0.00000000e+00  0.00000000e+00  4.97279081e-08
  0.00000000e+00  0.00000000e+00  0.00000000e+00  0.00000000e+00
  0.00000000e+00  0.00000000e+00  0.00000000e+00  0.00000000e+00
  0.00000000e+00  0.00000000e+00  0.00000000e+00  0.00000000e+00
  0.00000000e+00  0.00000000e+00  0.00000000e+00  0.00000000e+00
  0.00000000e+00  0.00000000e+00 -5.55634231e-08  4.97279081e-08
  0.00000000e+00  0.00000000e+00  0.00000000e+00  2.54229892e-06]","[[ 2.63045105e-05  1.06145706e-03]
 [-6.03327051e-05  3.06766653e-04]]",[],0.0,0.0
1787152711.262455,2.21635885036654,0.15936795650481225,1.963493231213997,"[ 1.88172263e-06 -3.39363346e-07  0.00000000e+00  0.00000000e+00
  0.00000000e+00 -5.99226001e-08 -3.39363346e-07  2.45523103e-06
  0.00000000e+00  0.00000000e+00  0.00000000e+00  5.55827656e-08
  0.00000000e+00  0.00000000e+00  0.00000000e+00  0.00000000e+00
  0.00000000e+00  0.00000000e+00  0.00000000e+00  0.00000000e+00
  0.00000000e+00  0.00000000e+00  0.00000000e+00  0.00000000e+00
  0.00000000e+00  0.00000000e+00  0.00000000e+00  0.00000000e+00
  0.00000000e+00  0.00000000e+00 -5.99226001e-08  5.55827656e-08
  0.00000000e+00  0.00000000e+00  0.00000000e+00  2.62797463e-06]","[[ 2.60950978e-05  1.03337483e-03]
 [-5.98548161e-05  2.82011213e-04]]",[],0.0,0.0
1787152711.2919776,2.215883433014546,0.1583995034437079,1.9602991936474103,"[ 1.82936555e-06 -3.45265463e-07  0.00000000e+00  0.00000000e+00
  0.00000000e+00 -4.59541898e-08 -3.45265463e-07  2.41535441e-06
  0.00000000e+00  0.00000000e+00  0.00000000e+00  5.73853823e-08
  0.00000000e+00  0.00000000e+00  0.00000000e+00  0.00000000e+00
  0.00000000e+00  0.00000000e+00  0.00000000e+00  0.00000000e+00
  0.00000000e+00  0.00000000e+00  0.00000000e+00  0.00000000e+00
  0.00000000e+00  0.00000000e+00  0.00000000e+00  0.00000000e+00
  0.00000000e+00  0.00000000e+00 -4.59541898e-08  5.73853823e-08
  0.00000000e+00  0.00000000e+00  0.00000000e+00  2.60105105e-06]","[[ 2.57219950e-05  9.80664654e-04]
 [-5.89937532e-05  2.66747846e-04]]",[],0.0,0.0
1787152711.3430872,2.215883433014546,0.1583995034437079,1.9602991936474103,"[ 1.82936555e-06 -3.45265463e-07  0.00000000e+00  0.00000000e+00
  0.00000000e+00 -4.59541898e-08 -3.45265463e-07  2.41535441e-06
  0.00000000e+00  0.00000000e+00  0.00000000e+00  5.73853823e-08
  0.00000000e+00  0.00000000e+00  0.00000000e+00  0.00000000e+00
  0.00000000e+00  0.00000000e+00  0.00000000e+00  0.00000000e+00
  0.00000000e+00  0.00000000e+00  0.00000000e+00  0.00000000e+00
  0.00000000e+00  0.00000000e+00  0.00000000e+00  0.00000000e+00
  0.00000000e+00  0.00000000e+00 -4.59541898e-08  5.73853823e-08
  0.00000000e+00  0.00000000e+00  0.00000000e+00  2.60105105e-06]","[[ 2.57219950e-05  9.80664654e-04]
 [-5.89937532e-05  2.66747846e-04]]",[],0.0,0.0
1787152711.392421,2.215883433014546,0.1583995034437079,1.9602991936474103,"[ 1.82936555e-06 -3.45265463e-07  0.00000000e+00  0.00000000e+00
  0.00000000e+00 -4.59541898e-08 -3.45265463e-07  2.41535441e-06
  0.00000000e+00  0.00000000e+00  0.00000000e+00  5.73853823e-08
  0.00000000e+00  0.00000000e+00  0.00000000e+00  0.00000000e+00
  0.00000000e+00  0.00000000e+00  0.00000000e+00  0.00000000e+00
  0.00000000e+00  0.00000000e+00  0.00000000e+00  0.00000000e+00
  0.00000000e+00  0.00000000e+00  0.00000000e+00  0.00000000e+00
  0.00000000e+00  0.00000000e+00 -4.59541898e-08  5.73853823e-08
  0.00000000e+00  0.00000000e+00  0.00000000e+00  2.60105105e-06]","[[ 2.57219950e-05  9.80664654e-04]
 [-5.89937532e-05  2.66747846e-04]]",[],0.0,0.0
1787152711.4418445,2.215883433014546,0.1583995034437079,1.9602991936474103,"[ 1.82936555e-06 -3.45265463e-07  0.00000000e+00  0.00000000e+00
  0.00000000e+00 -4.59541898e-08 -3.45265463e-07  2.41535441e-06
  0.00000000e+00  0.00000000e+00  0.00000000e+00  5.73853823e-08
  0.00000000e+00  0.00000000e+00  0.00000000e+00  0.00000000e+00
  0.00000000e+00  0.00000000e+00  0.00000000e+00  0.00000000e+00
  0.00000000e+00  0.00000000e+00  0.00000000e+00  0.00000000e+00
  0.00000000e+00  0.00000000e+00  0.00000000e+00  0.00000000e+00
  0.00000000e+00  0.00000000e+00 -4.59541898e-08  5.73853823e-08
  0.00000000e+00  0.00000000e+00  0.00000000e+00  2.60105105e-06]","[[ 2.57219950e-05  9.80664654e-04]
 [-5.89937532e-05  2.66747846e-04]]",[],0.0,0.0
1787152711.4929862,2.215883433014546,0.1583995034437079,1.9602991936474103,"[ 1.82936555e-06 -3.45265463e-07  0.00000000e+00  0.00000000e+00
  0.00000000e+00 -4.59541898e-08 -3.45265463e-07  2.41535441e-06
  0.00000000e+00  0.00000000e+00  0.00000000e+00  5.73853823e-08
  0.00000000e+00  0.00000000e+00  0.00000000e+00  0.00000000e+00
  0.00000000e+00  0.00000000e+00  0.00000000e+00  0.00000000e+00
  0.00000000e+00  0.00000000e+00  0.00000000e+00  0.00000000e+00
  0.00000000e+00  0.00000000e+00  0.00000000e+00  0.00000000e+00
  0.00000000e+00  0.00000000e+00 -4.59541898e-08  5.73853823e-08
  0.00000000e+00  0.00000000e+00  0.00000000e+00  2.60105105e-06]","[[ 2.57219950e-05  9.80664654e-04]
 [-5.89937532e-05  2.66747846e-04]]",[],0.0,0.0
1787152711.5420384,2.215883433014546,0.1583995034437079,1.9602991936474103,"[ 1.82936555e-06 -3.45265463e-07  0.00000000e+00  0.00000000e+00
  0.00000000e+00 -4.59541898e-08 -3.45265463e-07  2.41535441e-06
  0.00000000e+00  0.00000000e+00  0.00000000e+00  5.73853823e-08
  0.00000000e+00  0.00000000e+00  0.00000000e+00  0.00000000e+00
  0.00000000e+00  0.00000000e+00  0.00000000e+00  0.00000000e+00
  0.00000000e+00  0.00000000e+00  0.00000000e+00  0.00000000e+00
  0.00000000e+00  0.00000000e+00  0.00000000e+00  0.00000000e+00
  0.00000000e+00  0.00000000e+00 -4.59541898e-08  5.73853823e-08
  0.00000000e+00  0.00000000e+00  0.00000000e+00  2.60105105e-06]","[[ 2.57219950e-05  9.80664654e-04]
 [-5.89937532e-05  2.66747846e-04]]",[],0.0,0.0
1787152711.593229,2.215883433014546,0.1583995034437079,1.9602991936474103,"[ 1.82936555e-06 -3.45265463e-07  0.00000000e+00  0.00000000e+00
  0.00000000e+00 -4.59541898e-08 -3.45265463e-07  2.41535441e-06
  0.00000000e+00  0.00000000e+00  0.00000000e+00  5.73853823e-08
  0.00000000e+00  0.00000000e+00  0.00000000e+00  0.00000000e+00
  0.00000000e+00  0.00000000e+00  0.00000000e+00  0.00000000e+00
  0.00000000e+00  0.00000000e+00  0.00000000e+00  0.00000000e+00
  0.00000000e+00  0.00000000e+00  0.00000000e+00  0.00000000e+00
  0.00000000e+00  0.00000000e+00 -4.59541898e-08  5.73853823e-08
  0.00000000e+00  0.00000000e+00  0.00000000e+00  2.60105105e-06]","[[ 2.57219950e-05  9.80664654e-04]
 [-5.89937532e-05  2.66747846e-04]]",[],0.0,0.0
1787152711.6480632,2.215883433014546,0.1583995034437079,1.9602991936474103,"[ 1.82936555e-06 -3.45265463e-07  0.00000000e+00  0.00000000e+00
  0.00000000e+00 -4.59541898e-08 -3.45265463e-07  2.41535441e-06
  0.00000000e+00  0.00000000e+00  0.00000000e+00  5.73853823e-08
  0.00000000e+00  0.00000000e+00  0.00000000e+00  0.00000000e+00
  0.00000000e+00  0.00000000e+00  0.00000000e+00  0.00000000e+00
  0.00000000e+00  0.00000000e+00  0.00000000e+00  0.00000000e+00
  0.00000000e+00  0.00000000e+00  0.00000000e+00  0.00000000e+00
  0.00000000e+00  0.00000000e+00 -4.59541898e-08  5.73853823e-08
  0.00000000e+00  0.00000000e+00  0.00000000e+00  2.60105105e-06]","[[ 2.57219950e-05  9.80664654e-04]
 [-5.89937532e-05  2.66747846e-04]]",[],0.0,0.0
1787152711.6922002,2.215883433014546,0.1583995034437079,1.9602991936474103,"[ 1.82936555e-06 -3.45265463e-07  0.00000000e+00  0.00000000e+00
  0.00000000e+00 -4.59541898e-08 -3.45265463e-07  2.41535441e-06
  0.00000000e+00  0.00000000e+00  0.00000000e+00  5.73853823e-08
  0.00000000e+00  0.00000000e+00  0.00000000e+00  0.00000000e+00
  0.00000000e+00  0.00000000e+00  0.00000000e+00  0.00000000e+00
  0.00000000e+00  0.00000000e+00  0.00000000e+00  0.00000000e+00
  0.00000000e+00  0.00000000e+00  0.00000000e+00  0.00000000e+00
  0.00000000e+00  0.00000000e+00 -4.59541898e-08  5.73853823e-08
  0.00000000e+00  0.00000000e+00  0.00000000e+00  2.60105105e-06]","[[ 2.57219950e-05  9.80664654e-04]
 [-5.89937532e-05  2.66747846e-04]]",[],0.0,0.0
1787152711.7422938,2.215883433014546,0.1583995034437079,1.9602991936474103,"[ 1.82936555e-06 -3.45265463e-07  0.00000000e+00  0.00000000e+00
  0.00000000e+00 -4.59541898e-08 -3.45265463e-07  2.41535441e-06
  0.00000000e+00  0.00000000e+00  0.00000000e+00  5.73853823e-08
  0.00000000e+00  0.00000000e+00  0.00000000e+00  0.00000000e+00
  0.00000000e+00  0.00000000e+00  0.00000000e+00  0.00000000e+00
  0.00000000e+00  0.00000000e+00  0.00000000e+00  0.00000000e+00
  0.00000000e+00  0.00000000e+00  0.00000000e+00  0.00000000e+00
  0.00000000e+00  0.00000000e+00 -4.59541898e-08  5.73853823e-08
  0.00000000e+00  0.00000000e+00  0.00000000e+00  2.60105105e-06]","[[ 2.57219950e-05  9.80664654e-04]
 [-5.89937532e-05  2.66747846e-04]]",[],0.0,0.0
1787152711.7987795,2.215883433014546,0.1583995034437079,1.9602991936474103,"[ 1.82936555e-06 -3.45265463e-07  0.00000000e+00  0.00000000e+00
  0.00000000e+00 -4.59541898e-08 -3.45265463e-07  2.41535441e-06
  0.00000000e+00  0.00000000e+00  0.00000000e+00  5.73853823e-08
  0.00000000e+00  0.00000000e+00  0.00000000e+00  0.00000000e+00
  0.00000000e+00  0.00000000e+00  0.00000000e+00  0.00000000e+00
  0.00000000e+00  0.00000000e+00  0.00000000e+00  0.00000000e+00
  0.00000000e+00  0.00000000e+00  0.00000000e+00  0.00000000e+00
  0.00000000e+00  0.00000000e+00 -4.59541898e-08  5.73853823e-08
  0.00000000e+00  0.00000000e+00  0.00000000e+00  2.60105105e-06]","[[ 2.57219950e-05  9.80664654e-04]
 [-5.89937532e-05  2.66747846e-04]]",[],0.0,0.0
1787152711.841809,2.215883433014546,0.1583995034437079,1.9602991936474103,"[ 1.82936555e-06 -3.45265463e-07  0.00000000e+00  0.00000000e+00
  0.00000000e+00 -4.59541898e-08 -3.45265463e-07  2.41535441e-06
  0.00000000e+00  0.00000000e+00  0.00000000e+00  5.73853823e-08
  0.00000000e+00  0.00000000e+00  0.00000000e+00  0.00000000e+00
  0.00000000e+00  0.00000000e+00  0.00000000e+00  0.00000000e+00
  0.00000000e+00  0.00000000e+00  0.00000000e+00  0.00000000e+00
  0.00000000e+00  0.00000000e+00  0.00000000e+00  0.00000000e+00
  0.00000000e+00  0.00000000e+00 -4.59541898e-08  5.73853823e-08
  0.00000000e+00  0.00000000e+00  0.00000000e+00  2.60105105e-06]","[[ 2.57219950e-05  9.80664654e-04]
 [-5.89937532e-05  2.66747846e-04]]",[],0.0,0.0
1787152711.8919756,2.215883433014546,0.1583995034437079,1.9602991936474103,"[ 1.82936555e-06 -3.45265463e-07  0.00000000e+00  0.00000000e+00
  0.00000000e+00 -4.59541898e-08 -3.45265463e-07  2.41535441e-06
  0.00000000e+00  0.00000000e+00  0.00000000e+00  5.73853823e-08
  0.00000000e+00  0.00000000e+00  0.00000000e+00  0.00000000e+00
  0.00000000e+00  0.00000000e+00  0.00000000e+00  0.00000000e+00
  0.00000000e+00  0.00000000e+00  0.00000000e+00  0.00000000e+00
  0.00000000e+00  0.00000000e+00  0.00000000e+00  0.00000000e+00
  0.00000000e+00  0.00000000e+00 -4.59541898e-08  5.73853823e-08
  0.00000000e+00  0.00000000e+00  0.00000000e+00  2.60105105e-06]","[[ 2.57219950e-05  9.80664654e-04]
 [-5.89937532e-05  2.66747846e-04]]",[],0.0,0.0
1787152711.94213,2.215883433014546,0.1583995034437079,1.9602991936474103,"[ 1.82936555e-06 -3.45265463e-07  0.00000000e+00  0.00000000e+00
  0.00000000e+00 -4.59541898e-08 -3.45265463e-07  2.41535441e-06
  0.00000000e+00  0.00000000e+00  0.00000000e+00  5.73853823e-08
  0.00000000e+00  0.00000000e+00  0.00000000e+00  0.00000000e+00
  0.00000000e+00  0.00000000e+00  0.00000000e+00  0.00000000e+00
  0.00000000e+00  0.00000000e+00  0.00000000e+00  0.00000000e+00
  0.00000000e+00  0.00000000e+00  0.00000000e+00  0.00000000e+00
  0.00000000e+00  0.00000000e+00 -4.59541898e-08  5.73853823e-08
  0.00000000e+00  0.00000000e+00  0.00000000e+00  2.60105105e-06]","[[ 2.57219950e-05  9.80664654e-04]
 [-5.89937532e-05  2.66747846e-04]]",[],0.0,0.0
1787152711.9960802,2.2153293117418387,0.15722220803709858,1.958828932389693,"[ 1.78270725e-06 -3.72516563e-07  0.00000000e+00  0.00000000e+00
  0.00000000e+00 -6.08734682e-08 -3.72516563e-07  2.42718709e-06
  0.00000000e+00  0.00000000e+00  0.00000000e+00  7.12390878e-08
  0.00000000e+00  0.00000000e+00  0.00000000e+00  0.00000000e+00
  0.00000000e+00  0.00000000e+00  0.00000000e+00  0.00000000e+00
  0.00000000e+00  0.00000000e+00  0.00000000e+00  0.00000000e+00
  0.00000000e+00  0.00000000e+00  0.00000000e+00  0.00000000e+00
  0.00000000e+00  0.00000000e+00 -6.08734682e-08  7.12390878e-08
  0.00000000e+00  0.00000000e+00  0.00000000e+00  2.73371425e-06]","[[ 2.58858165e-05  9.74054637e-04]
 [-5.95353195e-05  2.31387566e-04]]",[],0.0,0.0
1787152712.0441616,2.2153293117418387,0.15722220803709858,1.958828932389693,"[ 1.78270725e-06 -3.72516563e-07  0.00000000e+00  0.00000000e+00
  0.00000000e+00 -6.08734682e-08 -3.72516563e-07  2.42718709e-06
  0.00000000e+00  0.00000000e+00  0.00000000e+00  7.12390878e-08
  0.00000000e+00  0.00000000e+00  0.00000000e+00  0.00000000e+00
  0.00000000e+00  0.00000000e+00  0.00000000e+00  0.00000000e+00
  0.00000000e+00  0.00000000e+00  0.00000000e+00  0.00000000e+00
  0.00000000e+00  0.00000000e+00  0.00000000e+00  0.00000000e+00
  0.00000000e+00  0.00000000e+00 -6.08734682e-08  7.12390878e-08
  0.00000000e+00  0.00000000e+00  0.00000000e+00  2.73371425e-06]","[[ 2.58858165e-05  9.74054637e-04]
 [-5.95353195e-05  2.31387566e-04]]",[],0.0,0.0
1787152712.0940359,2.2153293117418387,0.15722220803709858,1.958828932389693,"[ 1.78270725e-06 -3.72516563e-07  0.00000000e+00  0.00000000e+00
  0.00000000e+00 -6.08734682e-08 -3.72516563e-07  2.42718709e-06
  0.00000000e+00  0.00000000e+00  0.00000000e+00  7.12390878e-08
  0.00000000e+00  0.00000000e+00  0.00000000e+00  0.00000000e+00
  0.00000000e+00  0.00000000e+00  0.00000000e+00  0.00000000e+00
  0.00000000e+00  0.00000000e+00  0.00000000e+00  0.00000000e+00
  0.00000000e+00  0.00000000e+00  0.00000000e+00  0.00000000e+00
  0.00000000e+00  0.00000000e+00 -6.08734682e-08  7.12390878e-08
  0.00000000e+00  0.00000000e+00  0.00000000e+00  2.73371425e-06]","[[ 2.58858165e-05  9.74054637e-04]
 [-5.95353195e-05  2.31387566e-04]]",[],0.0,0.0
1787152712.1453295,2.2153293117418387,0.15722220803709858,1.958828932389693,"[ 1.78270725e-06 -3.72516563e-07  0.00000000e+00  0.00000000e+00
  0.00000000e+00 -6.08734682e-08 -3.72516563e-07  2.42718709e-06
  0.00000000e+00  0.00000000e+00  0.00000000e+00  7.12390878e-08
  0.00000000e+00  0.00000000e+00  0.00000000e+00  0.00000000e+00
  0.00000000e+00  0.00000000e+00  0.00000000e+00  0.00000000e+00
  0.00000000e+00  0.00000000e+00  0.00000000e+00  0.00000000e+00
  0.00000000e+00  0.00000000e+00  0.00000000e+00  0.00000000e+00
  0.00000000e+00  0.00000000e+00 -6.08734682e-08  7.12390878e-08
  0.00000000e+00  0.00000000e+00  0.00000000e+00  2.73371425e-06]","[[ 2.58858165e-05  9.74054637e-04]
 [-5.95353195e-05  2.31387566e-04]]",[],0.0,0.0
1787152712.19473,2.2153293117418387,0.15722220803709858,1.958828932389693,"[ 1.78270725e-06 -3.72516563e-07  0.00000000e+00  0.00000000e+00
  0.00000000e+00 -6.08734682e-08 -3.72516563e-07  2.42718709e-06
  0.00000000e+00  0.00000000e+00  0.00000000e+00  7.12390878e-08
  0.00000000e+00  0.00000000e+00  0.00000000e+00  0.00000000e+00
  0.00000000e+00  0.00000000e+00  0.00000000e+00  0.00000000e+00
  0.00000000e+00  0.00000000e+00  0.00000000e+00  0.00000000e+00
  0.00000000e+00  0.00000000e+00  0.00000000e+00  0.00000000e+00
  0.00000000e+00  0.00000000e+00 -6.08734682e-08  7.12390878e-08
  0.00000000e+00  0.00000000e+00  0.00000000e+00  2.73371425e-06]","[[ 2.58858165e-05  9.74054637e-04]
 [-5.95353195e-05  2.31387566e-04]]",[],0.0,0.0
1787152712.2438464,2.2153293117418387,0.15722220803709858,1.958828932389693,"[ 1.78270725e-06 -3.72516563e-07  0.00000000e+00  0.00000000e+00
  0.00000000e+00 -6.08734682e-08 -3.72516563e-07  2.42718709e-06
  0.00000000e+00  0.00000000e+00  0.00000000e+00  7.12390878e-08
  0.00000000e+00  0.00000000e+00  0.00000000e+00  0.00000000e+00
  0.00000000e+00  0.00000000e+00  0.00000000e+00  0.00000000e+00
  0.00000000e+00  0.00000000e+00  0.00000000e+00  0.00000000e+00
  0.00000000e+00  0.00000000e+00  0.00000000e+00  0.00000000e+00
  0.00000000e+00  0.00000000e+00 -6.08734682e-08  7.12390878e-08
  0.00000000e+00  0.00000000e+00  0.00000000e+00  2.73371425e-06]","[[ 2.58858165e-05  9.74054637e-04]
 [-5.95353195e-05  2.31387566e-04]]",[],0.0,0.0
1787152712.2918377,2.2153293117418387,0.15722220803709858,1.958828932389693,"[ 1.78270725e-06 -3.72516563e-07  0.00000000e+00  0.00000000e+00
  0.00000000e+00 -6.08734682e-08 -3.72516563e-07  2.42718709e-06
  0.00000000e+00  0.00000000e+00  0.00000000e+00  7.12390878e-08
  0.00000000e+00  0.00000000e+00  0.00000000e+00  0.00000000e+00
  0.00000000e+00  0.00000000e+00  0.00000000e+00  0.00000000e+00
  0.00000000e+00  0.00000000e+00  0.00000000e+00  0.00000000e+00
  0.00000000e+00  0.00000000e+00  0.00000000e+00  0.00000000e+00
  0.00000000e+00  0.00000000e+00 -6.08734682e-08  7.12390878e-08
  0.00000000e+00  0.00000000e+00  0.00000000e+00  2.73371425e-06]","[[ 2.58858165e-05  9.74054637e-04]
 [-5.95353195e-05  2.31387566e-04]]",[],0.0,0.0
1787152712.350188,2.2153293117418387,0.15722220803709858,1.958828932389693,"[ 1.78270725e-06 -3.72516563e-07  0.00000000e+00  0.00000000e+00
  0.00000000e+00 -6.08734682e-08 -3.72516563e-07  2.42718709e-06
  0.00000000e+00  0.00000000e+00  0.00000000e+00  7.12390878e-08
  0.00000000e+00  0.00000000e+00  0.00000000e+00  0.00000000e+00
  0.00000000e+00  0.00000000e+00  0.00000000e+00  0.00000000e+00
  0.00000000e+00  0.00000000e+00  0.00000000e+00  0.00000000e+00
  0.00000000e+00  0.00000000e+00  0.00000000e+00  0.00000000e+00
  0.00000000e+00  0.00000000e+00 -6.08734682e-08  7.12390878e-08
  0.00000000e+00  0.00000000e+00  0.00000000e+00  2.73371425e-06]","[[ 2.58858165e-05  9.74054637e-04]
 [-5.95353195e-05  2.31387566e-04]]",[],0.0,0.0
1787152712.3922083,2.2153293117418387,0.15722220803709858,1.958828932389693,"[ 1.78270725e-06 -3.72516563e-07  0.00000000e+00  0.00000000e+00
  0.00000000e+00 -6.08734682e-08 -3.72516563e-07  2.42718709e-06
  0.00000000e+00  0.00000000e+00  0.00000000e+00  7.12390878e-08
  0.00000000e+00  0.00000000e+00  0.00000000e+00  0.00000000e+00
  0.00000000e+00  0.00000000e+00  0.00000000e+00  0.00000000e+00
  0.00000000e+00  0.00000000e+00  0.00000000e+00  0.00000000e+00
  0.00000000e+00  0.00000000e+00  0.00000000e+00  0.00000000e+00
  0.00000000e+00  0.00000000e+00 -6.08734682e-08  7.12390878e-08
  0.00000000e+00  0.00000000e+00  0.00000000e+00  2.73371425e-06]","[[ 2.58858165e-05  9.74054637e-04]
 [-5.95353195e-05  2.31387566e-04]]",[],0.0,0.0
1787152712.4431849,2.2153293117418387,0.15722220803709858,1.958828932389693,"[ 1.78270725e-06 -3.72516563e-07  0.00000000e+00  0.00000000e+00
  0.00000000e+00 -6.08734682e-08 -3.72516563e-07  2.42718709e-06
  0.00000000e+00  0.00000000e+00  0.00000000e+00  7.12390878e-08
  0.00000000e+00  0.00000000e+00  0.00000000e+00  0.00000000e+00
  0.00000000e+00  0.00000000e+00  0.00000000e+00  0.00000000e+00
  0.00000000e+00  0.00000000e+00  0.00000000e+00  0.00000000e+00
  0.00000000e+00  0.00000000e+00  0.00000000e+00  0.00000000e+00
  0.00000000e+00  0.00000000e+00 -6.08734682e-08  7.12390878e-08
  0.00000000e+00  0.00000000e+00  0.00000000e+00  2.73371425e-06]","[[ 2.58858165e-05  9.74054637e-04]
 [-5.95353195e-05  2.31387566e-04]]",[],0.0,0.0
1787152712.4921672,2.2153293117418387,0.15722220803709858,1.958828932389693,"[ 1.78270725e-06 -3.72516563e-07  0.00000000e+00  0.00000000e+00
  0.00000000e+00 -6.08734682e-08 -3.72516563e-07  2.42718709e-06
  0.00000000e+00  0.00000000e+00  0.00000000e+00  7.12390878e-08
  0.00000000e+00  0.00000000e+00  0.00000000e+00  0.00000000e+00
  0.00000000e+00  0.00000000e+00  0.00000000e+00  0.00000000e+00
  0.00000000e+00  0.00000000e+00  0.00000000e+00  0.00000000e+00
  0.00000000e+00  0.00000000e+00  0.00000000e+00  0.00000000e+00
  0.00000000e+00  0.00000000e+00 -6.08734682e-08  7.12390878e-08
  0.00000000e+00  0.00000000e+00  0.00000000e+00  2.73371425e-06]","[[ 2.58858165e-05  9.74054637e-04]
 [-5.95353195e-05  2.31387566e-04]]",[],0.0,0.0
1787152712.542739,2.2153293117418387,0.15722220803709858,1.958828932389693,"[ 1.78270725e-06 -3.72516563e-07  0.00000000e+00  0.00000000e+00
  0.00000000e+00 -6.08734682e-08 -3.72516563e-07  2.42718709e-06
  0.00000000e+00  0.00000000e+00  0.00000000e+00  7.12390878e-08
  0.00000000e+00  0.00000000e+00  0.00000000e+00  0.00000000e+00
  0.00000000e+00  0.00000000e+00  0.00000000e+00  0.00000000e+00
  0.00000000e+00  0.00000000e+00  0.00000000e+00  0.00000000e+00
  0.00000000e+00  0.00000000e+00  0.00000000e+00  0.00000000e+00
  0.00000000e+00  0.00000000e+00 -6.08734682e-08  7.12390878e-08
  0.00000000e+00  0.00000000e+00  0.00000000e+00  2.73371425e-06]","[[ 2.58858165e-05  9.74054637e-04]
 [-5.95353195e-05  2.31387566e-04]]",[],0.0,0.0
1787152712.591987,2.2145828599518316,0.15583980774592715,1.9568178320352845,"[ 1.73898618e-06 -3.83670751e-07  0.00000000e+00  0.00000000e+00
  0.00000000e+00 -4.82202600e-08 -3.83670751e-07  2.41168597e-06
  0.00000000e+00  0.00000000e+00  0.00000000e+00  5.97328488e-08
  0.00000000e+00  0.00000000e+00  0.00000000e+00  0.00000000e+00
  0.00000000e+00  0.00000000e+00  0.00000000e+00  0.00000000e+00
  0.00000000e+00  0.00000000e+00  0.00000000e+00  0.00000000e+00
  0.00000000e+00  0.00000000e+00  0.00000000e+00  0.00000000e+00
  0.00000000e+00  0.00000000e+00 -4.82202600e-08  5.97328488e-08
  0.00000000e+00  0.00000000e+00  0.00000000e+00  2.74749867e-06]","[[ 2.57060344e-05  9.27059344e-04]
 [-5.92914215e-05  2.40342971e-04]]",[],0.0,0.0
1787152712.6591442,2.2145828599518316,0.15583980774592715,1.9568178320352845,"[ 1.73898618e-06 -3.83670751e-07  0.00000000e+00  0.00000000e+00
  0.00000000e+00 -4.82202600e-08 -3.83670751e-07  2.41168597e-06
  0.00000000e+00  0.00000000e+00  0.00000000e+00  5.97328488e-08
  0.00000000e+00  0.00000000e+00  0.00000000e+00  0.00000000e+00
  0.00000000e+00  0.00000000e+00  0.00000000e+00  0.00000000e+00
  0.00000000e+00  0.00000000e+00  0.00000000e+00  0.00000000e+00
  0.00000000e+00  0.00000000e+00  0.00000000e+00  0.00000000e+00
  0.00000000e+00  0.00000000e+00 -4.82202600e-08  5.97328488e-08
  0.00000000e+00  0.00000000e+00  0.00000000e+00  2.74749867e-06]","[[ 2.57060344e-05  9.27059344e-04]
 [-5.92914215e-05  2.40342971e-04]]",[],0.0,0.0
1787152713.0490751,2.2145828599518316,0.15583980774592715,1.9568178320352845,"[ 1.73898618e-06 -3.83670751e-07  0.00000000e+00  0.00000000e+00
  0.00000000e+00 -4.82202600e-08 -3.83670751e-07  2.41168597e-06
  0.00000000e+00  0.00000000e+00  0.00000000e+00  5.97328488e-08
  0.00000000e+00  0.00000000e+00  0.00000000e+00  0.00000000e+00
  0.00000000e+00  0.00000000e+00  0.00000000e+00  0.00000000e+00
  0.00000000e+00  0.00000000e+00  0.00000000e+00  0.00000000e+00
  0.00000000e+00  0.00000000e+00  0.00000000e+00  0.00000000e+00
  0.00000000e+00  0.00000000e+00 -4.82202600e-08  5.97328488e-08
  0.00000000e+00  0.00000000e+00  0.00000000e+00  2.74749867e-06]","[[ 2.57060344e-05  9.27059344e-04]
 [-5.92914215e-05  2.40342971e-04]]",[],0.0,0.0
1787152713.6190612,2.2136922895574216,0.15511649979793543,1.9584568325801932,"[ 1.69382718e-06 -3.87488821e-07  0.00000000e+00  0.00000000e+00
  0.00000000e+00 -4.58046645e-08 -3.87488821e-07  2.37108156e-06
  0.00000000e+00  0.00000000e+00  0.00000000e+00  5.45358278e-08
  0.00000000e+00  0.00000000e+00  0.00000000e+00  0.00000000e+00
  0.00000000e+00  0.00000000e+00  0.00000000e+00  0.00000000e+00
  0.00000000e+00  0.00000000e+00  0.00000000e+00  0.00000000e+00
  0.00000000e+00  0.00000000e+00  0.00000000e+00  0.00000000e+00
  0.00000000e+00  0.00000000e+00 -4.58046645e-08  5.45358278e-08
  0.00000000e+00  0.00000000e+00  0.00000000e+00  2.56069524e-06]","[[ 2.33000688e-05  9.49010599e-04]
 [-5.91009821e-05  1.64876231e-04]]",[],0.0,0.0
1787152714.1671233,2.213216818219042,0.15428514856807277,1.9522094846239728,"[ 1.64932124e-06 -3.94099335e-07  0.00000000e+00  0.00000000e+00
  0.00000000e+00 -6.99915809e-08 -3.94099335e-07  2.34731623e-06
  0.00000000e+00  0.00000000e+00  0.00000000e+00  3.84467711e-08
  0.00000000e+00  0.00000000e+00  0.00000000e+00  0.00000000e+00
  0.00000000e+00  0.00000000e+00  0.00000000e+00  0.00000000e+00
  0.00000000e+00  0.00000000e+00  0.00000000e+00  0.00000000e+00
  0.00000000e+00  0.00000000e+00  0.00000000e+00  0.00000000e+00
  0.00000000e+00  0.00000000e+00 -6.99915809e-08  3.84467711e-08
  0.00000000e+00  0.00000000e+00  0.00000000e+00  2.61205066e-06]","[[ 2.30696008e-05  9.62821041e-04]
 [-5.86004401e-05  1.82464648e-04]]",[],0.0,0.0
1787152714.6592484,2.213128300066317,0.15346398621527527,1.952925274489113,"[ 1.60547893e-06 -3.99631412e-07  0.00000000e+00  0.00000000e+00
  0.00000000e+00 -6.62242216e-08 -3.99631412e-07  2.32270702e-06
  0.00000000e+00  0.00000000e+00  0.00000000e+00  5.62495972e-08
  0.00000000e+00  0.00000000e+00  0.00000000e+00  0.00000000e+00
  0.00000000e+00  0.00000000e+00  0.00000000e+00  0.00000000e+00
  0.00000000e+00  0.00000000e+00  0.00000000e+00  0.00000000e+00
  0.00000000e+00  0.00000000e+00  0.00000000e+00  0.00000000e+00
  0.00000000e+00  0.00000000e+00 -6.62242216e-08  5.62495972e-08
  0.00000000e+00  0.00000000e+00  0.00000000e+00  2.60079982e-06]","[[ 2.47429863e-05  8.81633503e-04]
 [-5.74103888e-05  2.15756040e-04]]",[],0.0,0.0
1787152715.1832478,2.2124861770641115,0.1529630837403698,1.9533993527500515,"[ 1.56582539e-06 -3.97837895e-07  0.00000000e+00  0.00000000e+00
  0.00000000e+00 -6.24700566e-08 -3.97837895e-07  2.28697543e-06
  0.00000000e+00  0.00000000e+00  0.00000000e+00  6.51060224e-08
  0.00000000e+00  0.00000000e+00  0.00000000e+00  0.00000000e+00
  0.00000000e+00  0.00000000e+00  0.00000000e+00  0.00000000e+00
  0.00000000e+00  0.00000000e+00  0.00000000e+00  0.00000000e+00
  0.00000000e+00  0.00000000e+00  0.00000000e+00  0.00000000e+00
  0.00000000e+00  0.00000000e+00 -6.24700566e-08  6.51060224e-08
  0.00000000e+00  0.00000000e+00  0.00000000e+00  2.56300241e-06]","[[ 2.43135234e-05  8.54422552e-04]
 [-5.65711508e-05  1.93757052e-04]]",[],0.0,0.0
1787152715.1918573,2.2124861770641115,0.1529630837403698,1.9533993527500515,"[ 1.56582539e-06 -3.97837895e-07  0.00000000e+00  0.00000000e+00
  0.00000000e+00 -6.24700566e-08 -3.97837895e-07  2.28697543e-06
  0.00000000e+00  0.00000000e+00  0.00000000e+00  6.51060224e-08
  0.00000000e+00  0.00000000e+00  0.00000000e+00  0.00000000e+00
  0.00000000e+00  0.00000000e+00  0.00000000e+00  0.00000000e+00
  0.00000000e+00  0.00000000e+00  0.00000000e+00  0.00000000e+00
  0.00000000e+00  0.00000000e+00  0.00000000e+00  0.00000000e+00
  0.00000000e+00  0.00000000e+00 -6.24700566e-08  6.51060224e-08
  0.00000000e+00  0.00000000e+00  0.00000000e+00  2.56300241e-06]","[[ 2.43135234e-05  8.54422552e-04]
 [-5.65711508e-05  1.93757052e-04]]",[],0.0,0.0
1787152715.247918,2.2125754008670047,0.15191919457874448,1.9545945463484806,"[ 1.52568411e-06 -3.99549991e-07  0.00000000e+00  0.00000000e+00
  0.00000000e+00 -6.55055717e-08 -3.99549991e-07  2.25868435e-06
  0.00000000e+00  0.00000000e+00  0.00000000e+00  6.65658459e-08
  0.00000000e+00  0.00000000e+00  0.00000000e+00  0.00000000e+00
  0.00000000e+00  0.00000000e+00  0.00000000e+00  0.00000000e+00
  0.00000000e+00  0.00000000e+00  0.00000000e+00  0.00000000e+00
  0.00000000e+00  0.00000000e+00  0.00000000e+00  0.00000000e+00
  0.00000000e+00  0.00000000e+00 -6.55055717e-08  6.65658459e-08
  0.00000000e+00  0.00000000e+00  0.00000000e+00  2.52544227e-06]","[[ 2.39561603e-05  8.37605287e-04]
 [-5.59389754e-05  1.83669520e-04]]",[],0.0,0.0
1787152715.2924101,2.2125754008670047,0.15191919457874448,1.9545945463484806,"[ 1.52568411e-06 -3.99549991e-07  0.00000000e+00  0.00000000e+00
  0.00000000e+00 -6.55055717e-08 -3.99549991e-07  2.25868435e-06
  0.00000000e+00  0.00000000e+00  0.00000000e+00  6.65658459e-08
  0.00000000e+00  0.00000000e+00  0.00000000e+00  0.00000000e+00
  0.00000000e+00  0.00000000e+00  0.00000000e+00  0.00000000e+00
  0.00000000e+00  0.00000000e+00  0.00000000e+00  0.00000000e+00
  0.00000000e+00  0.00000000e+00  0.00000000e+00  0.00000000e+00
  0.00000000e+00  0.00000000e+00 -6.55055717e-08  6.65658459e-08
  0.00000000e+00  0.00000000e+00  0.00000000e+00  2.52544227e-06]","[[ 2.39561603e-05  8.37605287e-04]
 [-5.59389754e-05  1.83669520e-04]]",[],0.0,0.0
1787152715.3423557,2.2125754008670047,0.15191919457874448,1.9545945463484806,"[ 1.52568411e-06 -3.99549991e-07  0.00000000e+00  0.00000000e+00
  0.00000000e+00 -6.55055717e-08 -3.99549991e-07  2.25868435e-06
  0.00000000e+00  0.00000000e+00  0.00000000e+00  6.65658459e-08
  0.00000000e+00  0.00000000e+00  0.00000000e+00  0.00000000e+00
  0.00000000e+00  0.00000000e+00  0.00000000e+00  0.00000000e+00
  0.00000000e+00  0.00000000e+00  0.00000000e+00  0.00000000e+00
  0.00000000e+00  0.00000000e+00  0.00000000e+00  0.00000000e+00
  0.00000000e+00  0.00000000e+00 -6.55055717e-08  6.65658459e-08
  0.00000000e+00  0.00000000e+00  0.00000000e+00  2.52544227e-06]","[[ 2.39561603e-05  8.37605287e-04]
 [-5.59389754e-05  1.83669520e-04]]",[],0.0,0.0
1787152715.3945365,2.2125754008670047,0.15191919457874448,1.9545945463484806,"[ 1.52568411e-06 -3.99549991e-07  0.00000000e+00  0.00000000e+00
  0.00000000e+00 -6.55055717e-08 -3.99549991e-07  2.25868435e-06
  0.00000000e+00  0.00000000e+00  0.00000000e+00  6.65658459e-08
  0.00000000e+00  0.00000000e+00  0.00000000e+00  0.00000000e+00
  0.00000000e+00  0.00000000e+00  0.00000000e+00  0.00000000e+00
  0.00000000e+00  0.00000000e+00  0.00000000e+00  0.00000000e+00
  0.00000000e+00  0.00000000e+00  0.00000000e+00  0.00000000e+00
  0.00000000e+00  0.00000000e+00 -6.55055717e-08  6.65658459e-08
  0.00000000e+00  0.00000000e+00  0.00000000e+00  2.52544227e-06]","[[ 2.39561603e-05  8.37605287e-04]
 [-5.59389754e-05  1.83669520e-04]]",[],0.0,0.0
1787152715.441886,2.2125754008670047,0.15191919457874448,1.9545945463484806,"[ 1.52568411e-06 -3.99549991e-07  0.00000000e+00  0.00000000e+00
  0.00000000e+00 -6.55055717e-08 -3.99549991e-07  2.25868435e-06
  0.00000000e+00  0.00000000e+00  0.00000000e+00  6.65658459e-08
  0.00000000e+00  0.00000000e+00  0.00000000e+00  0.00000000e+00
  0.00000000e+00  0.00000000e+00  0.00000000e+00  0.00000000e+00
  0.00000000e+00  0.00000000e+00  0.00000000e+00  0.00000000e+00
  0.00000000e+00  0.00000000e+00  0.00000000e+00  0.00000000e+00
  0.00000000e+00  0.00000000e+00 -6.55055717e-08  6.65658459e-08
  0.00000000e+00  0.00000000e+00  0.00000000e+00  2.52544227e-06]","[[ 2.39561603e-05  8.37605287e-04]
 [-5.59389754e-05  1.83669520e-04]]",[],0.0,0.0
1787152715.4927292,2.2125754008670047,0.15191919457874448,1.9545945463484806,"[ 1.52568411e-06 -3.99549991e-07  0.00000000e+00  0.00000000e+00
  0.00000000e+00 -6.55055717e-08 -3.99549991e-07  2.25868435e-06
  0.00000000e+00  0.00000000e+00  0.00000000e+00  6.65658459e-08
  0.00000000e+00  0.00000000e+00  0.00000000e+00  0.00000000e+00
  0.00000000e+00  0.00000000e+00  0.00000000e+00  0.00000000e+00
  0.00000000e+00  0.00000000e+00  0.00000000e+00  0.00000000e+00
  0.00000000e+00  0.00000000e+00  0.00000000e+00  0.00000000e+00
  0.00000000e+00  0.00000000e+00 -6.55055717e-08  6.65658459e-08
  0.00000000e+00  0.00000000e+00  0.00000000e+00  2.52544227e-06]","[[ 2.39561603e-05  8.37605287e-04]
 [-5.59389754e-05  1.83669520e-04]]",[],0.0,0.0
1787152715.545429,2.2125754008670047,0.15191919457874448,1.9545945463484806,"[ 1.52568411e-06 -3.99549991e-07  0.00000000e+00  0.00000000e+00
  0.00000000e+00 -6.55055717e-08 -3.99549991e-07  2.25868435e-06
  0.00000000e+00  0.00000000e+00  0.00000000e+00  6.65658459e-08
  0.00000000e+00  0.00000000e+00  0.00000000e+00  0.00000000e+00
  0.00000000e+00  0.00000000e+00  0.00000000e+00  0.00000000e+00
  0.00000000e+00  0.00000000e+00  0.00000000e+00  0.00000000e+00
  0.00000000e+00  0.00000000e+00  0.00000000e+00  0.00000000e+00
  0.00000000e+00  0.00000000e+00 -6.55055717e-08  6.65658459e-08
  0.00000000e+00  0.00000000e+00  0.00000000e+00  2.52544227e-06]","[[ 2.39561603e-05  8.37605287e-04]
 [-5.59389754e-05  1.83669520e-04]]",[],0.0,0.0
1787152715.5927937,2.2125754008670047,0.15191919457874448,1.9545945463484806,"[ 1.52568411e-06 -3.99549991e-07  0.00000000e+00  0.00000000e+00
