time,x,y,yaw,cov_prop,K_gain,innovation,v_ekf,omega_ekf
1787145892.6840866,2.146286445700289,0.00020623278279513588,1.6816179826850854,"[ 5.60482017e-05  2.17282531e-06  0.00000000e+00  0.00000000e+00
  0.00000000e+00 -2.33625999e-06  2.17282531e-06  4.78911283e-05
  0.00000000e+00  0.00000000e+00  0.00000000e+00 -1.06431015e-06
  0.00000000e+00  0.00000000e+00  0.00000000e+00  0.00000000e+00
  0.00000000e+00  0.00000000e+00  0.00000000e+00  0.00000000e+00
  0.00000000e+00  0.00000000e+00  0.00000000e+00  0.00000000e+00
  0.00000000e+00  0.00000000e+00  0.00000000e+00  0.00000000e+00
  0.00000000e+00  0.00000000e+00 -2.33625999e-06 -1.06431015e-06
  0.00000000e+00  0.00000000e+00  0.00000000e+00  3.59072285e-06]","[[-0.00021842  0.04435246]
 [-0.00119538 -0.00077074]]",[],0.0,0.0
1787145892.7350323,2.146286445700289,0.00020623278279513588,1.6816179826850854,"[ 5.60482017e-05  2.17282531e-06  0.00000000e+00  0.00000000e+00
  0.00000000e+00 -2.33625999e-06  2.17282531e-06  4.78911283e-05
  0.00000000e+00  0.00000000e+00  0.00000000e+00 -1.06431015e-06
  0.00000000e+00  0.00000000e+00  0.00000000e+00  0.00000000e+00
  0.00000000e+00  0.00000000e+00  0.00000000e+00  0.00000000e+00
  0.00000000e+00  0.00000000e+00  0.00000000e+00  0.00000000e+00
  0.00000000e+00  0.00000000e+00  0.00000000e+00  0.00000000e+00
  0.00000000e+00  0.00000000e+00 -2.33625999e-06 -1.06431015e-06
  0.00000000e+00  0.00000000e+00  0.00000000e+00  3.59072285e-06]","[[-0.00021842  0.04435246]
 [-0.00119538 -0.00077074]]",[],0.0,0.0
1787145892.7846582,2.146286445700289,0.00020623278279513588,1.6816179826850854,"[ 5.60482017e-05  2.17282531e-06  0.00000000e+00  0.00000000e+00
  0.00000000e+00 -2.33625999e-06  2.17282531e-06  4.78911283e-05
  0.00000000e+00  0.00000000e+00  0.00000000e+00 -1.06431015e-06
  0.00000000e+00  0.00000000e+00  0.00000000e+00  0.00000000e+00
  0.00000000e+00  0.00000000e+00  0.00000000e+00  0.00000000e+00
  0.00000000e+00  0.00000000e+00  0.00000000e+00  0.00000000e+00
  0.00000000e+00  0.00000000e+00  0.00000000e+00  0.00000000e+00
  0.00000000e+00  0.00000000e+00 -2.33625999e-06 -1.06431015e-06
  0.00000000e+00  0.00000000e+00  0.00000000e+00  3.59072285e-06]","[[-0.00021842  0.04435246]
 [-0.00119538 -0.00077074]]",[],0.0,0.0
1787145893.3237317,2.146286445700289,0.00020623278279513588,1.6816179826850854,"[ 5.60482017e-05  2.17282531e-06  0.00000000e+00  0.00000000e+00
  0.00000000e+00 -2.33625999e-06  2.17282531e-06  4.78911283e-05
  0.00000000e+00  0.00000000e+00  0.00000000e+00 -1.06431015e-06
  0.00000000e+00  0.00000000e+00  0.00000000e+00  0.00000000e+00
  0.00000000e+00  0.00000000e+00  0.00000000e+00  0.00000000e+00
  0.00000000e+00  0.00000000e+00  0.00000000e+00  0.00000000e+00
  0.00000000e+00  0.00000000e+00  0.00000000e+00  0.00000000e+00
  0.00000000e+00  0.00000000e+00 -2.33625999e-06 -1.06431015e-06
  0.00000000e+00  0.00000000e+00  0.00000000e+00  3.59072285e-06]","[[-0.00021842  0.04435246]
 [-0.00119538 -0.00077074]]",[],0.0,0.0
1787145893.3336582,2.146286445700289,0.00020623278279513588,1.6816179826850854,"[ 5.60482017e-05  2.17282531e-06  0.00000000e+00  0.00000000e+00
  0.00000000e+00 -2.33625999e-06  2.17282531e-06  4.78911283e-05
  0.00000000e+00  0.00000000e+00  0.00000000e+00 -1.06431015e-06
  0.00000000e+00  0.00000000e+00  0.00000000e+00  0.00000000e+00
  0.00000000e+00  0.00000000e+00  0.00000000e+00  0.00000000e+00
  0.00000000e+00  0.00000000e+00  0.00000000e+00  0.00000000e+00
  0.00000000e+00  0.00000000e+00  0.00000000e+00  0.00000000e+00
  0.00000000e+00  0.00000000e+00 -2.33625999e-06 -1.06431015e-06
  0.00000000e+00  0.00000000e+00  0.00000000e+00  3.59072285e-06]","[[-0.00021842  0.04435246]
 [-0.00119538 -0.00077074]]",[],0.0,0.0
1787145893.9492013,2.1450208027344284,-0.013928339104237786,1.712248336600796,"[ 2.82166440e-05  7.27390336e-07  0.00000000e+00  0.00000000e+00
  0.00000000e+00 -3.72008417e-07  7.27390336e-07  2.39748452e-05
  0.00000000e+00  0.00000000e+00  0.00000000e+00 -3.24440222e-07
  0.00000000e+00  0.00000000e+00  0.00000000e+00  0.00000000e+00
  0.00000000e+00  0.00000000e+00  0.00000000e+00  0.00000000e+00
  0.00000000e+00  0.00000000e+00  0.00000000e+00  0.00000000e+00
  0.00000000e+00  0.00000000e+00  0.00000000e+00  0.00000000e+00
  0.00000000e+00  0.00000000e+00 -3.72008417e-07 -3.24440222e-07
  0.00000000e+00  0.00000000e+00  0.00000000e+00  2.80745866e-06]","[[ 8.06676967e-05  1.65925093e-02]
 [-5.90934697e-04  2.85781714e-03]]",[],0.0,0.0
1787145893.985311,2.1450208027344284,-0.013928339104237786,1.712248336600796,"[ 2.82166440e-05  7.27390336e-07  0.00000000e+00  0.00000000e+00
  0.00000000e+00 -3.72008417e-07  7.27390336e-07  2.39748452e-05
  0.00000000e+00  0.00000000e+00  0.00000000e+00 -3.24440222e-07
  0.00000000e+00  0.00000000e+00  0.00000000e+00  0.00000000e+00
  0.00000000e+00  0.00000000e+00  0.00000000e+00  0.00000000e+00
  0.00000000e+00  0.00000000e+00  0.00000000e+00  0.00000000e+00
  0.00000000e+00  0.00000000e+00  0.00000000e+00  0.00000000e+00
  0.00000000e+00  0.00000000e+00 -3.72008417e-07 -3.24440222e-07
  0.00000000e+00  0.00000000e+00  0.00000000e+00  2.80745866e-06]","[[ 8.06676967e-05  1.65925093e-02]
 [-5.90934697e-04  2.85781714e-03]]",[],0.0,0.0
1787145894.033236,2.149829824209733,-0.020508986425813277,1.7418433209543185,"[ 1.82206783e-05  4.28544895e-07  0.00000000e+00  0.00000000e+00
  0.00000000e+00 -2.65823929e-07  4.28544895e-07  1.59667998e-05
  0.00000000e+00  0.00000000e+00  0.00000000e+00 -2.10354051e-07
  0.00000000e+00  0.00000000e+00  0.00000000e+00  0.00000000e+00
  0.00000000e+00  0.00000000e+00  0.00000000e+00  0.00000000e+00
  0.00000000e+00  0.00000000e+00  0.00000000e+00  0.00000000e+00
  0.00000000e+00  0.00000000e+00  0.00000000e+00  0.00000000e+00
  0.00000000e+00  0.00000000e+00 -2.65823929e-07 -2.10354051e-07
  0.00000000e+00  0.00000000e+00  0.00000000e+00  2.58540039e-06]","[[ 5.26082253e-05  1.07060057e-02]
 [-3.93820261e-04  1.84520011e-03]]",[],0.0,0.0
1787145894.5937304,2.149829824209733,-0.020508986425813277,1.7418433209543185,"[ 1.82206783e-05  4.28544895e-07  0.00000000e+00  0.00000000e+00
  0.00000000e+00 -2.65823929e-07  4.28544895e-07  1.59667998e-05
  0.00000000e+00  0.00000000e+00  0.00000000e+00 -2.10354051e-07
  0.00000000e+00  0.00000000e+00  0.00000000e+00  0.00000000e+00
  0.00000000e+00  0.00000000e+00  0.00000000e+00  0.00000000e+00
  0.00000000e+00  0.00000000e+00  0.00000000e+00  0.00000000e+00
  0.00000000e+00  0.00000000e+00  0.00000000e+00  0.00000000e+00
  0.00000000e+00  0.00000000e+00 -2.65823929e-07 -2.10354051e-07
  0.00000000e+00  0.00000000e+00  0.00000000e+00  2.58540039e-06]","[[ 5.26082253e-05  1.07060057e-02]
 [-3.93820261e-04  1.84520011e-03]]",[],0.0,0.0
1787145895.1440475,2.1575663484618017,-0.022514979812216507,1.7662179798432993,"[ 1.32970468e-05  3.21137156e-07  0.00000000e+00  0.00000000e+00
  0.00000000e+00 -1.70049867e-07  3.21137156e-07  1.20914630e-05
  0.00000000e+00  0.00000000e+00  0.00000000e+00 -1.56147849e-07
  0.00000000e+00  0.00000000e+00  0.00000000e+00  0.00000000e+00
  0.00000000e+00  0.00000000e+00  0.00000000e+00  0.00000000e+00
  0.00000000e+00  0.00000000e+00  0.00000000e+00  0.00000000e+00
  0.00000000e+00  0.00000000e+00  0.00000000e+00  0.00000000e+00
  0.00000000e+00  0.00000000e+00 -1.70049867e-07 -1.56147849e-07
  0.00000000e+00  0.00000000e+00  0.00000000e+00  2.60477677e-06]","[[ 3.86193134e-05  7.75450405e-03]
 [-2.98181110e-04  1.39633092e-03]]",[],0.0,0.0
1787145895.1828437,2.157730978865894,-0.024854751389222888,1.7766202663176698,"[ 1.04881579e-05  2.59794864e-07  0.00000000e+00  0.00000000e+00
  0.00000000e+00 -9.53803019e-08  2.59794864e-07  9.71475464e-06
  0.00000000e+00  0.00000000e+00  0.00000000e+00 -1.58289742e-07
  0.00000000e+00  0.00000000e+00  0.00000000e+00  0.00000000e+00
  0.00000000e+00  0.00000000e+00  0.00000000e+00  0.00000000e+00
  0.00000000e+00  0.00000000e+00  0.00000000e+00  0.00000000e+00
  0.00000000e+00  0.00000000e+00  0.00000000e+00  0.00000000e+00
  0.00000000e+00  0.00000000e+00 -9.53803019e-08 -1.58289742e-07
  0.00000000e+00  0.00000000e+00  0.00000000e+00  2.46719886e-06]","[[ 3.09572635e-05  6.04490922e-03]
 [-2.39461388e-04  1.18985818e-03]]",[],0.0,0.0
1787145895.7792706,2.157730978865894,-0.024854751389222888,1.7766202663176698,"[ 1.04881579e-05  2.59794864e-07  0.00000000e+00  0.00000000e+00
  0.00000000e+00 -9.53803019e-08  2.59794864e-07  9.71475464e-06
  0.00000000e+00  0.00000000e+00  0.00000000e+00 -1.58289742e-07
  0.00000000e+00  0.00000000e+00  0.00000000e+00  0.00000000e+00
  0.00000000e+00  0.00000000e+00  0.00000000e+00  0.00000000e+00
  0.00000000e+00  0.00000000e+00  0.00000000e+00  0.00000000e+00
  0.00000000e+00  0.00000000e+00  0.00000000e+00  0.00000000e+00
  0.00000000e+00  0.00000000e+00 -9.53803019e-08 -1.58289742e-07
  0.00000000e+00  0.00000000e+00  0.00000000e+00  2.46719886e-06]","[[ 3.09572635e-05  6.04490922e-03]
 [-2.39461388e-04  1.18985818e-03]]",[],0.0,0.0
1787145895.795928,2.157730978865894,-0.024854751389222888,1.7766202663176698,"[ 1.04881579e-05  2.59794864e-07  0.00000000e+00  0.00000000e+00
  0.00000000e+00 -9.53803019e-08  2.59794864e-07  9.71475464e-06
  0.00000000e+00  0.00000000e+00  0.00000000e+00 -1.58289742e-07
  0.00000000e+00  0.00000000e+00  0.00000000e+00  0.00000000e+00
  0.00000000e+00  0.00000000e+00  0.00000000e+00  0.00000000e+00
  0.00000000e+00  0.00000000e+00  0.00000000e+00  0.00000000e+00
  0.00000000e+00  0.00000000e+00  0.00000000e+00  0.00000000e+00
  0.00000000e+00  0.00000000e+00 -9.53803019e-08 -1.58289742e-07
  0.00000000e+00  0.00000000e+00  0.00000000e+00  2.46719886e-06]","[[ 3.09572635e-05  6.04490922e-03]
 [-2.39461388e-04  1.18985818e-03]]",[],0.0,0.0
1787145895.8344493,2.157730978865894,-0.024854751389222888,1.7766202663176698,"[ 1.04881579e-05  2.59794864e-07  0.00000000e+00  0.00000000e+00
  0.00000000e+00 -9.53803019e-08  2.59794864e-07  9.71475464e-06
  0.00000000e+00  0.00000000e+00  0.00000000e+00 -1.58289742e-07
  0.00000000e+00  0.00000000e+00  0.00000000e+00  0.00000000e+00
  0.00000000e+00  0.00000000e+00  0.00000000e+00  0.00000000e+00
  0.00000000e+00  0.00000000e+00  0.00000000e+00  0.00000000e+00
  0.00000000e+00  0.00000000e+00  0.00000000e+00  0.00000000e+00
  0.00000000e+00  0.00000000e+00 -9.53803019e-08 -1.58289742e-07
  0.00000000e+00  0.00000000e+00  0.00000000e+00  2.46719886e-06]","[[ 3.09572635e-05  6.04490922e-03]
 [-2.39461388e-04  1.18985818e-03]]",[],0.0,0.0
1787145896.4197161,2.154723772803888,-0.025469374133027096,1.7930129596527078,"[ 8.67262580e-06  1.91817644e-07  0.00000000e+00  0.00000000e+00
  0.00000000e+00 -1.04185395e-07  1.91817644e-07  8.13918574e-06
  0.00000000e+00  0.00000000e+00  0.00000000e+00 -1.26488945e-07
  0.00000000e+00  0.00000000e+00  0.00000000e+00  0.00000000e+00
  0.00000000e+00  0.00000000e+00  0.00000000e+00  0.00000000e+00
  0.00000000e+00  0.00000000e+00  0.00000000e+00  0.00000000e+00
  0.00000000e+00  0.00000000e+00  0.00000000e+00  0.00000000e+00
  0.00000000e+00  0.00000000e+00 -1.04185395e-07 -1.26488945e-07
  0.00000000e+00  0.00000000e+00  0.00000000e+00  2.56981104e-06]","[[ 3.66929159e-05  5.11870718e-03]
 [-1.98820049e-04  1.21729017e-03]]",[],0.0,0.0
1787145896.4359422,2.154723772803888,-0.025469374133027096,1.7930129596527078,"[ 8.67262580e-06  1.91817644e-07  0.00000000e+00  0.00000000e+00
  0.00000000e+00 -1.04185395e-07  1.91817644e-07  8.13918574e-06
  0.00000000e+00  0.00000000e+00  0.00000000e+00 -1.26488945e-07
  0.00000000e+00  0.00000000e+00  0.00000000e+00  0.00000000e+00
  0.00000000e+00  0.00000000e+00  0.00000000e+00  0.00000000e+00
  0.00000000e+00  0.00000000e+00  0.00000000e+00  0.00000000e+00
  0.00000000e+00  0.00000000e+00  0.00000000e+00  0.00000000e+00
  0.00000000e+00  0.00000000e+00 -1.04185395e-07 -1.26488945e-07
  0.00000000e+00  0.00000000e+00  0.00000000e+00  2.56981104e-06]","[[ 3.66929159e-05  5.11870718e-03]
 [-1.98820049e-04  1.21729017e-03]]",[],0.0,0.0
1787145896.4849625,2.1535017260275833,-0.025737274240039604,1.8016571321693426,"[ 7.48966760e-06  1.52147178e-07  0.00000000e+00  0.00000000e+00
  0.00000000e+00 -8.96917966e-08  1.52147178e-07  7.07385001e-06
  0.00000000e+00  0.00000000e+00  0.00000000e+00 -1.07402442e-07
  0.00000000e+00  0.00000000e+00  0.00000000e+00  0.00000000e+00
  0.00000000e+00  0.00000000e+00  0.00000000e+00  0.00000000e+00
  0.00000000e+00  0.00000000e+00  0.00000000e+00  0.00000000e+00
  0.00000000e+00  0.00000000e+00  0.00000000e+00  0.00000000e+00
  0.00000000e+00  0.00000000e+00 -8.96917966e-08 -1.07402442e-07
  0.00000000e+00  0.00000000e+00  0.00000000e+00  2.62925833e-06]","[[ 2.27273723e-05  4.34667061e-03]
 [-1.74528945e-04  8.27782265e-04]]",[],0.0,0.0
1787145897.0538607,2.1535017260275833,-0.025737274240039604,1.8016571321693426,"[ 7.48966760e-06  1.52147178e-07  0.00000000e+00  0.00000000e+00
  0.00000000e+00 -8.96917966e-08  1.52147178e-07  7.07385001e-06
  0.00000000e+00  0.00000000e+00  0.00000000e+00 -1.07402442e-07
  0.00000000e+00  0.00000000e+00  0.00000000e+00  0.00000000e+00
  0.00000000e+00  0.00000000e+00  0.00000000e+00  0.00000000e+00
  0.00000000e+00  0.00000000e+00  0.00000000e+00  0.00000000e+00
  0.00000000e+00  0.00000000e+00  0.00000000e+00  0.00000000e+00
  0.00000000e+00  0.00000000e+00 -8.96917966e-08 -1.07402442e-07
  0.00000000e+00  0.00000000e+00  0.00000000e+00  2.62925833e-06]","[[ 2.27273723e-05  4.34667061e-03]
 [-1.74528945e-04  8.27782265e-04]]",[],0.0,0.0
1787145897.0863638,2.1535017260275833,-0.025737274240039604,1.8016571321693426,"[ 7.48966760e-06  1.52147178e-07  0.00000000e+00  0.00000000e+00
  0.00000000e+00 -8.96917966e-08  1.52147178e-07  7.07385001e-06
  0.00000000e+00  0.00000000e+00  0.00000000e+00 -1.07402442e-07
  0.00000000e+00  0.00000000e+00  0.00000000e+00  0.00000000e+00
  0.00000000e+00  0.00000000e+00  0.00000000e+00  0.00000000e+00
  0.00000000e+00  0.00000000e+00  0.00000000e+00  0.00000000e+00
  0.00000000e+00  0.00000000e+00  0.00000000e+00  0.00000000e+00
  0.00000000e+00  0.00000000e+00 -8.96917966e-08 -1.07402442e-07
  0.00000000e+00  0.00000000e+00  0.00000000e+00  2.62925833e-06]","[[ 2.27273723e-05  4.34667061e-03]
 [-1.74528945e-04  8.27782265e-04]]",[],0.0,0.0
1787145897.6596828,2.155467591116166,-0.02636548370589279,1.816086975429192,"[ 6.51851032e-06  1.37419732e-07  0.00000000e+00  0.00000000e+00
  0.00000000e+00 -3.72889329e-08  1.37419732e-07  6.26492506e-06
  0.00000000e+00  0.00000000e+00  0.00000000e+00 -8.07884564e-08
  0.00000000e+00  0.00000000e+00  0.00000000e+00  0.00000000e+00
  0.00000000e+00  0.00000000e+00  0.00000000e+00  0.00000000e+00
  0.00000000e+00  0.00000000e+00  0.00000000e+00  0.00000000e+00
  0.00000000e+00  0.00000000e+00  0.00000000e+00  0.00000000e+00
  0.00000000e+00  0.00000000e+00 -3.72889329e-08 -8.07884564e-08
  0.00000000e+00  0.00000000e+00  0.00000000e+00  2.55874973e-06]","[[ 2.75021020e-05  3.77961225e-03]
 [-1.53135456e-04  8.98387118e-04]]",[],0.0,0.0
1787145897.6858103,2.155467591116166,-0.02636548370589279,1.816086975429192,"[ 6.51851032e-06  1.37419732e-07  0.00000000e+00  0.00000000e+00
  0.00000000e+00 -3.72889329e-08  1.37419732e-07  6.26492506e-06
  0.00000000e+00  0.00000000e+00  0.00000000e+00 -8.07884564e-08
  0.00000000e+00  0.00000000e+00  0.00000000e+00  0.00000000e+00
  0.00000000e+00  0.00000000e+00  0.00000000e+00  0.00000000e+00
  0.00000000e+00  0.00000000e+00  0.00000000e+00  0.00000000e+00
  0.00000000e+00  0.00000000e+00  0.00000000e+00  0.00000000e+00
  0.00000000e+00  0.00000000e+00 -3.72889329e-08 -8.07884564e-08
  0.00000000e+00  0.00000000e+00  0.00000000e+00  2.55874973e-06]","[[ 2.75021020e-05  3.77961225e-03]
 [-1.53135456e-04  8.98387118e-04]]",[],0.0,0.0
1787145897.7495449,2.155324499841268,-0.027114250991146727,1.8275178581250096,"[ 5.77201211e-06  9.36120615e-08  0.00000000e+00  0.00000000e+00
  0.00000000e+00 -2.82624002e-08  9.36120615e-08  5.62292916e-06
  0.00000000e+00  0.00000000e+00  0.00000000e+00 -8.06783259e-08
  0.00000000e+00  0.00000000e+00  0.00000000e+00  0.00000000e+00
  0.00000000e+00  0.00000000e+00  0.00000000e+00  0.00000000e+00
  0.00000000e+00  0.00000000e+00  0.00000000e+00  0.00000000e+00
  0.00000000e+00  0.00000000e+00  0.00000000e+00  0.00000000e+00
  0.00000000e+00  0.00000000e+00 -2.82624002e-08 -8.06783259e-08
  0.00000000e+00  0.00000000e+00  0.00000000e+00  2.50803115e-06]","[[ 2.51316261e-05  3.33432251e-03]
 [-1.37565404e-04  8.04734080e-04]]",[],0.0,0.0
1787145897.7834036,2.155324499841268,-0.027114250991146727,1.8275178581250096,"[ 5.77201211e-06  9.36120615e-08  0.00000000e+00  0.00000000e+00
  0.00000000e+00 -2.82624002e-08  9.36120615e-08  5.62292916e-06
  0.00000000e+00  0.00000000e+00  0.00000000e+00 -8.06783259e-08
  0.00000000e+00  0.00000000e+00  0.00000000e+00  0.00000000e+00
  0.00000000e+00  0.00000000e+00  0.00000000e+00  0.00000000e+00
  0.00000000e+00  0.00000000e+00  0.00000000e+00  0.00000000e+00
  0.00000000e+00  0.00000000e+00  0.00000000e+00  0.00000000e+00
  0.00000000e+00  0.00000000e+00 -2.82624002e-08 -8.06783259e-08
  0.00000000e+00  0.00000000e+00  0.00000000e+00  2.50803115e-06]","[[ 2.51316261e-05  3.33432251e-03]
 [-1.37565404e-04  8.04734080e-04]]",[],0.0,0.0
1787145897.834842,2.155324499841268,-0.027114250991146727,1.8275178581250096,"[ 5.77201211e-06  9.36120615e-08  0.00000000e+00  0.00000000e+00
  0.00000000e+00 -2.82624002e-08  9.36120615e-08  5.62292916e-06
  0.00000000e+00  0.00000000e+00  0.00000000e+00 -8.06783259e-08
  0.00000000e+00  0.00000000e+00  0.00000000e+00  0.00000000e+00
  0.00000000e+00  0.00000000e+00  0.00000000e+00  0.00000000e+00
  0.00000000e+00  0.00000000e+00  0.00000000e+00  0.00000000e+00
  0.00000000e+00  0.00000000e+00  0.00000000e+00  0.00000000e+00
  0.00000000e+00  0.00000000e+00 -2.82624002e-08 -8.06783259e-08
  0.00000000e+00  0.00000000e+00  0.00000000e+00  2.50803115e-06]","[[ 2.51316261e-05  3.33432251e-03]
 [-1.37565404e-04  8.04734080e-04]]",[],0.0,0.0
1787145897.8908842,2.155324499841268,-0.027114250991146727,1.8275178581250096,"[ 5.77201211e-06  9.36120615e-08  0.00000000e+00  0.00000000e+00
  0.00000000e+00 -2.82624002e-08  9.36120615e-08  5.62292916e-06
  0.00000000e+00  0.00000000e+00  0.00000000e+00 -8.06783259e-08
  0.00000000e+00  0.00000000e+00  0.00000000e+00  0.00000000e+00
  0.00000000e+00  0.00000000e+00  0.00000000e+00  0.00000000e+00
  0.00000000e+00  0.00000000e+00  0.00000000e+00  0.00000000e+00
  0.00000000e+00  0.00000000e+00  0.00000000e+00  0.00000000e+00
  0.00000000e+00  0.00000000e+00 -2.82624002e-08 -8.06783259e-08
  0.00000000e+00  0.00000000e+00  0.00000000e+00  2.50803115e-06]","[[ 2.51316261e-05  3.33432251e-03]
 [-1.37565404e-04  8.04734080e-04]]",[],0.0,0.0
1787145897.9329123,2.155324499841268,-0.027114250991146727,1.8275178581250096,"[ 5.77201211e-06  9.36120615e-08  0.00000000e+00  0.00000000e+00
  0.00000000e+00 -2.82624002e-08  9.36120615e-08  5.62292916e-06
  0.00000000e+00  0.00000000e+00  0.00000000e+00 -8.06783259e-08
  0.00000000e+00  0.00000000e+00  0.00000000e+00  0.00000000e+00
  0.00000000e+00  0.00000000e+00  0.00000000e+00  0.00000000e+00
  0.00000000e+00  0.00000000e+00  0.00000000e+00  0.00000000e+00
  0.00000000e+00  0.00000000e+00  0.00000000e+00  0.00000000e+00
  0.00000000e+00  0.00000000e+00 -2.82624002e-08 -8.06783259e-08
  0.00000000e+00  0.00000000e+00  0.00000000e+00  2.50803115e-06]","[[ 2.51316261e-05  3.33432251e-03]
 [-1.37565404e-04  8.04734080e-04]]",[],0.0,0.0
1787145897.983165,2.155324499841268,-0.027114250991146727,1.8275178581250096,"[ 5.77201211e-06  9.36120615e-08  0.00000000e+00  0.00000000e+00
  0.00000000e+00 -2.82624002e-08  9.36120615e-08  5.62292916e-06
  0.00000000e+00  0.00000000e+00  0.00000000e+00 -8.06783259e-08
  0.00000000e+00  0.00000000e+00  0.00000000e+00  0.00000000e+00
  0.00000000e+00  0.00000000e+00  0.00000000e+00  0.00000000e+00
  0.00000000e+00  0.00000000e+00  0.00000000e+00  0.00000000e+00
  0.00000000e+00  0.00000000e+00  0.00000000e+00  0.00000000e+00
  0.00000000e+00  0.00000000e+00 -2.82624002e-08 -8.06783259e-08
  0.00000000e+00  0.00000000e+00  0.00000000e+00  2.50803115e-06]","[[ 2.51316261e-05  3.33432251e-03]
 [-1.37565404e-04  8.04734080e-04]]",[],0.0,0.0
1787145898.033012,2.155324499841268,-0.027114250991146727,1.8275178581250096,"[ 5.77201211e-06  9.36120615e-08  0.00000000e+00  0.00000000e+00
  0.00000000e+00 -2.82624002e-08  9.36120615e-08  5.62292916e-06
  0.00000000e+00  0.00000000e+00  0.00000000e+00 -8.06783259e-08
  0.00000000e+00  0.00000000e+00  0.00000000e+00  0.00000000e+00
  0.00000000e+00  0.00000000e+00  0.00000000e+00  0.00000000e+00
  0.00000000e+00  0.00000000e+00  0.00000000e+00  0.00000000e+00
  0.00000000e+00  0.00000000e+00  0.00000000e+00  0.00000000e+00
  0.00000000e+00  0.00000000e+00 -2.82624002e-08 -8.06783259e-08
  0.00000000e+00  0.00000000e+00  0.00000000e+00  2.50803115e-06]","[[ 2.51316261e-05  3.33432251e-03]
 [-1.37565404e-04  8.04734080e-04]]",[],0.0,0.0
1787145898.087264,2.155324499841268,-0.027114250991146727,1.8275178581250096,"[ 5.77201211e-06  9.36120615e-08  0.00000000e+00  0.00000000e+00
  0.00000000e+00 -2.82624002e-08  9.36120615e-08  5.62292916e-06
  0.00000000e+00  0.00000000e+00  0.00000000e+00 -8.06783259e-08
  0.00000000e+00  0.00000000e+00  0.00000000e+00  0.00000000e+00
  0.00000000e+00  0.00000000e+00  0.00000000e+00  0.00000000e+00
  0.00000000e+00  0.00000000e+00  0.00000000e+00  0.00000000e+00
  0.00000000e+00  0.00000000e+00  0.00000000e+00  0.00000000e+00
  0.00000000e+00  0.00000000e+00 -2.82624002e-08 -8.06783259e-08
  0.00000000e+00  0.00000000e+00  0.00000000e+00  2.50803115e-06]","[[ 2.51316261e-05  3.33432251e-03]
 [-1.37565404e-04  8.04734080e-04]]",[],0.0,0.0
1787145898.1445322,2.155324499841268,-0.027114250991146727,1.8275178581250096,"[ 5.77201211e-06  9.36120615e-08  0.00000000e+00  0.00000000e+00
  0.00000000e+00 -2.82624002e-08  9.36120615e-08  5.62292916e-06
  0.00000000e+00  0.00000000e+00  0.00000000e+00 -8.06783259e-08
  0.00000000e+00  0.00000000e+00  0.00000000e+00  0.00000000e+00
  0.00000000e+00  0.00000000e+00  0.00000000e+00  0.00000000e+00
  0.00000000e+00  0.00000000e+00  0.00000000e+00  0.00000000e+00
  0.00000000e+00  0.00000000e+00  0.00000000e+00  0.00000000e+00
  0.00000000e+00  0.00000000e+00 -2.82624002e-08 -8.06783259e-08
  0.00000000e+00  0.00000000e+00  0.00000000e+00  2.50803115e-06]","[[ 2.51316261e-05  3.33432251e-03]
 [-1.37565404e-04  8.04734080e-04]]",[],0.0,0.0
1787145898.1829767,2.155324499841268,-0.027114250991146727,1.8275178581250096,"[ 5.77201211e-06  9.36120615e-08  0.00000000e+00  0.00000000e+00
  0.00000000e+00 -2.82624002e-08  9.36120615e-08  5.62292916e-06
  0.00000000e+00  0.00000000e+00  0.00000000e+00 -8.06783259e-08
  0.00000000e+00  0.00000000e+00  0.00000000e+00  0.00000000e+00
  0.00000000e+00  0.00000000e+00  0.00000000e+00  0.00000000e+00
  0.00000000e+00  0.00000000e+00  0.00000000e+00  0.00000000e+00
  0.00000000e+00  0.00000000e+00  0.00000000e+00  0.00000000e+00
  0.00000000e+00  0.00000000e+00 -2.82624002e-08 -8.06783259e-08
  0.00000000e+00  0.00000000e+00  0.00000000e+00  2.50803115e-06]","[[ 2.51316261e-05  3.33432251e-03]
 [-1.37565404e-04  8.04734080e-04]]",[],0.0,0.0
1787145898.2329533,2.155324499841268,-0.027114250991146727,1.8275178581250096,"[ 5.77201211e-06  9.36120615e-08  0.00000000e+00  0.00000000e+00
  0.00000000e+00 -2.82624002e-08  9.36120615e-08  5.62292916e-06
  0.00000000e+00  0.00000000e+00  0.00000000e+00 -8.06783259e-08
  0.00000000e+00  0.00000000e+00  0.00000000e+00  0.00000000e+00
  0.00000000e+00  0.00000000e+00  0.00000000e+00  0.00000000e+00
  0.00000000e+00  0.00000000e+00  0.00000000e+00  0.00000000e+00
  0.00000000e+00  0.00000000e+00  0.00000000e+00  0.00000000e+00
  0.00000000e+00  0.00000000e+00 -2.82624002e-08 -8.06783259e-08
  0.00000000e+00  0.00000000e+00  0.00000000e+00  2.50803115e-06]","[[ 2.51316261e-05  3.33432251e-03]
 [-1.37565404e-04  8.04734080e-04]]",[],0.0,0.0
1787145898.2909713,2.155324499841268,-0.027114250991146727,1.8275178581250096,"[ 5.77201211e-06  9.36120615e-08  0.00000000e+00  0.00000000e+00
  0.00000000e+00 -2.82624002e-08  9.36120615e-08  5.62292916e-06
  0.00000000e+00  0.00000000e+00  0.00000000e+00 -8.06783259e-08
  0.00000000e+00  0.00000000e+00  0.00000000e+00  0.00000000e+00
  0.00000000e+00  0.00000000e+00  0.00000000e+00  0.00000000e+00
  0.00000000e+00  0.00000000e+00  0.00000000e+00  0.00000000e+00
  0.00000000e+00  0.00000000e+00  0.00000000e+00  0.00000000e+00
  0.00000000e+00  0.00000000e+00 -2.82624002e-08 -8.06783259e-08
  0.00000000e+00  0.00000000e+00  0.00000000e+00  2.50803115e-06]","[[ 2.51316261e-05  3.33432251e-03]
 [-1.37565404e-04  8.04734080e-04]]",[],0.0,0.0
1787145898.3492866,2.155324499841268,-0.027114250991146727,1.8275178581250096,"[ 5.77201211e-06  9.36120615e-08  0.00000000e+00  0.00000000e+00
  0.00000000e+00 -2.82624002e-08  9.36120615e-08  5.62292916e-06
  0.00000000e+00  0.00000000e+00  0.00000000e+00 -8.06783259e-08
  0.00000000e+00  0.00000000e+00  0.00000000e+00  0.00000000e+00
  0.00000000e+00  0.00000000e+00  0.00000000e+00  0.00000000e+00
  0.00000000e+00  0.00000000e+00  0.00000000e+00  0.00000000e+00
  0.00000000e+00  0.00000000e+00  0.00000000e+00  0.00000000e+00
  0.00000000e+00  0.00000000e+00 -2.82624002e-08 -8.06783259e-08
  0.00000000e+00  0.00000000e+00  0.00000000e+00  2.50803115e-06]","[[ 2.51316261e-05  3.33432251e-03]
 [-1.37565404e-04  8.04734080e-04]]",[],0.0,0.0
1787145898.390553,2.155324499841268,-0.027114250991146727,1.8275178581250096,"[ 5.77201211e-06  9.36120615e-08  0.00000000e+00  0.00000000e+00
  0.00000000e+00 -2.82624002e-08  9.36120615e-08  5.62292916e-06
  0.00000000e+00  0.00000000e+00  0.00000000e+00 -8.06783259e-08
  0.00000000e+00  0.00000000e+00  0.00000000e+00  0.00000000e+00
  0.00000000e+00  0.00000000e+00  0.00000000e+00  0.00000000e+00
  0.00000000e+00  0.00000000e+00  0.00000000e+00  0.00000000e+00
  0.00000000e+00  0.00000000e+00  0.00000000e+00  0.00000000e+00
  0.00000000e+00  0.00000000e+00 -2.82624002e-08 -8.06783259e-08
  0.00000000e+00  0.00000000e+00  0.00000000e+00  2.50803115e-06]","[[ 2.51316261e-05  3.33432251e-03]
 [-1.37565404e-04  8.04734080e-04]]",[],0.0,0.0
1787145898.4329536,2.155324499841268,-0.027114250991146727,1.8275178581250096,"[ 5.77201211e-06  9.36120615e-08  0.00000000e+00  0.00000000e+00
  0.00000000e+00 -2.82624002e-08  9.36120615e-08  5.62292916e-06
  0.00000000e+00  0.00000000e+00  0.00000000e+00 -8.06783259e-08
  0.00000000e+00  0.00000000e+00  0.00000000e+00  0.00000000e+00
  0.00000000e+00  0.00000000e+00  0.00000000e+00  0.00000000e+00
  0.00000000e+00  0.00000000e+00  0.00000000e+00  0.00000000e+00
  0.00000000e+00  0.00000000e+00  0.00000000e+00  0.00000000e+00
  0.00000000e+00  0.00000000e+00 -2.82624002e-08 -8.06783259e-08
  0.00000000e+00  0.00000000e+00  0.00000000e+00  2.50803115e-06]","[[ 2.51316261e-05  3.33432251e-03]
 [-1.37565404e-04  8.04734080e-04]]",[],0.0,0.0
1787145898.4858086,2.1561041331515516,-0.025547686124122206,1.8442477358530303,"[ 5.16868117e-06  3.91812055e-08  0.00000000e+00  0.00000000e+00
  0.00000000e+00 -4.94318217e-08  3.91812055e-08  5.19100826e-06
  0.00000000e+00  0.00000000e+00  0.00000000e+00 -8.25353329e-08
  0.00000000e+00  0.00000000e+00  0.00000000e+00  0.00000000e+00
  0.00000000e+00  0.00000000e+00  0.00000000e+00  0.00000000e+00
  0.00000000e+00  0.00000000e+00  0.00000000e+00  0.00000000e+00
  0.00000000e+00  0.00000000e+00  0.00000000e+00  0.00000000e+00
  0.00000000e+00  0.00000000e+00 -4.94318217e-08 -8.25353329e-08
  0.00000000e+00  0.00000000e+00  0.00000000e+00  2.65191460e-06]","[[ 3.05554807e-05  2.95517656e-03]
 [-1.25619891e-04  8.82385422e-04]]",[],0.0,0.0
1787145898.5332346,2.1561041331515516,-0.025547686124122206,1.8442477358530303,"[ 5.16868117e-06  3.91812055e-08  0.00000000e+00  0.00000000e+00
  0.00000000e+00 -4.94318217e-08  3.91812055e-08  5.19100826e-06
  0.00000000e+00  0.00000000e+00  0.00000000e+00 -8.25353329e-08
  0.00000000e+00  0.00000000e+00  0.00000000e+00  0.00000000e+00
  0.00000000e+00  0.00000000e+00  0.00000000e+00  0.00000000e+00
  0.00000000e+00  0.00000000e+00  0.00000000e+00  0.00000000e+00
  0.00000000e+00  0.00000000e+00  0.00000000e+00  0.00000000e+00
  0.00000000e+00  0.00000000e+00 -4.94318217e-08 -8.25353329e-08
  0.00000000e+00  0.00000000e+00  0.00000000e+00  2.65191460e-06]","[[ 3.05554807e-05  2.95517656e-03]
 [-1.25619891e-04  8.82385422e-04]]",[],0.0,0.0
1787145898.5829303,2.1561041331515516,-0.025547686124122206,1.8442477358530303,"[ 5.16868117e-06  3.91812055e-08  0.00000000e+00  0.00000000e+00
  0.00000000e+00 -4.94318217e-08  3.91812055e-08  5.19100826e-06
  0.00000000e+00  0.00000000e+00  0.00000000e+00 -8.25353329e-08
  0.00000000e+00  0.00000000e+00  0.00000000e+00  0.00000000e+00
  0.00000000e+00  0.00000000e+00  0.00000000e+00  0.00000000e+00
  0.00000000e+00  0.00000000e+00  0.00000000e+00  0.00000000e+00
  0.00000000e+00  0.00000000e+00  0.00000000e+00  0.00000000e+00
  0.00000000e+00  0.00000000e+00 -4.94318217e-08 -8.25353329e-08
  0.00000000e+00  0.00000000e+00  0.00000000e+00  2.65191460e-06]","[[ 3.05554807e-05  2.95517656e-03]
 [-1.25619891e-04  8.82385422e-04]]",[],0.0,0.0
1787145898.6337998,2.1561041331515516,-0.025547686124122206,1.8442477358530303,"[ 5.16868117e-06  3.91812055e-08  0.00000000e+00  0.00000000e+00
  0.00000000e+00 -4.94318217e-08  3.91812055e-08  5.19100826e-06
  0.00000000e+00  0.00000000e+00  0.00000000e+00 -8.25353329e-08
  0.00000000e+00  0.00000000e+00  0.00000000e+00  0.00000000e+00
  0.00000000e+00  0.00000000e+00  0.00000000e+00  0.00000000e+00
  0.00000000e+00  0.00000000e+00  0.00000000e+00  0.00000000e+00
  0.00000000e+00  0.00000000e+00  0.00000000e+00  0.00000000e+00
  0.00000000e+00  0.00000000e+00 -4.94318217e-08 -8.25353329e-08
  0.00000000e+00  0.00000000e+00  0.00000000e+00  2.65191460e-06]","[[ 3.05554807e-05  2.95517656e-03]
 [-1.25619891e-04  8.82385422e-04]]",[],0.0,0.0
1787145898.6856775,2.1561041331515516,-0.025547686124122206,1.8442477358530303,"[ 5.16868117e-06  3.91812055e-08  0.00000000e+00  0.00000000e+00
  0.00000000e+00 -4.94318217e-08  3.91812055e-08  5.19100826e-06
  0.00000000e+00  0.00000000e+00  0.00000000e+00 -8.25353329e-08
  0.00000000e+00  0.00000000e+00  0.00000000e+00  0.00000000e+00
  0.00000000e+00  0.00000000e+00  0.00000000e+00  0.00000000e+00
  0.00000000e+00  0.00000000e+00  0.00000000e+00  0.00000000e+00
  0.00000000e+00  0.00000000e+00  0.00000000e+00  0.00000000e+00
  0.00000000e+00  0.00000000e+00 -4.94318217e-08 -8.25353329e-08
  0.00000000e+00  0.00000000e+00  0.00000000e+00  2.65191460e-06]","[[ 3.05554807e-05  2.95517656e-03]
 [-1.25619891e-04  8.82385422e-04]]",[],0.0,0.0
1787145898.7405663,2.1561041331515516,-0.025547686124122206,1.8442477358530303,"[ 5.16868117e-06  3.91812055e-08  0.00000000e+00  0.00000000e+00
  0.00000000e+00 -4.94318217e-08  3.91812055e-08  5.19100826e-06
  0.00000000e+00  0.00000000e+00  0.00000000e+00 -8.25353329e-08
  0.00000000e+00  0.00000000e+00  0.00000000e+00  0.00000000e+00
  0.00000000e+00  0.00000000e+00  0.00000000e+00  0.00000000e+00
  0.00000000e+00  0.00000000e+00  0.00000000e+00  0.00000000e+00
  0.00000000e+00  0.00000000e+00  0.00000000e+00  0.00000000e+00
  0.00000000e+00  0.00000000e+00 -4.94318217e-08 -8.25353329e-08
  0.00000000e+00  0.00000000e+00  0.00000000e+00  2.65191460e-06]","[[ 3.05554807e-05  2.95517656e-03]
 [-1.25619891e-04  8.82385422e-04]]",[],0.0,0.0
1787145898.793252,2.1561041331515516,-0.025547686124122206,1.8442477358530303,"[ 5.16868117e-06  3.91812055e-08  0.00000000e+00  0.00000000e+00
  0.00000000e+00 -4.94318217e-08  3.91812055e-08  5.19100826e-06
  0.00000000e+00  0.00000000e+00  0.00000000e+00 -8.25353329e-08
  0.00000000e+00  0.00000000e+00  0.00000000e+00  0.00000000e+00
  0.00000000e+00  0.00000000e+00  0.00000000e+00  0.00000000e+00
  0.00000000e+00  0.00000000e+00  0.00000000e+00  0.00000000e+00
  0.00000000e+00  0.00000000e+00  0.00000000e+00  0.00000000e+00
  0.00000000e+00  0.00000000e+00 -4.94318217e-08 -8.25353329e-08
  0.00000000e+00  0.00000000e+00  0.00000000e+00  2.65191460e-06]","[[ 3.05554807e-05  2.95517656e-03]
 [-1.25619891e-04  8.82385422e-04]]",[],0.0,0.0
1787145898.8329341,2.1561041331515516,-0.025547686124122206,1.8442477358530303,"[ 5.16868117e-06  3.91812055e-08  0.00000000e+00  0.00000000e+00
  0.00000000e+00 -4.94318217e-08  3.91812055e-08  5.19100826e-06
  0.00000000e+00  0.00000000e+00  0.00000000e+00 -8.25353329e-08
  0.00000000e+00  0.00000000e+00  0.00000000e+00  0.00000000e+00
  0.00000000e+00  0.00000000e+00  0.00000000e+00  0.00000000e+00
  0.00000000e+00  0.00000000e+00  0.00000000e+00  0.00000000e+00
  0.00000000e+00  0.00000000e+00  0.00000000e+00  0.00000000e+00
  0.00000000e+00  0.00000000e+00 -4.94318217e-08 -8.25353329e-08
  0.00000000e+00  0.00000000e+00  0.00000000e+00  2.65191460e-06]","[[ 3.05554807e-05  2.95517656e-03]
 [-1.25619891e-04  8.82385422e-04]]",[],0.0,0.0
1787145898.882829,2.1561041331515516,-0.025547686124122206,1.8442477358530303,"[ 5.16868117e-06  3.91812055e-08  0.00000000e+00  0.00000000e+00
  0.00000000e+00 -4.94318217e-08  3.91812055e-08  5.19100826e-06
  0.00000000e+00  0.00000000e+00  0.00000000e+00 -8.25353329e-08
  0.00000000e+00  0.00000000e+00  0.00000000e+00  0.00000000e+00
  0.00000000e+00  0.00000000e+00  0.00000000e+00  0.00000000e+00
  0.00000000e+00  0.00000000e+00  0.00000000e+00  0.00000000e+00
  0.00000000e+00  0.00000000e+00  0.00000000e+00  0.00000000e+00
  0.00000000e+00  0.00000000e+00 -4.94318217e-08 -8.25353329e-08
  0.00000000e+00  0.00000000e+00  0.00000000e+00  2.65191460e-06]","[[ 3.05554807e-05  2.95517656e-03]
 [-1.25619891e-04  8.82385422e-04]]",[],0.0,0.0
1787145898.935446,2.1561041331515516,-0.025547686124122206,1.8442477358530303,"[ 5.16868117e-06  3.91812055e-08  0.00000000e+00  0.00000000e+00
  0.00000000e+00 -4.94318217e-08  3.91812055e-08  5.19100826e-06
  0.00000000e+00  0.00000000e+00  0.00000000e+00 -8.25353329e-08
  0.00000000e+00  0.00000000e+00  0.00000000e+00  0.00000000e+00
  0.00000000e+00  0.00000000e+00  0.00000000e+00  0.00000000e+00
  0.00000000e+00  0.00000000e+00  0.00000000e+00  0.00000000e+00
  0.00000000e+00  0.00000000e+00  0.00000000e+00  0.00000000e+00
  0.00000000e+00  0.00000000e+00 -4.94318217e-08 -8.25353329e-08
  0.00000000e+00  0.00000000e+00  0.00000000e+00  2.65191460e-06]","[[ 3.05554807e-05  2.95517656e-03]
 [-1.25619891e-04  8.82385422e-04]]",[],0.0,0.0
1787145898.982877,2.1561041331515516,-0.025547686124122206,1.8442477358530303,"[ 5.16868117e-06  3.91812055e-08  0.00000000e+00  0.00000000e+00
  0.00000000e+00 -4.94318217e-08  3.91812055e-08  5.19100826e-06
  0.00000000e+00  0.00000000e+00  0.00000000e+00 -8.25353329e-08
  0.00000000e+00  0.00000000e+00  0.00000000e+00  0.00000000e+00
  0.00000000e+00  0.00000000e+00  0.00000000e+00  0.00000000e+00
  0.00000000e+00  0.00000000e+00  0.00000000e+00  0.00000000e+00
  0.00000000e+00  0.00000000e+00  0.00000000e+00  0.00000000e+00
  0.00000000e+00  0.00000000e+00 -4.94318217e-08 -8.25353329e-08
  0.00000000e+00  0.00000000e+00  0.00000000e+00  2.65191460e-06]","[[ 3.05554807e-05  2.95517656e-03]
 [-1.25619891e-04  8.82385422e-04]]",[],0.0,0.0
1787145899.0327559,2.1561041331515516,-0.025547686124122206,1.8442477358530303,"[ 5.16868117e-06  3.91812055e-08  0.00000000e+00  0.00000000e+00
  0.00000000e+00 -4.94318217e-08  3.91812055e-08  5.19100826e-06
  0.00000000e+00  0.00000000e+00  0.00000000e+00 -8.25353329e-08
  0.00000000e+00  0.00000000e+00  0.00000000e+00  0.00000000e+00
  0.00000000e+00  0.00000000e+00  0.00000000e+00  0.00000000e+00
  0.00000000e+00  0.00000000e+00  0.00000000e+00  0.00000000e+00
  0.00000000e+00  0.00000000e+00  0.00000000e+00  0.00000000e+00
  0.00000000e+00  0.00000000e+00 -4.94318217e-08 -8.25353329e-08
  0.00000000e+00  0.00000000e+00  0.00000000e+00  2.65191460e-06]","[[ 3.05554807e-05  2.95517656e-03]
 [-1.25619891e-04  8.82385422e-04]]",[],0.0,0.0
1787145899.0876393,2.1561041331515516,-0.025547686124122206,1.8442477358530303,"[ 5.16868117e-06  3.91812055e-08  0.00000000e+00  0.00000000e+00
  0.00000000e+00 -4.94318217e-08  3.91812055e-08  5.19100826e-06
  0.00000000e+00  0.00000000e+00  0.00000000e+00 -8.25353329e-08
  0.00000000e+00  0.00000000e+00  0.00000000e+00  0.00000000e+00
  0.00000000e+00  0.00000000e+00  0.00000000e+00  0.00000000e+00
  0.00000000e+00  0.00000000e+00  0.00000000e+00  0.00000000e+00
  0.00000000e+00  0.00000000e+00  0.00000000e+00  0.00000000e+00
  0.00000000e+00  0.00000000e+00 -4.94318217e-08 -8.25353329e-08
  0.00000000e+00  0.00000000e+00  0.00000000e+00  2.65191460e-06]","[[ 3.05554807e-05  2.95517656e-03]
 [-1.25619891e-04  8.82385422e-04]]",[],0.0,0.0
1787145899.1350012,2.1561041331515516,-0.025547686124122206,1.8442477358530303,"[ 5.16868117e-06  3.91812055e-08  0.00000000e+00  0.00000000e+00
  0.00000000e+00 -4.94318217e-08  3.91812055e-08  5.19100826e-06
  0.00000000e+00  0.00000000e+00  0.00000000e+00 -8.25353329e-08
  0.00000000e+00  0.00000000e+00  0.00000000e+00  0.00000000e+00
  0.00000000e+00  0.00000000e+00  0.00000000e+00  0.00000000e+00
  0.00000000e+00  0.00000000e+00  0.00000000e+00  0.00000000e+00
  0.00000000e+00  0.00000000e+00  0.00000000e+00  0.00000000e+00
  0.00000000e+00  0.00000000e+00 -4.94318217e-08 -8.25353329e-08
  0.00000000e+00  0.00000000e+00  0.00000000e+00  2.65191460e-06]","[[ 3.05554807e-05  2.95517656e-03]
 [-1.25619891e-04  8.82385422e-04]]",[],0.0,0.0
1787145899.1854188,2.1561041331515516,-0.025547686124122206,1.8442477358530303,"[ 5.16868117e-06  3.91812055e-08  0.00000000e+00  0.00000000e+00
  0.00000000e+00 -4.94318217e-08  3.91812055e-08  5.19100826e-06
  0.00000000e+00  0.00000000e+00  0.00000000e+00 -8.25353329e-08
  0.00000000e+00  0.00000000e+00  0.00000000e+00  0.00000000e+00
  0.00000000e+00  0.00000000e+00  0.00000000e+00  0.00000000e+00
  0.00000000e+00  0.00000000e+00  0.00000000e+00  0.00000000e+00
  0.00000000e+00  0.00000000e+00  0.00000000e+00  0.00000000e+00
  0.00000000e+00  0.00000000e+00 -4.94318217e-08 -8.25353329e-08
  0.00000000e+00  0.00000000e+00  0.00000000e+00  2.65191460e-06]","[[ 3.05554807e-05  2.95517656e-03]
 [-1.25619891e-04  8.82385422e-04]]",[],0.0,0.0
1787145899.2339897,2.1561041331515516,-0.025547686124122206,1.8442477358530303,"[ 5.16868117e-06  3.91812055e-08  0.00000000e+00  0.00000000e+00
  0.00000000e+00 -4.94318217e-08  3.91812055e-08  5.19100826e-06
  0.00000000e+00  0.00000000e+00  0.00000000e+00 -8.25353329e-08
  0.00000000e+00  0.00000000e+00  0.00000000e+00  0.00000000e+00
  0.00000000e+00  0.00000000e+00  0.00000000e+00  0.00000000e+00
  0.00000000e+00  0.00000000e+00  0.00000000e+00  0.00000000e+00
  0.00000000e+00  0.00000000e+00  0.00000000e+00  0.00000000e+00
  0.00000000e+00  0.00000000e+00 -4.94318217e-08 -8.25353329e-08
  0.00000000e+00  0.00000000e+00  0.00000000e+00  2.65191460e-06]","[[ 3.05554807e-05  2.95517656e-03]
 [-1.25619891e-04  8.82385422e-04]]",[],0.0,0.0
1787145899.28302,2.1556754055604883,-0.024319140462092128,1.8514113699387007,"[ 4.66530122e-06  8.98069368e-09  0.00000000e+00  0.00000000e+00
  0.00000000e+00 -9.43992925e-08  8.98069368e-09  4.85671483e-06
  0.00000000e+00  0.00000000e+00  0.00000000e+00 -8.53922724e-08
  0.00000000e+00  0.00000000e+00  0.00000000e+00  0.00000000e+00
  0.00000000e+00  0.00000000e+00  0.00000000e+00  0.00000000e+00
  0.00000000e+00  0.00000000e+00  0.00000000e+00  0.00000000e+00
  0.00000000e+00  0.00000000e+00  0.00000000e+00  0.00000000e+00
  0.00000000e+00  0.00000000e+00 -9.43992925e-08 -8.53922724e-08
  0.00000000e+00  0.00000000e+00  0.00000000e+00  2.71535428e-06]","[[ 2.82639486e-05  2.74696478e-03]
 [-1.17687103e-04  8.25095483e-04]]",[],0.0,0.0
1787145899.333723,2.1556754055604883,-0.024319140462092128,1.8514113699387007,"[ 4.66530122e-06  8.98069368e-09  0.00000000e+00  0.00000000e+00
  0.00000000e+00 -9.43992925e-08  8.98069368e-09  4.85671483e-06
  0.00000000e+00  0.00000000e+00  0.00000000e+00 -8.53922724e-08
  0.00000000e+00  0.00000000e+00  0.00000000e+00  0.00000000e+00
  0.00000000e+00  0.00000000e+00  0.00000000e+00  0.00000000e+00
  0.00000000e+00  0.00000000e+00  0.00000000e+00  0.00000000e+00
  0.00000000e+00  0.00000000e+00  0.00000000e+00  0.00000000e+00
  0.00000000e+00  0.00000000e+00 -9.43992925e-08 -8.53922724e-08
  0.00000000e+00  0.00000000e+00  0.00000000e+00  2.71535428e-06]","[[ 2.82639486e-05  2.74696478e-03]
 [-1.17687103e-04  8.25095483e-04]]",[],0.0,0.0
1787145899.819382,2.1556754055604883,-0.024319140462092128,1.8514113699387007,"[ 4.66530122e-06  8.98069368e-09  0.00000000e+00  0.00000000e+00
  0.00000000e+00 -9.43992925e-08  8.98069368e-09  4.85671483e-06
  0.00000000e+00  0.00000000e+00  0.00000000e+00 -8.53922724e-08
  0.00000000e+00  0.00000000e+00  0.00000000e+00  0.00000000e+00
  0.00000000e+00  0.00000000e+00  0.00000000e+00  0.00000000e+00
  0.00000000e+00  0.00000000e+00  0.00000000e+00  0.00000000e+00
  0.00000000e+00  0.00000000e+00  0.00000000e+00  0.00000000e+00
  0.00000000e+00  0.00000000e+00 -9.43992925e-08 -8.53922724e-08
  0.00000000e+00  0.00000000e+00  0.00000000e+00  2.71535428e-06]","[[ 2.82639486e-05  2.74696478e-03]
 [-1.17687103e-04  8.25095483e-04]]",[],0.0,0.0
1787145899.8437095,2.1556754055604883,-0.024319140462092128,1.8514113699387007,"[ 4.66530122e-06  8.98069368e-09  0.00000000e+00  0.00000000e+00
  0.00000000e+00 -9.43992925e-08  8.98069368e-09  4.85671483e-06
  0.00000000e+00  0.00000000e+00  0.00000000e+00 -8.53922724e-08
  0.00000000e+00  0.00000000e+00  0.00000000e+00  0.00000000e+00
  0.00000000e+00  0.00000000e+00  0.00000000e+00  0.00000000e+00
  0.00000000e+00  0.00000000e+00  0.00000000e+00  0.00000000e+00
  0.00000000e+00  0.00000000e+00  0.00000000e+00  0.00000000e+00
  0.00000000e+00  0.00000000e+00 -9.43992925e-08 -8.53922724e-08
  0.00000000e+00  0.00000000e+00  0.00000000e+00  2.71535428e-06]","[[ 2.82639486e-05  2.74696478e-03]
 [-1.17687103e-04  8.25095483e-04]]",[],0.0,0.0
1787145900.3984766,2.1578585029148947,-0.023328235862935632,1.856908756190203,"[ 4.27962314e-06  3.55451653e-09  0.00000000e+00  0.00000000e+00
  0.00000000e+00 -8.73913085e-08  3.55451653e-09  4.51206847e-06
  0.00000000e+00  0.00000000e+00  0.00000000e+00 -7.07845402e-08
  0.00000000e+00  0.00000000e+00  0.00000000e+00  0.00000000e+00
  0.00000000e+00  0.00000000e+00  0.00000000e+00  0.00000000e+00
  0.00000000e+00  0.00000000e+00  0.00000000e+00  0.00000000e+00
  0.00000000e+00  0.00000000e+00  0.00000000e+00  0.00000000e+00
  0.00000000e+00  0.00000000e+00 -8.73913085e-08 -7.07845402e-08
  0.00000000e+00  0.00000000e+00  0.00000000e+00  2.55238706e-06]","[[ 2.60367727e-05  2.52162648e-03]
 [-1.09366033e-04  7.49931331e-04]]",[],0.0,0.0
1787145900.9422271,2.158586468914122,-0.0232653714804531,1.8658598241268614,"[ 3.95019043e-06 -8.94598845e-09  0.00000000e+00  0.00000000e+00
  0.00000000e+00 -4.68182728e-08 -8.94598845e-09  4.22540334e-06
  0.00000000e+00  0.00000000e+00  0.00000000e+00 -5.57602513e-08
  0.00000000e+00  0.00000000e+00  0.00000000e+00  0.00000000e+00
  0.00000000e+00  0.00000000e+00  0.00000000e+00  0.00000000e+00
  0.00000000e+00  0.00000000e+00  0.00000000e+00  0.00000000e+00
  0.00000000e+00  0.00000000e+00  0.00000000e+00  0.00000000e+00
  0.00000000e+00  0.00000000e+00 -4.68182728e-08 -5.57602513e-08
  0.00000000e+00  0.00000000e+00  0.00000000e+00  2.49566001e-06]","[[ 2.44071348e-05  2.26969699e-03]
 [-1.02471683e-04  6.80062245e-04]]",[],0.0,0.0
1787145900.9866729,2.158586468914122,-0.0232653714804531,1.8658598241268614,"[ 3.95019043e-06 -8.94598845e-09  0.00000000e+00  0.00000000e+00
  0.00000000e+00 -4.68182728e-08 -8.94598845e-09  4.22540334e-06
  0.00000000e+00  0.00000000e+00  0.00000000e+00 -5.57602513e-08
  0.00000000e+00  0.00000000e+00  0.00000000e+00  0.00000000e+00
  0.00000000e+00  0.00000000e+00  0.00000000e+00  0.00000000e+00
  0.00000000e+00  0.00000000e+00  0.00000000e+00  0.00000000e+00
  0.00000000e+00  0.00000000e+00  0.00000000e+00  0.00000000e+00
  0.00000000e+00  0.00000000e+00 -4.68182728e-08 -5.57602513e-08
  0.00000000e+00  0.00000000e+00  0.00000000e+00  2.49566001e-06]","[[ 2.44071348e-05  2.26969699e-03]
 [-1.02471683e-04  6.80062245e-04]]",[],0.0,0.0
1787145901.0368602,2.1580450062535164,-0.02374550056887417,1.8701215155240725,"[ 3.65339272e-06 -2.34391899e-08  0.00000000e+00  0.00000000e+00
  0.00000000e+00 -1.01525257e-07 -2.34391899e-08  3.97684311e-06
  0.00000000e+00  0.00000000e+00  0.00000000e+00 -5.52671517e-08
  0.00000000e+00  0.00000000e+00  0.00000000e+00  0.00000000e+00
  0.00000000e+00  0.00000000e+00  0.00000000e+00  0.00000000e+00
  0.00000000e+00  0.00000000e+00  0.00000000e+00  0.00000000e+00
  0.00000000e+00  0.00000000e+00  0.00000000e+00  0.00000000e+00
  0.00000000e+00  0.00000000e+00 -1.01525257e-07 -5.52671517e-08
  0.00000000e+00  0.00000000e+00  0.00000000e+00  2.50815962e-06]","[[ 2.77918851e-05  2.13264218e-03]
 [-9.50736593e-05  7.48177032e-04]]",[],0.0,0.0
1787145901.1042104,2.1580450062535164,-0.02374550056887417,1.8701215155240725,"[ 3.65339272e-06 -2.34391899e-08  0.00000000e+00  0.00000000e+00
  0.00000000e+00 -1.01525257e-07 -2.34391899e-08  3.97684311e-06
  0.00000000e+00  0.00000000e+00  0.00000000e+00 -5.52671517e-08
  0.00000000e+00  0.00000000e+00  0.00000000e+00  0.00000000e+00
  0.00000000e+00  0.00000000e+00  0.00000000e+00  0.00000000e+00
  0.00000000e+00  0.00000000e+00  0.00000000e+00  0.00000000e+00
  0.00000000e+00  0.00000000e+00  0.00000000e+00  0.00000000e+00
  0.00000000e+00  0.00000000e+00 -1.01525257e-07 -5.52671517e-08
  0.00000000e+00  0.00000000e+00  0.00000000e+00  2.50815962e-06]","[[ 2.77918851e-05  2.13264218e-03]
 [-9.50736593e-05  7.48177032e-04]]",[],0.0,0.0
1787145901.1340492,2.1580450062535164,-0.02374550056887417,1.8701215155240725,"[ 3.65339272e-06 -2.34391899e-08  0.00000000e+00  0.00000000e+00
  0.00000000e+00 -1.01525257e-07 -2.34391899e-08  3.97684311e-06
  0.00000000e+00  0.00000000e+00  0.00000000e+00 -5.52671517e-08
  0.00000000e+00  0.00000000e+00  0.00000000e+00  0.00000000e+00
  0.00000000e+00  0.00000000e+00  0.00000000e+00  0.00000000e+00
  0.00000000e+00  0.00000000e+00  0.00000000e+00  0.00000000e+00
  0.00000000e+00  0.00000000e+00  0.00000000e+00  0.00000000e+00
  0.00000000e+00  0.00000000e+00 -1.01525257e-07 -5.52671517e-08
  0.00000000e+00  0.00000000e+00  0.00000000e+00  2.50815962e-06]","[[ 2.77918851e-05  2.13264218e-03]
 [-9.50736593e-05  7.48177032e-04]]",[],0.0,0.0
1787145901.197018,2.1580450062535164,-0.02374550056887417,1.8701215155240725,"[ 3.65339272e-06 -2.34391899e-08  0.00000000e+00  0.00000000e+00
  0.00000000e+00 -1.01525257e-07 -2.34391899e-08  3.97684311e-06
  0.00000000e+00  0.00000000e+00  0.00000000e+00 -5.52671517e-08
  0.00000000e+00  0.00000000e+00  0.00000000e+00  0.00000000e+00
  0.00000000e+00  0.00000000e+00  0.00000000e+00  0.00000000e+00
  0.00000000e+00  0.00000000e+00  0.00000000e+00  0.00000000e+00
  0.00000000e+00  0.00000000e+00  0.00000000e+00  0.00000000e+00
  0.00000000e+00  0.00000000e+00 -1.01525257e-07 -5.52671517e-08
  0.00000000e+00  0.00000000e+00  0.00000000e+00  2.50815962e-06]","[[ 2.77918851e-05  2.13264218e-03]
 [-9.50736593e-05  7.48177032e-04]]",[],0.0,0.0
1787145901.7078815,2.1580450062535164,-0.02374550056887417,1.8701215155240725,"[ 3.65339272e-06 -2.34391899e-08  0.00000000e+00  0.00000000e+00
  0.00000000e+00 -1.01525257e-07 -2.34391899e-08  3.97684311e-06
  0.00000000e+00  0.00000000e+00  0.00000000e+00 -5.52671517e-08
  0.00000000e+00  0.00000000e+00  0.00000000e+00  0.00000000e+00
  0.00000000e+00  0.00000000e+00  0.00000000e+00  0.00000000e+00
  0.00000000e+00  0.00000000e+00  0.00000000e+00  0.00000000e+00
  0.00000000e+00  0.00000000e+00  0.00000000e+00  0.00000000e+00
  0.00000000e+00  0.00000000e+00 -1.01525257e-07 -5.52671517e-08
  0.00000000e+00  0.00000000e+00  0.00000000e+00  2.50815962e-06]","[[ 2.77918851e-05  2.13264218e-03]
 [-9.50736593e-05  7.48177032e-04]]",[],0.0,0.0
1787145901.7345676,2.1580450062535164,-0.02374550056887417,1.8701215155240725,"[ 3.65339272e-06 -2.34391899e-08  0.00000000e+00  0.00000000e+00
  0.00000000e+00 -1.01525257e-07 -2.34391899e-08  3.97684311e-06
  0.00000000e+00  0.00000000e+00  0.00000000e+00 -5.52671517e-08
  0.00000000e+00  0.00000000e+00  0.00000000e+00  0.00000000e+00
  0.00000000e+00  0.00000000e+00  0.00000000e+00  0.00000000e+00
  0.00000000e+00  0.00000000e+00  0.00000000e+00  0.00000000e+00
  0.00000000e+00  0.00000000e+00  0.00000000e+00  0.00000000e+00
  0.00000000e+00  0.00000000e+00 -1.01525257e-07 -5.52671517e-08
  0.00000000e+00  0.00000000e+00  0.00000000e+00  2.50815962e-06]","[[ 2.77918851e-05  2.13264218e-03]
 [-9.50736593e-05  7.48177032e-04]]",[],0.0,0.0
1787145902.356017,2.1575979800626643,-0.024266715450493075,1.8727440232374422,"[ 3.41539474e-06 -6.05648028e-08  0.00000000e+00  0.00000000e+00
  0.00000000e+00 -7.91756424e-08 -6.05648028e-08  3.84325314e-06
  0.00000000e+00  0.00000000e+00  0.00000000e+00 -6.69038895e-08
  0.00000000e+00  0.00000000e+00  0.00000000e+00  0.00000000e+00
  0.00000000e+00  0.00000000e+00  0.00000000e+00  0.00000000e+00
  0.00000000e+00  0.00000000e+00  0.00000000e+00  0.00000000e+00
  0.00000000e+00  0.00000000e+00  0.00000000e+00  0.00000000e+00
  0.00000000e+00  0.00000000e+00 -7.91756424e-08 -6.69038895e-08
  0.00000000e+00  0.00000000e+00  0.00000000e+00  2.67873823e-06]","[[ 2.68855046e-05  1.96113090e-03]
 [-9.21686785e-05  7.24401211e-04]]",[],0.0,0.0
1787145902.3865178,2.1575979800626643,-0.024266715450493075,1.8727440232374422,"[ 3.41539474e-06 -6.05648028e-08  0.00000000e+00  0.00000000e+00
  0.00000000e+00 -7.91756424e-08 -6.05648028e-08  3.84325314e-06
  0.00000000e+00  0.00000000e+00  0.00000000e+00 -6.69038895e-08
  0.00000000e+00  0.00000000e+00  0.00000000e+00  0.00000000e+00
  0.00000000e+00  0.00000000e+00  0.00000000e+00  0.00000000e+00
  0.00000000e+00  0.00000000e+00  0.00000000e+00  0.00000000e+00
  0.00000000e+00  0.00000000e+00  0.00000000e+00  0.00000000e+00
  0.00000000e+00  0.00000000e+00 -7.91756424e-08 -6.69038895e-08
  0.00000000e+00  0.00000000e+00  0.00000000e+00  2.67873823e-06]","[[ 2.68855046e-05  1.96113090e-03]
 [-9.21686785e-05  7.24401211e-04]]",[],0.0,0.0
1787145902.4342098,2.157407837363914,-0.025036956791754356,1.875092976346468,"[ 3.20556184e-06 -8.22667499e-08  0.00000000e+00  0.00000000e+00
  0.00000000e+00 -4.77350195e-08 -8.22667499e-08  3.66915346e-06
  0.00000000e+00  0.00000000e+00  0.00000000e+00 -2.45840131e-08
  0.00000000e+00  0.00000000e+00  0.00000000e+00  0.00000000e+00
  0.00000000e+00  0.00000000e+00  0.00000000e+00  0.00000000e+00
  0.00000000e+00  0.00000000e+00  0.00000000e+00  0.00000000e+00
  0.00000000e+00  0.00000000e+00  0.00000000e+00  0.00000000e+00
  0.00000000e+00  0.00000000e+00 -4.77350195e-08 -2.45840131e-08
  0.00000000e+00  0.00000000e+00  0.00000000e+00  2.53375203e-06]","[[ 2.58253635e-05  1.79231437e-03]
 [-8.81805530e-05  6.12963199e-04]]",[],0.0,0.0
1787145902.4846685,2.157407837363914,-0.025036956791754356,1.875092976346468,"[ 3.20556184e-06 -8.22667499e-08  0.00000000e+00  0.00000000e+00
  0.00000000e+00 -4.77350195e-08 -8.22667499e-08  3.66915346e-06
  0.00000000e+00  0.00000000e+00  0.00000000e+00 -2.45840131e-08
  0.00000000e+00  0.00000000e+00  0.00000000e+00  0.00000000e+00
  0.00000000e+00  0.00000000e+00  0.00000000e+00  0.00000000e+00
  0.00000000e+00  0.00000000e+00  0.00000000e+00  0.00000000e+00
  0.00000000e+00  0.00000000e+00  0.00000000e+00  0.00000000e+00
  0.00000000e+00  0.00000000e+00 -4.77350195e-08 -2.45840131e-08
  0.00000000e+00  0.00000000e+00  0.00000000e+00  2.53375203e-06]","[[ 2.58253635e-05  1.79231437e-03]
 [-8.81805530e-05  6.12963199e-04]]",[],0.0,0.0
1787145902.552743,2.157407837363914,-0.025036956791754356,1.875092976346468,"[ 3.20556184e-06 -8.22667499e-08  0.00000000e+00  0.00000000e+00
  0.00000000e+00 -4.77350195e-08 -8.22667499e-08  3.66915346e-06
  0.00000000e+00  0.00000000e+00  0.00000000e+00 -2.45840131e-08
  0.00000000e+00  0.00000000e+00  0.00000000e+00  0.00000000e+00
  0.00000000e+00  0.00000000e+00  0.00000000e+00  0.00000000e+00
  0.00000000e+00  0.00000000e+00  0.00000000e+00  0.00000000e+00
  0.00000000e+00  0.00000000e+00  0.00000000e+00  0.00000000e+00
  0.00000000e+00  0.00000000e+00 -4.77350195e-08 -2.45840131e-08
  0.00000000e+00  0.00000000e+00  0.00000000e+00  2.53375203e-06]","[[ 2.58253635e-05  1.79231437e-03]
 [-8.81805530e-05  6.12963199e-04]]",[],0.0,0.0
1787145902.6037161,2.157407837363914,-0.025036956791754356,1.875092976346468,"[ 3.20556184e-06 -8.22667499e-08  0.00000000e+00  0.00000000e+00
  0.00000000e+00 -4.77350195e-08 -8.22667499e-08  3.66915346e-06
  0.00000000e+00  0.00000000e+00  0.00000000e+00 -2.45840131e-08
  0.00000000e+00  0.00000000e+00  0.00000000e+00  0.00000000e+00
  0.00000000e+00  0.00000000e+00  0.00000000e+00  0.00000000e+00
  0.00000000e+00  0.00000000e+00  0.00000000e+00  0.00000000e+00
  0.00000000e+00  0.00000000e+00  0.00000000e+00  0.00000000e+00
  0.00000000e+00  0.00000000e+00 -4.77350195e-08 -2.45840131e-08
  0.00000000e+00  0.00000000e+00  0.00000000e+00  2.53375203e-06]","[[ 2.58253635e-05  1.79231437e-03]
 [-8.81805530e-05  6.12963199e-04]]",[],0.0,0.0
1787145902.6359334,2.157407837363914,-0.025036956791754356,1.875092976346468,"[ 3.20556184e-06 -8.22667499e-08  0.00000000e+00  0.00000000e+00
  0.00000000e+00 -4.77350195e-08 -8.22667499e-08  3.66915346e-06
  0.00000000e+00  0.00000000e+00  0.00000000e+00 -2.45840131e-08
  0.00000000e+00  0.00000000e+00  0.00000000e+00  0.00000000e+00
  0.00000000e+00  0.00000000e+00  0.00000000e+00  0.00000000e+00
  0.00000000e+00  0.00000000e+00  0.00000000e+00  0.00000000e+00
  0.00000000e+00  0.00000000e+00  0.00000000e+00  0.00000000e+00
  0.00000000e+00  0.00000000e+00 -4.77350195e-08 -2.45840131e-08
  0.00000000e+00  0.00000000e+00  0.00000000e+00  2.53375203e-06]","[[ 2.58253635e-05  1.79231437e-03]
 [-8.81805530e-05  6.12963199e-04]]",[],0.0,0.0
1787145903.1183076,2.157407837363914,-0.025036956791754356,1.875092976346468,"[ 3.20556184e-06 -8.22667499e-08  0.00000000e+00  0.00000000e+00
  0.00000000e+00 -4.77350195e-08 -8.22667499e-08  3.66915346e-06
  0.00000000e+00  0.00000000e+00  0.00000000e+00 -2.45840131e-08
  0.00000000e+00  0.00000000e+00  0.00000000e+00  0.00000000e+00
  0.00000000e+00  0.00000000e+00  0.00000000e+00  0.00000000e+00
  0.00000000e+00  0.00000000e+00  0.00000000e+00  0.00000000e+00
  0.00000000e+00  0.00000000e+00  0.00000000e+00  0.00000000e+00
  0.00000000e+00  0.00000000e+00 -4.77350195e-08 -2.45840131e-08
  0.00000000e+00  0.00000000e+00  0.00000000e+00  2.53375203e-06]","[[ 2.58253635e-05  1.79231437e-03]
 [-8.81805530e-05  6.12963199e-04]]",[],0.0,0.0
1787145903.1362429,2.157407837363914,-0.025036956791754356,1.875092976346468,"[ 3.20556184e-06 -8.22667499e-08  0.00000000e+00  0.00000000e+00
  0.00000000e+00 -4.77350195e-08 -8.22667499e-08  3.66915346e-06
  0.00000000e+00  0.00000000e+00  0.00000000e+00 -2.45840131e-08
  0.00000000e+00  0.00000000e+00  0.00000000e+00  0.00000000e+00
  0.00000000e+00  0.00000000e+00  0.00000000e+00  0.00000000e+00
  0.00000000e+00  0.00000000e+00  0.00000000e+00  0.00000000e+00
  0.00000000e+00  0.00000000e+00  0.00000000e+00  0.00000000e+00
  0.00000000e+00  0.00000000e+00 -4.77350195e-08 -2.45840131e-08
  0.00000000e+00  0.00000000e+00  0.00000000e+00  2.53375203e-06]","[[ 2.58253635e-05  1.79231437e-03]
 [-8.81805530e-05  6.12963199e-04]]",[],0.0,0.0
1787145903.196239,2.1582669128433816,-0.02556791430010409,1.8765240013756994,"[ 3.02711873e-06 -1.21925553e-07  0.00000000e+00  0.00000000e+00
  0.00000000e+00 -2.61276623e-08 -1.21925553e-07  3.58452157e-06
  0.00000000e+00  0.00000000e+00  0.00000000e+00 -5.18713783e-08
  0.00000000e+00  0.00000000e+00  0.00000000e+00  0.00000000e+00
  0.00000000e+00  0.00000000e+00  0.00000000e+00  0.00000000e+00
  0.00000000e+00  0.00000000e+00  0.00000000e+00  0.00000000e+00
  0.00000000e+00  0.00000000e+00  0.00000000e+00  0.00000000e+00
  0.00000000e+00  0.00000000e+00 -2.61276623e-08 -5.18713783e-08
  0.00000000e+00  0.00000000e+00  0.00000000e+00  2.72800217e-06]","[[ 2.14713364e-05  1.70630392e-03]
 [-8.76352404e-05  5.20153716e-04]]",[],0.0,0.0
1787145903.7011611,2.1582669128433816,-0.02556791430010409,1.8765240013756994,"[ 3.02711873e-06 -1.21925553e-07  0.00000000e+00  0.00000000e+00
  0.00000000e+00 -2.61276623e-08 -1.21925553e-07  3.58452157e-06
  0.00000000e+00  0.00000000e+00  0.00000000e+00 -5.18713783e-08
  0.00000000e+00  0.00000000e+00  0.00000000e+00  0.00000000e+00
  0.00000000e+00  0.00000000e+00  0.00000000e+00  0.00000000e+00
  0.00000000e+00  0.00000000e+00  0.00000000e+00  0.00000000e+00
  0.00000000e+00  0.00000000e+00  0.00000000e+00  0.00000000e+00
  0.00000000e+00  0.00000000e+00 -2.61276623e-08 -5.18713783e-08
  0.00000000e+00  0.00000000e+00  0.00000000e+00  2.72800217e-06]","[[ 2.14713364e-05  1.70630392e-03]
 [-8.76352404e-05  5.20153716e-04]]",[],0.0,0.0
1787145903.7348826,2.158100532400806,-0.026306743595606627,1.8773442211864892,"[ 2.86684567e-06 -1.30637592e-07  0.00000000e+00  0.00000000e+00
  0.00000000e+00 -2.90963757e-09 -1.30637592e-07  3.43549781e-06
  0.00000000e+00  0.00000000e+00  0.00000000e+00 -6.62641134e-08
  0.00000000e+00  0.00000000e+00  0.00000000e+00  0.00000000e+00
  0.00000000e+00  0.00000000e+00  0.00000000e+00  0.00000000e+00
  0.00000000e+00  0.00000000e+00  0.00000000e+00  0.00000000e+00
  0.00000000e+00  0.00000000e+00  0.00000000e+00  0.00000000e+00
  0.00000000e+00  0.00000000e+00 -2.90963757e-09 -6.62641134e-08
  0.00000000e+00  0.00000000e+00  0.00000000e+00  2.54437797e-06]","[[ 2.44641817e-05  1.52674541e-03]
 [-8.29622632e-05  6.16482456e-04]]",[],0.0,0.0
1787145903.7870274,2.158100532400806,-0.026306743595606627,1.8773442211864892,"[ 2.86684567e-06 -1.30637592e-07  0.00000000e+00  0.00000000e+00
  0.00000000e+00 -2.90963757e-09 -1.30637592e-07  3.43549781e-06
  0.00000000e+00  0.00000000e+00  0.00000000e+00 -6.62641134e-08
  0.00000000e+00  0.00000000e+00  0.00000000e+00  0.00000000e+00
  0.00000000e+00  0.00000000e+00  0.00000000e+00  0.00000000e+00
  0.00000000e+00  0.00000000e+00  0.00000000e+00  0.00000000e+00
  0.00000000e+00  0.00000000e+00  0.00000000e+00  0.00000000e+00
  0.00000000e+00  0.00000000e+00 -2.90963757e-09 -6.62641134e-08
  0.00000000e+00  0.00000000e+00  0.00000000e+00  2.54437797e-06]","[[ 2.44641817e-05  1.52674541e-03]
 [-8.29622632e-05  6.16482456e-04]]",[],0.0,0.0
1787145904.3149822,2.158100532400806,-0.026306743595606627,1.8773442211864892,"[ 2.86684567e-06 -1.30637592e-07  0.00000000e+00  0.00000000e+00
  0.00000000e+00 -2.90963757e-09 -1.30637592e-07  3.43549781e-06
  0.00000000e+00  0.00000000e+00  0.00000000e+00 -6.62641134e-08
  0.00000000e+00  0.00000000e+00  0.00000000e+00  0.00000000e+00
  0.00000000e+00  0.00000000e+00  0.00000000e+00  0.00000000e+00
  0.00000000e+00  0.00000000e+00  0.00000000e+00  0.00000000e+00
  0.00000000e+00  0.00000000e+00  0.00000000e+00  0.00000000e+00
  0.00000000e+00  0.00000000e+00 -2.90963757e-09 -6.62641134e-08
  0.00000000e+00  0.00000000e+00  0.00000000e+00  2.54437797e-06]","[[ 2.44641817e-05  1.52674541e-03]
 [-8.29622632e-05  6.16482456e-04]]",[],0.0,0.0
1787145904.341245,2.158100532400806,-0.026306743595606627,1.8773442211864892,"[ 2.86684567e-06 -1.30637592e-07  0.00000000e+00  0.00000000e+00
  0.00000000e+00 -2.90963757e-09 -1.30637592e-07  3.43549781e-06
  0.00000000e+00  0.00000000e+00  0.00000000e+00 -6.62641134e-08
  0.00000000e+00  0.00000000e+00  0.00000000e+00  0.00000000e+00
  0.00000000e+00  0.00000000e+00  0.00000000e+00  0.00000000e+00
  0.00000000e+00  0.00000000e+00  0.00000000e+00  0.00000000e+00
  0.00000000e+00  0.00000000e+00  0.00000000e+00  0.00000000e+00
  0.00000000e+00  0.00000000e+00 -2.90963757e-09 -6.62641134e-08
  0.00000000e+00  0.00000000e+00  0.00000000e+00  2.54437797e-06]","[[ 2.44641817e-05  1.52674541e-03]
 [-8.29622632e-05  6.16482456e-04]]",[],0.0,0.0
1787145904.3894534,2.158100532400806,-0.026306743595606627,1.8773442211864892,"[ 2.86684567e-06 -1.30637592e-07  0.00000000e+00  0.00000000e+00
  0.00000000e+00 -2.90963757e-09 -1.30637592e-07  3.43549781e-06
  0.00000000e+00  0.00000000e+00  0.00000000e+00 -6.62641134e-08
  0.00000000e+00  0.00000000e+00  0.00000000e+00  0.00000000e+00
  0.00000000e+00  0.00000000e+00  0.00000000e+00  0.00000000e+00
  0.00000000e+00  0.00000000e+00  0.00000000e+00  0.00000000e+00
  0.00000000e+00  0.00000000e+00  0.00000000e+00  0.00000000e+00
  0.00000000e+00  0.00000000e+00 -2.90963757e-09 -6.62641134e-08
  0.00000000e+00  0.00000000e+00  0.00000000e+00  2.54437797e-06]","[[ 2.44641817e-05  1.52674541e-03]
 [-8.29622632e-05  6.16482456e-04]]",[],0.0,0.0
1787145904.9667387,2.158565412375808,-0.027031765949607534,1.8788286509750973,"[ 2.73008619e-06 -1.38375429e-07  0.00000000e+00  0.00000000e+00
  0.00000000e+00 -3.86133018e-08 -1.38375429e-07  3.31167216e-06
  0.00000000e+00  0.00000000e+00  0.00000000e+00 -2.81206409e-08
  0.00000000e+00  0.00000000e+00  0.00000000e+00  0.00000000e+00
  0.00000000e+00  0.00000000e+00  0.00000000e+00  0.00000000e+00
  0.00000000e+00  0.00000000e+00  0.00000000e+00  0.00000000e+00
  0.00000000e+00  0.00000000e+00  0.00000000e+00  0.00000000e+00
  0.00000000e+00  0.00000000e+00 -3.86133018e-08 -2.81206409e-08
  0.00000000e+00  0.00000000e+00  0.00000000e+00  2.58329499e-06]","[[ 2.36222556e-05  1.51059486e-03]
 [-8.00674883e-05  5.28080214e-04]]",[],0.0,0.0
1787145904.9884155,2.158565412375808,-0.027031765949607534,1.8788286509750973,"[ 2.73008619e-06 -1.38375429e-07  0.00000000e+00  0.00000000e+00
  0.00000000e+00 -3.86133018e-08 -1.38375429e-07  3.31167216e-06
  0.00000000e+00  0.00000000e+00  0.00000000e+00 -2.81206409e-08
  0.00000000e+00  0.00000000e+00  0.00000000e+00  0.00000000e+00
  0.00000000e+00  0.00000000e+00  0.00000000e+00  0.00000000e+00
  0.00000000e+00  0.00000000e+00  0.00000000e+00  0.00000000e+00
  0.00000000e+00  0.00000000e+00  0.00000000e+00  0.00000000e+00
  0.00000000e+00  0.00000000e+00 -3.86133018e-08 -2.81206409e-08
  0.00000000e+00  0.00000000e+00  0.00000000e+00  2.58329499e-06]","[[ 2.36222556e-05  1.51059486e-03]
 [-8.00674883e-05  5.28080214e-04]]",[],0.0,0.0
1787145905.4106655,2.158641819519779,-0.02793961477193065,1.8813309183879807,"[ 2.60258861e-06 -1.54009472e-07  0.00000000e+00  0.00000000e+00
  0.00000000e+00 -3.47639871e-08 -1.54009472e-07  3.21585952e-06
  0.00000000e+00  0.00000000e+00  0.00000000e+00 -1.13326067e-08
  0.00000000e+00  0.00000000e+00  0.00000000e+00  0.00000000e+00
  0.00000000e+00  0.00000000e+00  0.00000000e+00  0.00000000e+00
  0.00000000e+00  0.00000000e+00  0.00000000e+00  0.00000000e+00
  0.00000000e+00  0.00000000e+00  0.00000000e+00  0.00000000e+00
  0.00000000e+00  0.00000000e+00 -3.47639871e-08 -1.13326067e-08
  0.00000000e+00  0.00000000e+00  0.00000000e+00  2.58935980e-06]","[[ 2.30511703e-05  1.43252444e-03]
 [-7.78955770e-05  4.75814047e-04]]",[],0.0,0.0
1787145905.4371047,2.158641819519779,-0.02793961477193065,1.8813309183879807,"[ 2.60258861e-06 -1.54009472e-07  0.00000000e+00  0.00000000e+00
  0.00000000e+00 -3.47639871e-08 -1.54009472e-07  3.21585952e-06
  0.00000000e+00  0.00000000e+00  0.00000000e+00 -1.13326067e-08
  0.00000000e+00  0.00000000e+00  0.00000000e+00  0.00000000e+00
  0.00000000e+00  0.00000000e+00  0.00000000e+00  0.00000000e+00
  0.00000000e+00  0.00000000e+00  0.00000000e+00  0.00000000e+00
  0.00000000e+00  0.00000000e+00  0.00000000e+00  0.00000000e+00
  0.00000000e+00  0.00000000e+00 -3.47639871e-08 -1.13326067e-08
  0.00000000e+00  0.00000000e+00  0.00000000e+00  2.58935980e-06]","[[ 2.30511703e-05  1.43252444e-03]
 [-7.78955770e-05  4.75814047e-04]]",[],0.0,0.0
1787145905.4826655,2.1586230973379874,-0.028387454196815883,1.883783782861013,"[ 2.48148179e-06 -1.53094138e-07  0.00000000e+00  0.00000000e+00
  0.00000000e+00 -2.01829946e-08 -1.53094138e-07  3.07678498e-06
  0.00000000e+00  0.00000000e+00  0.00000000e+00 -2.05897110e-08
  0.00000000e+00  0.00000000e+00  0.00000000e+00  0.00000000e+00
  0.00000000e+00  0.00000000e+00  0.00000000e+00  0.00000000e+00
  0.00000000e+00  0.00000000e+00  0.00000000e+00  0.00000000e+00
  0.00000000e+00  0.00000000e+00  0.00000000e+00  0.00000000e+00
  0.00000000e+00  0.00000000e+00 -2.01829946e-08 -2.05897110e-08
  0.00000000e+00  0.00000000e+00  0.00000000e+00  2.32274827e-06]","[[ 2.30511703e-05  1.43252444e-03]
 [-7.78955770e-05  4.75814047e-04]]",[],0.0,0.0
1787145905.990168,2.1586230973379874,-0.028387454196815883,1.883783782861013,"[ 2.48148179e-06 -1.53094138e-07  0.00000000e+00  0.00000000e+00
  0.00000000e+00 -2.01829946e-08 -1.53094138e-07  3.07678498e-06
  0.00000000e+00  0.00000000e+00  0.00000000e+00 -2.05897110e-08
  0.00000000e+00  0.00000000e+00  0.00000000e+00  0.00000000e+00
  0.00000000e+00  0.00000000e+00  0.00000000e+00  0.00000000e+00
  0.00000000e+00  0.00000000e+00  0.00000000e+00  0.00000000e+00
  0.00000000e+00  0.00000000e+00  0.00000000e+00  0.00000000e+00
  0.00000000e+00  0.00000000e+00 -2.01829946e-08 -2.05897110e-08
  0.00000000e+00  0.00000000e+00  0.00000000e+00  2.32274827e-06]","[[ 2.21238079e-05  1.34301019e-03]
 [-7.45709343e-05  4.68021423e-04]]",[],0.0,0.0
1787145906.0344718,2.1586230973379874,-0.028387454196815883,1.883783782861013,"[ 2.48148179e-06 -1.53094138e-07  0.00000000e+00  0.00000000e+00
  0.00000000e+00 -2.01829946e-08 -1.53094138e-07  3.07678498e-06
  0.00000000e+00  0.00000000e+00  0.00000000e+00 -2.05897110e-08
  0.00000000e+00  0.00000000e+00  0.00000000e+00  0.00000000e+00
  0.00000000e+00  0.00000000e+00  0.00000000e+00  0.00000000e+00
  0.00000000e+00  0.00000000e+00  0.00000000e+00  0.00000000e+00
  0.00000000e+00  0.00000000e+00  0.00000000e+00  0.00000000e+00
  0.00000000e+00  0.00000000e+00 -2.01829946e-08 -2.05897110e-08
  0.00000000e+00  0.00000000e+00  0.00000000e+00  2.32274827e-06]","[[ 2.21238079e-05  1.34301019e-03]
 [-7.45709343e-05  4.68021423e-04]]",[],0.0,0.0
1787145906.0833013,2.1585197729233037,-0.028933726535971472,1.8876282794973624,"[ 2.37433298e-06 -1.62619480e-07  0.00000000e+00  0.00000000e+00
  0.00000000e+00 -4.45073926e-08 -1.62619480e-07  2.97871063e-06
  0.00000000e+00  0.00000000e+00  0.00000000e+00 -1.69442875e-08
  0.00000000e+00  0.00000000e+00  0.00000000e+00  0.00000000e+00
  0.00000000e+00  0.00000000e+00  0.00000000e+00  0.00000000e+00
  0.00000000e+00  0.00000000e+00  0.00000000e+00  0.00000000e+00
  0.00000000e+00  0.00000000e+00  0.00000000e+00  0.00000000e+00
  0.00000000e+00  0.00000000e+00 -4.45073926e-08 -1.69442875e-08
  0.00000000e+00  0.00000000e+00  0.00000000e+00  2.47673551e-06]","[[ 2.15507613e-05  1.32383082e-03]
 [-7.23021045e-05  4.40264036e-04]]",[],0.0,0.0
1787145906.13374,2.1585197729233037,-0.028933726535971472,1.8876282794973624,"[ 2.37433298e-06 -1.62619480e-07  0.00000000e+00  0.00000000e+00
  0.00000000e+00 -4.45073926e-08 -1.62619480e-07  2.97871063e-06
  0.00000000e+00  0.00000000e+00  0.00000000e+00 -1.69442875e-08
  0.00000000e+00  0.00000000e+00  0.00000000e+00  0.00000000e+00
  0.00000000e+00  0.00000000e+00  0.00000000e+00  0.00000000e+00
  0.00000000e+00  0.00000000e+00  0.00000000e+00  0.00000000e+00
  0.00000000e+00  0.00000000e+00  0.00000000e+00  0.00000000e+00
  0.00000000e+00  0.00000000e+00 -4.45073926e-08 -1.69442875e-08
  0.00000000e+00  0.00000000e+00  0.00000000e+00  2.47673551e-06]","[[ 2.15507613e-05  1.32383082e-03]
 [-7.23021045e-05  4.40264036e-04]]",[],0.0,0.0
1787145906.6698065,2.1585197729233037,-0.028933726535971472,1.8876282794973624,"[ 2.37433298e-06 -1.62619480e-07  0.00000000e+00  0.00000000e+00
  0.00000000e+00 -4.45073926e-08 -1.62619480e-07  2.97871063e-06
  0.00000000e+00  0.00000000e+00  0.00000000e+00 -1.69442875e-08
  0.00000000e+00  0.00000000e+00  0.00000000e+00  0.00000000e+00
  0.00000000e+00  0.00000000e+00  0.00000000e+00  0.00000000e+00
  0.00000000e+00  0.00000000e+00  0.00000000e+00  0.00000000e+00
  0.00000000e+00  0.00000000e+00  0.00000000e+00  0.00000000e+00
  0.00000000e+00  0.00000000e+00 -4.45073926e-08 -1.69442875e-08
  0.00000000e+00  0.00000000e+00  0.00000000e+00  2.47673551e-06]","[[ 2.15507613e-05  1.32383082e-03]
 [-7.23021045e-05  4.40264036e-04]]",[],0.0,0.0
1787145906.690571,2.1585197729233037,-0.028933726535971472,1.8876282794973624,"[ 2.37433298e-06 -1.62619480e-07  0.00000000e+00  0.00000000e+00
  0.00000000e+00 -4.45073926e-08 -1.62619480e-07  2.97871063e-06
  0.00000000e+00  0.00000000e+00  0.00000000e+00 -1.69442875e-08
  0.00000000e+00  0.00000000e+00  0.00000000e+00  0.00000000e+00
  0.00000000e+00  0.00000000e+00  0.00000000e+00  0.00000000e+00
  0.00000000e+00  0.00000000e+00  0.00000000e+00  0.00000000e+00
  0.00000000e+00  0.00000000e+00  0.00000000e+00  0.00000000e+00
  0.00000000e+00  0.00000000e+00 -4.45073926e-08 -1.69442875e-08
  0.00000000e+00  0.00000000e+00  0.00000000e+00  2.47673551e-06]","[[ 2.15507613e-05  1.32383082e-03]
 [-7.23021045e-05  4.40264036e-04]]",[],0.0,0.0
1787145906.7356253,2.1588342706682697,-0.029390582833151675,1.8907021619166482,"[ 2.27707472e-06 -1.84376883e-07  0.00000000e+00  0.00000000e+00
  0.00000000e+00 -2.76555088e-08 -1.84376883e-07  2.93349828e-06
  0.00000000e+00  0.00000000e+00  0.00000000e+00 -2.14892420e-08
  0.00000000e+00  0.00000000e+00  0.00000000e+00  0.00000000e+00
  0.00000000e+00  0.00000000e+00  0.00000000e+00  0.00000000e+00
  0.00000000e+00  0.00000000e+00  0.00000000e+00  0.00000000e+00
  0.00000000e+00  0.00000000e+00  0.00000000e+00  0.00000000e+00
  0.00000000e+00  0.00000000e+00 -2.76555088e-08 -2.14892420e-08
  0.00000000e+00  0.00000000e+00  0.00000000e+00  2.58626542e-06]","[[ 2.13415357e-05  1.23982162e-03]
 [-7.13865040e-05  4.28280716e-04]]",[],0.0,0.0
1787145906.7836413,2.1588342706682697,-0.029390582833151675,1.8907021619166482,"[ 2.27707472e-06 -1.84376883e-07  0.00000000e+00  0.00000000e+00
  0.00000000e+00 -2.76555088e-08 -1.84376883e-07  2.93349828e-06
  0.00000000e+00  0.00000000e+00  0.00000000e+00 -2.14892420e-08
  0.00000000e+00  0.00000000e+00  0.00000000e+00  0.00000000e+00
  0.00000000e+00  0.00000000e+00  0.00000000e+00  0.00000000e+00
  0.00000000e+00  0.00000000e+00  0.00000000e+00  0.00000000e+00
  0.00000000e+00  0.00000000e+00  0.00000000e+00  0.00000000e+00
  0.00000000e+00  0.00000000e+00 -2.76555088e-08 -2.14892420e-08
  0.00000000e+00  0.00000000e+00  0.00000000e+00  2.58626542e-06]","[[ 2.13415357e-05  1.23982162e-03]
 [-7.13865040e-05  4.28280716e-04]]",[],0.0,0.0
1787145907.2326043,2.1588342706682697,-0.029390582833151675,1.8907021619166482,"[ 2.27707472e-06 -1.84376883e-07  0.00000000e+00  0.00000000e+00
  0.00000000e+00 -2.76555088e-08 -1.84376883e-07  2.93349828e-06
  0.00000000e+00  0.00000000e+00  0.00000000e+00 -2.14892420e-08
  0.00000000e+00  0.00000000e+00  0.00000000e+00  0.00000000e+00
  0.00000000e+00  0.00000000e+00  0.00000000e+00  0.00000000e+00
  0.00000000e+00  0.00000000e+00  0.00000000e+00  0.00000000e+00
  0.00000000e+00  0.00000000e+00  0.00000000e+00  0.00000000e+00
  0.00000000e+00  0.00000000e+00 -2.76555088e-08 -2.14892420e-08
  0.00000000e+00  0.00000000e+00  0.00000000e+00  2.58626542e-06]","[[ 2.13415357e-05  1.23982162e-03]
 [-7.13865040e-05  4.28280716e-04]]",[],0.0,0.0
1787145907.286115,2.1588342706682697,-0.029390582833151675,1.8907021619166482,"[ 2.27707472e-06 -1.84376883e-07  0.00000000e+00  0.00000000e+00
  0.00000000e+00 -2.76555088e-08 -1.84376883e-07  2.93349828e-06
  0.00000000e+00  0.00000000e+00  0.00000000e+00 -2.14892420e-08
  0.00000000e+00  0.00000000e+00  0.00000000e+00  0.00000000e+00
  0.00000000e+00  0.00000000e+00  0.00000000e+00  0.00000000e+00
  0.00000000e+00  0.00000000e+00  0.00000000e+00  0.00000000e+00
  0.00000000e+00  0.00000000e+00  0.00000000e+00  0.00000000e+00
  0.00000000e+00  0.00000000e+00 -2.76555088e-08 -2.14892420e-08
  0.00000000e+00  0.00000000e+00  0.00000000e+00  2.58626542e-06]","[[ 2.13415357e-05  1.23982162e-03]
 [-7.13865040e-05  4.28280716e-04]]",[],0.0,0.0
1787145907.7953448,2.1588351038495497,-0.02986540224055129,1.9005619644733607,"[ 2.18902658e-06 -1.95388358e-07  0.00000000e+00  0.00000000e+00
  0.00000000e+00 -2.71763286e-08 -1.95388358e-07  2.86203487e-06
  0.00000000e+00  0.00000000e+00  0.00000000e+00 -3.18044661e-08
  0.00000000e+00  0.00000000e+00  0.00000000e+00  0.00000000e+00
  0.00000000e+00  0.00000000e+00  0.00000000e+00  0.00000000e+00
  0.00000000e+00  0.00000000e+00  0.00000000e+00  0.00000000e+00
  0.00000000e+00  0.00000000e+00  0.00000000e+00  0.00000000e+00
  0.00000000e+00  0.00000000e+00 -2.71763286e-08 -3.18044661e-08
  0.00000000e+00  0.00000000e+00  0.00000000e+00  2.54575010e-06]","[[ 2.09521333e-05  1.18958222e-03]
 [-6.97618552e-05  4.27454538e-04]]",[],0.0,0.0
1787145907.83652,2.1588351038495497,-0.02986540224055129,1.9005619644733607,"[ 2.18902658e-06 -1.95388358e-07  0.00000000e+00  0.00000000e+00
  0.00000000e+00 -2.71763286e-08 -1.95388358e-07  2.86203487e-06
  0.00000000e+00  0.00000000e+00  0.00000000e+00 -3.18044661e-08
  0.00000000e+00  0.00000000e+00  0.00000000e+00  0.00000000e+00
  0.00000000e+00  0.00000000e+00  0.00000000e+00  0.00000000e+00
  0.00000000e+00  0.00000000e+00  0.00000000e+00  0.00000000e+00
  0.00000000e+00  0.00000000e+00  0.00000000e+00  0.00000000e+00
  0.00000000e+00  0.00000000e+00 -2.71763286e-08 -3.18044661e-08
  0.00000000e+00  0.00000000e+00  0.00000000e+00  2.54575010e-06]","[[ 2.09521333e-05  1.18958222e-03]
 [-6.97618552e-05  4.27454538e-04]]",[],0.0,0.0
1787145908.3857815,2.1591655521629898,-0.031296468793501564,1.90288999476428,"[ 2.10887481e-06 -2.04685506e-07  0.00000000e+00  0.00000000e+00
  0.00000000e+00 -3.64255911e-08 -2.04685506e-07  2.78643833e-06
  0.00000000e+00  0.00000000e+00  0.00000000e+00 -2.69906402e-08
  0.00000000e+00  0.00000000e+00  0.00000000e+00  0.00000000e+00
  0.00000000e+00  0.00000000e+00  0.00000000e+00  0.00000000e+00
  0.00000000e+00  0.00000000e+00  0.00000000e+00  0.00000000e+00
  0.00000000e+00  0.00000000e+00  0.00000000e+00  0.00000000e+00
  0.00000000e+00  0.00000000e+00 -3.64255911e-08 -2.69906402e-08
  0.00000000e+00  0.00000000e+00  0.00000000e+00  2.49119570e-06]","[[ 2.05752721e-05  1.16006285e-03]
 [-6.80275388e-05  4.01686405e-04]]",[],0.0,0.0
1787145909.0027747,2.1593252831063086,-0.032491713724996624,1.9083128723272809,"[ 2.03646308e-06 -2.19904863e-07  0.00000000e+00  0.00000000e+00
  0.00000000e+00 -2.09075854e-08 -2.19904863e-07  2.73489071e-06
  0.00000000e+00  0.00000000e+00  0.00000000e+00 -3.07173556e-08
  0.00000000e+00  0.00000000e+00  0.00000000e+00  0.00000000e+00
  0.00000000e+00  0.00000000e+00  0.00000000e+00  0.00000000e+00
  0.00000000e+00  0.00000000e+00  0.00000000e+00  0.00000000e+00
  0.00000000e+00  0.00000000e+00  0.00000000e+00  0.00000000e+00
  0.00000000e+00  0.00000000e+00 -2.09075854e-08 -3.07173556e-08
  0.00000000e+00  0.00000000e+00  0.00000000e+00  2.53597945e-06]","[[ 2.03980095e-05  1.09239232e-03]
 [-6.69110367e-05  3.90797784e-04]]",[],0.0,0.0
1787145909.036228,2.1598812899331117,-0.03191309535659844,1.9123510078641237,"[ 1.97072728e-06 -2.34434732e-07  0.00000000e+00  0.00000000e+00
  0.00000000e+00 -2.72447818e-08 -2.34434732e-07  2.69098568e-06
  0.00000000e+00  0.00000000e+00  0.00000000e+00 -2.70759175e-09
  0.00000000e+00  0.00000000e+00  0.00000000e+00  0.00000000e+00
  0.00000000e+00  0.00000000e+00  0.00000000e+00  0.00000000e+00
  0.00000000e+00  0.00000000e+00  0.00000000e+00  0.00000000e+00
  0.00000000e+00  0.00000000e+00  0.00000000e+00  0.00000000e+00
  0.00000000e+00  0.00000000e+00 -2.72447818e-08 -2.70759175e-09
  0.00000000e+00  0.00000000e+00  0.00000000e+00  2.56015801e-06]","[[ 2.03980095e-05  1.09239232e-03]
 [-6.69110367e-05  3.90797784e-04]]",[],0.0,0.0
1787145909.51476,2.1598812899331117,-0.03191309535659844,1.9123510078641237,"[ 1.97072728e-06 -2.34434732e-07  0.00000000e+00  0.00000000e+00
  0.00000000e+00 -2.72447818e-08 -2.34434732e-07  2.69098568e-06
  0.00000000e+00  0.00000000e+00  0.00000000e+00 -2.70759175e-09
  0.00000000e+00  0.00000000e+00  0.00000000e+00  0.00000000e+00
  0.00000000e+00  0.00000000e+00  0.00000000e+00  0.00000000e+00
  0.00000000e+00  0.00000000e+00  0.00000000e+00  0.00000000e+00
  0.00000000e+00  0.00000000e+00  0.00000000e+00  0.00000000e+00
  0.00000000e+00  0.00000000e+00 -2.72447818e-08 -2.70759175e-09
  0.00000000e+00  0.00000000e+00  0.00000000e+00  2.56015801e-06]","[[ 2.02526567e-05  1.06472385e-03]
 [-6.59722170e-05  3.29070043e-04]]",[],0.0,0.0
1787145909.541077,2.1598812899331117,-0.03191309535659844,1.9123510078641237,"[ 1.97072728e-06 -2.34434732e-07  0.00000000e+00  0.00000000e+00
  0.00000000e+00 -2.72447818e-08 -2.34434732e-07  2.69098568e-06
  0.00000000e+00  0.00000000e+00  0.00000000e+00 -2.70759175e-09
  0.00000000e+00  0.00000000e+00  0.00000000e+00  0.00000000e+00
  0.00000000e+00  0.00000000e+00  0.00000000e+00  0.00000000e+00
  0.00000000e+00  0.00000000e+00  0.00000000e+00  0.00000000e+00
  0.00000000e+00  0.00000000e+00  0.00000000e+00  0.00000000e+00
  0.00000000e+00  0.00000000e+00 -2.72447818e-08 -2.70759175e-09
  0.00000000e+00  0.00000000e+00  0.00000000e+00  2.56015801e-06]","[[ 2.02526567e-05  1.06472385e-03]
 [-6.59722170e-05  3.29070043e-04]]",[],0.0,0.0
1787145909.589792,2.160651253131703,-0.03189404703394731,1.9168896974493457,"[ 1.90411139e-06 -2.36832478e-07  0.00000000e+00  0.00000000e+00
  0.00000000e+00 -4.58906721e-08 -2.36832478e-07  2.62266148e-06
  0.00000000e+00  0.00000000e+00  0.00000000e+00 -7.31358177e-09
  0.00000000e+00  0.00000000e+00  0.00000000e+00  0.00000000e+00
  0.00000000e+00  0.00000000e+00  0.00000000e+00  0.00000000e+00
  0.00000000e+00  0.00000000e+00  0.00000000e+00  0.00000000e+00
  0.00000000e+00  0.00000000e+00  0.00000000e+00  0.00000000e+00
  0.00000000e+00  0.00000000e+00 -4.58906721e-08 -7.31358177e-09
  0.00000000e+00  0.00000000e+00  0.00000000e+00  2.41620574e-06]","[[ 1.98248855e-05  1.05939106e-03]
 [-6.43559677e-05  3.24347953e-04]]",[],0.0,0.0
1787145909.6461194,2.160651253131703,-0.03189404703394731,1.9168896974493457,"[ 1.90411139e-06 -2.36832478e-07  0.00000000e+00  0.00000000e+00
  0.00000000e+00 -4.58906721e-08 -2.36832478e-07  2.62266148e-06
  0.00000000e+00  0.00000000e+00  0.00000000e+00 -7.31358177e-09
  0.00000000e+00  0.00000000e+00  0.00000000e+00  0.00000000e+00
  0.00000000e+00  0.00000000e+00  0.00000000e+00  0.00000000e+00
  0.00000000e+00  0.00000000e+00  0.00000000e+00  0.00000000e+00
  0.00000000e+00  0.00000000e+00  0.00000000e+00  0.00000000e+00
  0.00000000e+00  0.00000000e+00 -4.58906721e-08 -7.31358177e-09
  0.00000000e+00  0.00000000e+00  0.00000000e+00  2.41620574e-06]","[[ 1.98248855e-05  1.05939106e-03]
 [-6.43559677e-05  3.24347953e-04]]",[],0.0,0.0
1787145910.1926842,2.160651253131703,-0.03189404703394731,1.9168896974493457,"[ 1.90411139e-06 -2.36832478e-07  0.00000000e+00  0.00000000e+00
  0.00000000e+00 -4.58906721e-08 -2.36832478e-07  2.62266148e-06
  0.00000000e+00  0.00000000e+00  0.00000000e+00 -7.31358177e-09
  0.00000000e+00  0.00000000e+00  0.00000000e+00  0.00000000e+00
  0.00000000e+00  0.00000000e+00  0.00000000e+00  0.00000000e+00
  0.00000000e+00  0.00000000e+00  0.00000000e+00  0.00000000e+00
  0.00000000e+00  0.00000000e+00  0.00000000e+00  0.00000000e+00
  0.00000000e+00  0.00000000e+00 -4.58906721e-08 -7.31358177e-09
  0.00000000e+00  0.00000000e+00  0.00000000e+00  2.41620574e-06]","[[ 1.98248855e-05  1.05939106e-03]
 [-6.43559677e-05  3.24347953e-04]]",[],0.0,0.0
1787145910.687093,2.161302215722436,-0.033318358086281454,1.9197355975071266,"[ 1.85442383e-06 -2.61151334e-07  0.00000000e+00  0.00000000e+00
  0.00000000e+00 -2.89821258e-08 -2.61151334e-07  2.61586258e-06
  0.00000000e+00  0.00000000e+00  0.00000000e+00 -2.15933535e-08
  0.00000000e+00  0.00000000e+00  0.00000000e+00  0.00000000e+00
  0.00000000e+00  0.00000000e+00  0.00000000e+00  0.00000000e+00
  0.00000000e+00  0.00000000e+00  0.00000000e+00  0.00000000e+00
  0.00000000e+00  0.00000000e+00  0.00000000e+00  0.00000000e+00
  0.00000000e+00  0.00000000e+00 -2.89821258e-08 -2.15933535e-08
  0.00000000e+00  0.00000000e+00  0.00000000e+00  2.69530516e-06]","[[ 2.23202905e-05  9.57393260e-04]
 [-6.35541447e-05  4.05627270e-04]]",[],0.0,0.0
1787145910.7339594,2.161302215722436,-0.033318358086281454,1.9197355975071266,"[ 1.85442383e-06 -2.61151334e-07  0.00000000e+00  0.00000000e+00
  0.00000000e+00 -2.89821258e-08 -2.61151334e-07  2.61586258e-06
  0.00000000e+00  0.00000000e+00  0.00000000e+00 -2.15933535e-08
  0.00000000e+00  0.00000000e+00  0.00000000e+00  0.00000000e+00
  0.00000000e+00  0.00000000e+00  0.00000000e+00  0.00000000e+00
  0.00000000e+00  0.00000000e+00  0.00000000e+00  0.00000000e+00
  0.00000000e+00  0.00000000e+00  0.00000000e+00  0.00000000e+00
  0.00000000e+00  0.00000000e+00 -2.89821258e-08 -2.15933535e-08
  0.00000000e+00  0.00000000e+00  0.00000000e+00  2.69530516e-06]","[[ 2.23202905e-05  9.57393260e-04]
 [-6.35541447e-05  4.05627270e-04]]",[],0.0,0.0
1787145910.7869997,2.162223277116082,-0.03448809899529897,1.9194288052724762,"[ 1.79537201e-06 -2.63524948e-07  0.00000000e+00  0.00000000e+00
  0.00000000e+00 -3.18462593e-08 -2.63524948e-07  2.55506323e-06
  0.00000000e+00  0.00000000e+00  0.00000000e+00 -6.87185430e-09
  0.00000000e+00  0.00000000e+00  0.00000000e+00  0.00000000e+00
  0.00000000e+00  0.00000000e+00  0.00000000e+00  0.00000000e+00
  0.00000000e+00  0.00000000e+00  0.00000000e+00  0.00000000e+00
  0.00000000e+00  0.00000000e+00  0.00000000e+00  0.00000000e+00
  0.00000000e+00  0.00000000e+00 -3.18462593e-08 -6.87185430e-09
  0.00000000e+00  0.00000000e+00  0.00000000e+00  2.40111494e-06]","[[ 1.96656174e-05  9.72563603e-04]
 [-6.29372600e-05  2.98225628e-04]]",[],0.0,0.0
1787145910.832987,2.162223277116082,-0.03448809899529897,1.9194288052724762,"[ 1.79537201e-06 -2.63524948e-07  0.00000000e+00  0.00000000e+00
  0.00000000e+00 -3.18462593e-08 -2.63524948e-07  2.55506323e-06
  0.00000000e+00  0.00000000e+00  0.00000000e+00 -6.87185430e-09
  0.00000000e+00  0.00000000e+00  0.00000000e+00  0.00000000e+00
  0.00000000e+00  0.00000000e+00  0.00000000e+00  0.00000000e+00
  0.00000000e+00  0.00000000e+00  0.00000000e+00  0.00000000e+00
  0.00000000e+00  0.00000000e+00  0.00000000e+00  0.00000000e+00
  0.00000000e+00  0.00000000e+00 -3.18462593e-08 -6.87185430e-09
  0.00000000e+00  0.00000000e+00  0.00000000e+00  2.40111494e-06]","[[ 1.96656174e-05  9.72563603e-04]
 [-6.29372600e-05  2.98225628e-04]]",[],0.0,0.0
1787145911.3194168,2.162223277116082,-0.03448809899529897,1.9194288052724762,"[ 1.79537201e-06 -2.63524948e-07  0.00000000e+00  0.00000000e+00
  0.00000000e+00 -3.18462593e-08 -2.63524948e-07  2.55506323e-06
  0.00000000e+00  0.00000000e+00  0.00000000e+00 -6.87185430e-09
  0.00000000e+00  0.00000000e+00  0.00000000e+00  0.00000000e+00
  0.00000000e+00  0.00000000e+00  0.00000000e+00  0.00000000e+00
  0.00000000e+00  0.00000000e+00  0.00000000e+00  0.00000000e+00
  0.00000000e+00  0.00000000e+00  0.00000000e+00  0.00000000e+00
  0.00000000e+00  0.00000000e+00 -3.18462593e-08 -6.87185430e-09
  0.00000000e+00  0.00000000e+00  0.00000000e+00  2.40111494e-06]","[[ 1.96656174e-05  9.72563603e-04]
 [-6.29372600e-05  2.98225628e-04]]",[],0.0,0.0
1787145911.337012,2.162223277116082,-0.03448809899529897,1.9194288052724762,"[ 1.79537201e-06 -2.63524948e-07  0.00000000e+00  0.00000000e+00
  0.00000000e+00 -3.18462593e-08 -2.63524948e-07  2.55506323e-06
  0.00000000e+00  0.00000000e+00  0.00000000e+00 -6.87185430e-09
  0.00000000e+00  0.00000000e+00  0.00000000e+00  0.00000000e+00
  0.00000000e+00  0.00000000e+00  0.00000000e+00  0.00000000e+00
  0.00000000e+00  0.00000000e+00  0.00000000e+00  0.00000000e+00
  0.00000000e+00  0.00000000e+00  0.00000000e+00  0.00000000e+00
  0.00000000e+00  0.00000000e+00 -3.18462593e-08 -6.87185430e-09
  0.00000000e+00  0.00000000e+00  0.00000000e+00  2.40111494e-06]","[[ 1.96656174e-05  9.72563603e-04]
 [-6.29372600e-05  2.98225628e-04]]",[],0.0,0.0
1787145911.4298978,2.1626952708555423,-0.03609978824455883,1.919381597789763,"[ 1.74526733e-06 -2.78151254e-07  0.00000000e+00  0.00000000e+00
  0.00000000e+00 -1.95339402e-08 -2.78151254e-07  2.53259130e-06
  0.00000000e+00  0.00000000e+00  0.00000000e+00 -3.68577380e-09
  0.00000000e+00  0.00000000e+00  0.00000000e+00  0.00000000e+00
  0.00000000e+00  0.00000000e+00  0.00000000e+00  0.00000000e+00
  0.00000000e+00  0.00000000e+00  0.00000000e+00  0.00000000e+00
  0.00000000e+00  0.00000000e+00  0.00000000e+00  0.00000000e+00
  0.00000000e+00  0.00000000e+00 -1.95339402e-08 -3.68577380e-09
  0.00000000e+00  0.00000000e+00  0.00000000e+00  2.55684758e-06]","[[ 1.96484787e-05  9.22341200e-04]
 [-6.25077615e-05  2.81457836e-04]]",[],0.0,0.0
1787145911.4359922,2.1626952708555423,-0.03609978824455883,1.919381597789763,"[ 1.74526733e-06 -2.78151254e-07  0.00000000e+00  0.00000000e+00
  0.00000000e+00 -1.95339402e-08 -2.78151254e-07  2.53259130e-06
  0.00000000e+00  0.00000000e+00  0.00000000e+00 -3.68577380e-09
  0.00000000e+00  0.00000000e+00  0.00000000e+00  0.00000000e+00
  0.00000000e+00  0.00000000e+00  0.00000000e+00  0.00000000e+00
  0.00000000e+00  0.00000000e+00  0.00000000e+00  0.00000000e+00
  0.00000000e+00  0.00000000e+00  0.00000000e+00  0.00000000e+00
  0.00000000e+00  0.00000000e+00 -1.95339402e-08 -3.68577380e-09
  0.00000000e+00  0.00000000e+00  0.00000000e+00  2.55684758e-06]","[[ 1.96484787e-05  9.22341200e-04]
 [-6.25077615e-05  2.81457836e-04]]",[],0.0,0.0
1787145911.9792254,2.1626952708555423,-0.03609978824455883,1.919381597789763,"[ 1.74526733e-06 -2.78151254e-07  0.00000000e+00  0.00000000e+00
  0.00000000e+00 -1.95339402e-08 -2.78151254e-07  2.53259130e-06
  0.00000000e+00  0.00000000e+00  0.00000000e+00 -3.68577380e-09
  0.00000000e+00  0.00000000e+00  0.00000000e+00  0.00000000e+00
  0.00000000e+00  0.00000000e+00  0.00000000e+00  0.00000000e+00
  0.00000000e+00  0.00000000e+00  0.00000000e+00  0.00000000e+00
  0.00000000e+00  0.00000000e+00  0.00000000e+00  0.00000000e+00
  0.00000000e+00  0.00000000e+00 -1.95339402e-08 -3.68577380e-09
  0.00000000e+00  0.00000000e+00  0.00000000e+00  2.55684758e-06]","[[ 1.96484787e-05  9.22341200e-04]
 [-6.25077615e-05  2.81457836e-04]]",[],0.0,0.0
1787145911.9867742,2.1626952708555423,-0.03609978824455883,1.919381597789763,"[ 1.74526733e-06 -2.78151254e-07  0.00000000e+00  0.00000000e+00
  0.00000000e+00 -1.95339402e-08 -2.78151254e-07  2.53259130e-06
  0.00000000e+00  0.00000000e+00  0.00000000e+00 -3.68577380e-09
  0.00000000e+00  0.00000000e+00  0.00000000e+00  0.00000000e+00
  0.00000000e+00  0.00000000e+00  0.00000000e+00  0.00000000e+00
  0.00000000e+00  0.00000000e+00  0.00000000e+00  0.00000000e+00
  0.00000000e+00  0.00000000e+00  0.00000000e+00  0.00000000e+00
  0.00000000e+00  0.00000000e+00 -1.95339402e-08 -3.68577380e-09
  0.00000000e+00  0.00000000e+00  0.00000000e+00  2.55684758e-06]","[[ 1.96484787e-05  9.22341200e-04]
 [-6.25077615e-05  2.81457836e-04]]",[],0.0,0.0
1787145912.501289,2.162883295648128,-0.03731311866050343,1.920422709163006,"[ 1.70086809e-06 -2.97335063e-07  0.00000000e+00  0.00000000e+00
  0.00000000e+00 -3.26537431e-08 -2.97335063e-07  2.52333565e-06
  0.00000000e+00  0.00000000e+00  0.00000000e+00 -1.16842746e-08
  0.00000000e+00  0.00000000e+00  0.00000000e+00  0.00000000e+00
  0.00000000e+00  0.00000000e+00  0.00000000e+00  0.00000000e+00
  0.00000000e+00  0.00000000e+00  0.00000000e+00  0.00000000e+00
  0.00000000e+00  0.00000000e+00  0.00000000e+00  0.00000000e+00
  0.00000000e+00  0.00000000e+00 -3.26537431e-08 -1.16842746e-08
  0.00000000e+00  0.00000000e+00  0.00000000e+00  2.59597932e-06]","[[ 1.97748622e-05  9.16508118e-04]
 [-6.24300344e-05  2.82674870e-04]]",[],0.0,0.0
1787145912.9681172,2.1630839715429473,-0.03866908292012474,1.9257400469869639,"[ 1.65309189e-06 -2.99176410e-07  0.00000000e+00  0.00000000e+00
  0.00000000e+00 -2.82157229e-08 -2.99176410e-07  2.47478318e-06
  0.00000000e+00  0.00000000e+00  0.00000000e+00 -1.32053571e-08
  0.00000000e+00  0.00000000e+00  0.00000000e+00  0.00000000e+00
  0.00000000e+00  0.00000000e+00  0.00000000e+00  0.00000000e+00
  0.00000000e+00  0.00000000e+00  0.00000000e+00  0.00000000e+00
  0.00000000e+00  0.00000000e+00  0.00000000e+00  0.00000000e+00
  0.00000000e+00  0.00000000e+00 -2.82157229e-08 -1.32053571e-08
  0.00000000e+00  0.00000000e+00  0.00000000e+00  2.43876832e-06]","[[ 1.94603341e-05  8.82914705e-04]
 [-6.12858713e-05  2.75876992e-04]]",[],0.0,0.0
1787145912.9986367,2.1630839715429473,-0.03866908292012474,1.9257400469869639,"[ 1.65309189e-06 -2.99176410e-07  0.00000000e+00  0.00000000e+00
  0.00000000e+00 -2.82157229e-08 -2.99176410e-07  2.47478318e-06
  0.00000000e+00  0.00000000e+00  0.00000000e+00 -1.32053571e-08
  0.00000000e+00  0.00000000e+00  0.00000000e+00  0.00000000e+00
  0.00000000e+00  0.00000000e+00  0.00000000e+00  0.00000000e+00
  0.00000000e+00  0.00000000e+00  0.00000000e+00  0.00000000e+00
  0.00000000e+00  0.00000000e+00  0.00000000e+00  0.00000000e+00
  0.00000000e+00  0.00000000e+00 -2.82157229e-08 -1.32053571e-08
  0.00000000e+00  0.00000000e+00  0.00000000e+00  2.43876832e-06]","[[ 1.94603341e-05  8.82914705e-04]
 [-6.12858713e-05  2.75876992e-04]]",[],0.0,0.0
1787145913.4920676,2.163527221332931,-0.04013046414933848,1.9248539461065057,"[ 1.60954608e-06 -2.95558824e-07  0.00000000e+00  0.00000000e+00
  0.00000000e+00 -3.15043931e-08 -2.95558824e-07  2.41590376e-06
  0.00000000e+00  0.00000000e+00  0.00000000e+00  3.56608899e-09
  0.00000000e+00  0.00000000e+00  0.00000000e+00  0.00000000e+00
  0.00000000e+00  0.00000000e+00  0.00000000e+00  0.00000000e+00
  0.00000000e+00  0.00000000e+00  0.00000000e+00  0.00000000e+00
  0.00000000e+00  0.00000000e+00  0.00000000e+00  0.00000000e+00
  0.00000000e+00  0.00000000e+00 -3.15043931e-08  3.56608899e-09
  0.00000000e+00  0.00000000e+00  0.00000000e+00  2.32796565e-06]","[[ 1.90468312e-05  8.65268661e-04]
 [-5.98546533e-05  2.40006307e-04]]",[],0.0,0.0
1787145913.5357628,2.163881848505403,-0.04138910170543487,1.9214836505076764,"[ 1.56887670e-06 -2.99621152e-07  0.00000000e+00  0.00000000e+00
  0.00000000e+00 -2.89401147e-08 -2.99621152e-07  2.37969833e-06
  0.00000000e+00  0.00000000e+00  0.00000000e+00  4.74161976e-09
  0.00000000e+00  0.00000000e+00  0.00000000e+00  0.00000000e+00
  0.00000000e+00  0.00000000e+00  0.00000000e+00  0.00000000e+00
  0.00000000e+00  0.00000000e+00  0.00000000e+00  0.00000000e+00
  0.00000000e+00  0.00000000e+00  0.00000000e+00  0.00000000e+00
  0.00000000e+00  0.00000000e+00 -2.89401147e-08  4.74161976e-09
  0.00000000e+00  0.00000000e+00  0.00000000e+00  2.43848990e-06]","[[ 1.88405713e-05  8.38143238e-04]
 [-5.90209755e-05  2.29697012e-04]]",[],0.0,0.0
1787145913.5880604,2.163881848505403,-0.04138910170543487,1.9214836505076764,"[ 1.56887670e-06 -2.99621152e-07  0.00000000e+00  0.00000000e+00
  0.00000000e+00 -2.89401147e-08 -2.99621152e-07  2.37969833e-06
  0.00000000e+00  0.00000000e+00  0.00000000e+00  4.74161976e-09
  0.00000000e+00  0.00000000e+00  0.00000000e+00  0.00000000e+00
  0.00000000e+00  0.00000000e+00  0.00000000e+00  0.00000000e+00
  0.00000000e+00  0.00000000e+00  0.00000000e+00  0.00000000e+00
  0.00000000e+00  0.00000000e+00  0.00000000e+00  0.00000000e+00
  0.00000000e+00  0.00000000e+00 -2.89401147e-08  4.74161976e-09
  0.00000000e+00  0.00000000e+00  0.00000000e+00  2.43848990e-06]","[[ 1.88405713e-05  8.38143238e-04]
 [-5.90209755e-05  2.29697012e-04]]",[],0.0,0.0
1787145914.0262084,2.163881848505403,-0.04138910170543487,1.9214836505076764,"[ 1.56887670e-06 -2.99621152e-07  0.00000000e+00  0.00000000e+00
  0.00000000e+00 -2.89401147e-08 -2.99621152e-07  2.37969833e-06
  0.00000000e+00  0.00000000e+00  0.00000000e+00  4.74161976e-09
  0.00000000e+00  0.00000000e+00  0.00000000e+00  0.00000000e+00
  0.00000000e+00  0.00000000e+00  0.00000000e+00  0.00000000e+00
  0.00000000e+00  0.00000000e+00  0.00000000e+00  0.00000000e+00
  0.00000000e+00  0.00000000e+00  0.00000000e+00  0.00000000e+00
  0.00000000e+00  0.00000000e+00 -2.89401147e-08  4.74161976e-09
  0.00000000e+00  0.00000000e+00  0.00000000e+00  2.43848990e-06]","[[ 1.88405713e-05  8.38143238e-04]
 [-5.90209755e-05  2.29697012e-04]]",[],0.0,0.0
1787145914.033606,2.163881848505403,-0.04138910170543487,1.9214836505076764,"[ 1.56887670e-06 -2.99621152e-07  0.00000000e+00  0.00000000e+00
  0.00000000e+00 -2.89401147e-08 -2.99621152e-07  2.37969833e-06
  0.00000000e+00  0.00000000e+00  0.00000000e+00  4.74161976e-09
  0.00000000e+00  0.00000000e+00  0.00000000e+00  0.00000000e+00
  0.00000000e+00  0.00000000e+00  0.00000000e+00  0.00000000e+00
  0.00000000e+00  0.00000000e+00  0.00000000e+00  0.00000000e+00
  0.00000000e+00  0.00000000e+00  0.00000000e+00  0.00000000e+00
  0.00000000e+00  0.00000000e+00 -2.89401147e-08  4.74161976e-09
  0.00000000e+00  0.00000000e+00  0.00000000e+00  2.43848990e-06]","[[ 1.88405713e-05  8.38143238e-04]
 [-5.90209755e-05  2.29697012e-04]]",[],0.0,0.0
1787145914.0837693,2.1638925404368745,-0.04293349382029926,1.9158719304352765,"[ 1.53064175e-06 -3.03809092e-07  0.00000000e+00  0.00000000e+00
  0.00000000e+00 -2.21631728e-08 -3.03809092e-07  2.34965874e-06
  0.00000000e+00  0.00000000e+00  0.00000000e+00 -5.01283993e-09
  0.00000000e+00  0.00000000e+00  0.00000000e+00  0.00000000e+00
  0.00000000e+00  0.00000000e+00  0.00000000e+00  0.00000000e+00
  0.00000000e+00  0.00000000e+00  0.00000000e+00  0.00000000e+00
  0.00000000e+00  0.00000000e+00  0.00000000e+00  0.00000000e+00
  0.00000000e+00  0.00000000e+00 -2.21631728e-08 -5.01283993e-09
  0.00000000e+00  0.00000000e+00  0.00000000e+00  2.47643282e-06]","[[ 2.04871705e-05  7.67878281e-04]
 [-5.76927846e-05  3.03609751e-04]]",[],0.0,0.0
1787145914.1358426,2.1638925404368745,-0.04293349382029926,1.9158719304352765,"[ 1.53064175e-06 -3.03809092e-07  0.00000000e+00  0.00000000e+00
  0.00000000e+00 -2.21631728e-08 -3.03809092e-07  2.34965874e-06
  0.00000000e+00  0.00000000e+00  0.00000000e+00 -5.01283993e-09
  0.00000000e+00  0.00000000e+00  0.00000000e+00  0.00000000e+00
  0.00000000e+00  0.00000000e+00  0.00000000e+00  0.00000000e+00
  0.00000000e+00  0.00000000e+00  0.00000000e+00  0.00000000e+00
  0.00000000e+00  0.00000000e+00  0.00000000e+00  0.00000000e+00
  0.00000000e+00  0.00000000e+00 -2.21631728e-08 -5.01283993e-09
  0.00000000e+00  0.00000000e+00  0.00000000e+00  2.47643282e-06]","[[ 2.04871705e-05  7.67878281e-04]
 [-5.76927846e-05  3.03609751e-04]]",[],0.0,0.0
1787145914.184393,2.1638925404368745,-0.04293349382029926,1.9158719304352765,"[ 1.53064175e-06 -3.03809092e-07  0.00000000e+00  0.00000000e+00
  0.00000000e+00 -2.21631728e-08 -3.03809092e-07  2.34965874e-06
  0.00000000e+00  0.00000000e+00  0.00000000e+00 -5.01283993e-09
  0.00000000e+00  0.00000000e+00  0.00000000e+00  0.00000000e+00
  0.00000000e+00  0.00000000e+00  0.00000000e+00  0.00000000e+00
  0.00000000e+00  0.00000000e+00  0.00000000e+00  0.00000000e+00
  0.00000000e+00  0.00000000e+00  0.00000000e+00  0.00000000e+00
  0.00000000e+00  0.00000000e+00 -2.21631728e-08 -5.01283993e-09
  0.00000000e+00  0.00000000e+00  0.00000000e+00  2.47643282e-06]","[[ 2.04871705e-05  7.67878281e-04]
 [-5.76927846e-05  3.03609751e-04]]",[],0.0,0.0
1787145914.2347915,2.1638925404368745,-0.04293349382029926,1.9158719304352765,"[ 1.53064175e-06 -3.03809092e-07  0.00000000e+00  0.00000000e+00
  0.00000000e+00 -2.21631728e-08 -3.03809092e-07  2.34965874e-06
  0.00000000e+00  0.00000000e+00  0.00000000e+00 -5.01283993e-09
  0.00000000e+00  0.00000000e+00  0.00000000e+00  0.00000000e+00
  0.00000000e+00  0.00000000e+00  0.00000000e+00  0.00000000e+00
  0.00000000e+00  0.00000000e+00  0.00000000e+00  0.00000000e+00
  0.00000000e+00  0.00000000e+00  0.00000000e+00  0.00000000e+00
  0.00000000e+00  0.00000000e+00 -2.21631728e-08 -5.01283993e-09
  0.00000000e+00  0.00000000e+00  0.00000000e+00  2.47643282e-06]","[[ 2.04871705e-05  7.67878281e-04]
 [-5.76927846e-05  3.03609751e-04]]",[],0.0,0.0
1787145914.284605,2.1638925404368745,-0.04293349382029926,1.9158719304352765,"[ 1.53064175e-06 -3.03809092e-07  0.00000000e+00  0.00000000e+00
  0.00000000e+00 -2.21631728e-08 -3.03809092e-07  2.34965874e-06
  0.00000000e+00  0.00000000e+00  0.00000000e+00 -5.01283993e-09
  0.00000000e+00  0.00000000e+00  0.00000000e+00  0.00000000e+00
  0.00000000e+00  0.00000000e+00  0.00000000e+00  0.00000000e+00
  0.00000000e+00  0.00000000e+00  0.00000000e+00  0.00000000e+00
  0.00000000e+00  0.00000000e+00  0.00000000e+00  0.00000000e+00
  0.00000000e+00  0.00000000e+00 -2.21631728e-08 -5.01283993e-09
  0.00000000e+00  0.00000000e+00  0.00000000e+00  2.47643282e-06]","[[ 2.04871705e-05  7.67878281e-04]
 [-5.76927846e-05  3.03609751e-04]]",[],0.0,0.0
1787145914.3335862,2.1638925404368745,-0.04293349382029926,1.9158719304352765,"[ 1.53064175e-06 -3.03809092e-07  0.00000000e+00  0.00000000e+00
  0.00000000e+00 -2.21631728e-08 -3.03809092e-07  2.34965874e-06
  0.00000000e+00  0.00000000e+00  0.00000000e+00 -5.01283993e-09
  0.00000000e+00  0.00000000e+00  0.00000000e+00  0.00000000e+00
  0.00000000e+00  0.00000000e+00  0.00000000e+00  0.00000000e+00
  0.00000000e+00  0.00000000e+00  0.00000000e+00  0.00000000e+00
  0.00000000e+00  0.00000000e+00  0.00000000e+00  0.00000000e+00
  0.00000000e+00  0.00000000e+00 -2.21631728e-08 -5.01283993e-09
  0.00000000e+00  0.00000000e+00  0.00000000e+00  2.47643282e-06]","[[ 2.04871705e-05  7.67878281e-04]
 [-5.76927846e-05  3.03609751e-04]]",[],0.0,0.0
1787145914.3857803,2.1638925404368745,-0.04293349382029926,1.9158719304352765,"[ 1.53064175e-06 -3.03809092e-07  0.00000000e+00  0.00000000e+00
  0.00000000e+00 -2.21631728e-08 -3.03809092e-07  2.34965874e-06
  0.00000000e+00  0.00000000e+00  0.00000000e+00 -5.01283993e-09
  0.00000000e+00  0.00000000e+00  0.00000000e+00  0.00000000e+00
  0.00000000e+00  0.00000000e+00  0.00000000e+00  0.00000000e+00
  0.00000000e+00  0.00000000e+00  0.00000000e+00  0.00000000e+00
  0.00000000e+00  0.00000000e+00  0.00000000e+00  0.00000000e+00
  0.00000000e+00  0.00000000e+00 -2.21631728e-08 -5.01283993e-09
  0.00000000e+00  0.00000000e+00  0.00000000e+00  2.47643282e-06]","[[ 2.04871705e-05  7.67878281e-04]
 [-5.76927846e-05  3.03609751e-04]]",[],0.0,0.0
1787145914.4356706,2.1638925404368745,-0.04293349382029926,1.9158719304352765,"[ 1.53064175e-06 -3.03809092e-07  0.00000000e+00  0.00000000e+00
  0.00000000e+00 -2.21631728e-08 -3.03809092e-07  2.34965874e-06
  0.00000000e+00  0.00000000e+00  0.00000000e+00 -5.01283993e-09
  0.00000000e+00  0.00000000e+00  0.00000000e+00  0.00000000e+00
  0.00000000e+00  0.00000000e+00  0.00000000e+00  0.00000000e+00
  0.00000000e+00  0.00000000e+00  0.00000000e+00  0.00000000e+00
  0.00000000e+00  0.00000000e+00  0.00000000e+00  0.00000000e+00
  0.00000000e+00  0.00000000e+00 -2.21631728e-08 -5.01283993e-09
  0.00000000e+00  0.00000000e+00  0.00000000e+00  2.47643282e-06]","[[ 2.04871705e-05  7.67878281e-04]
 [-5.76927846e-05  3.03609751e-04]]",[],0.0,0.0
1787145914.4846334,2.1638925404368745,-0.04293349382029926,1.9158719304352765,"[ 1.53064175e-06 -3.03809092e-07  0.00000000e+00  0.00000000e+00
  0.00000000e+00 -2.21631728e-08 -3.03809092e-07  2.34965874e-06
  0.00000000e+00  0.00000000e+00  0.00000000e+00 -5.01283993e-09
  0.00000000e+00  0.00000000e+00  0.00000000e+00  0.00000000e+00
  0.00000000e+00  0.00000000e+00  0.00000000e+00  0.00000000e+00
  0.00000000e+00  0.00000000e+00  0.00000000e+00  0.00000000e+00
  0.00000000e+00  0.00000000e+00  0.00000000e+00  0.00000000e+00
  0.00000000e+00  0.00000000e+00 -2.21631728e-08 -5.01283993e-09
  0.00000000e+00  0.00000000e+00  0.00000000e+00  2.47643282e-06]","[[ 2.04871705e-05  7.67878281e-04]
 [-5.76927846e-05  3.03609751e-04]]",[],0.0,0.0
1787145914.5391104,2.1638925404368745,-0.04293349382029926,1.9158719304352765,"[ 1.53064175e-06 -3.03809092e-07  0.00000000e+00  0.00000000e+00
  0.00000000e+00 -2.21631728e-08 -3.03809092e-07  2.34965874e-06
  0.00000000e+00  0.00000000e+00  0.00000000e+00 -5.01283993e-09
  0.00000000e+00  0.00000000e+00  0.00000000e+00  0.00000000e+00
  0.00000000e+00  0.00000000e+00  0.00000000e+00  0.00000000e+00
  0.00000000e+00  0.00000000e+00  0.00000000e+00  0.00000000e+00
  0.00000000e+00  0.00000000e+00  0.00000000e+00  0.00000000e+00
  0.00000000e+00  0.00000000e+00 -2.21631728e-08 -5.01283993e-09
  0.00000000e+00  0.00000000e+00  0.00000000e+00  2.47643282e-06]","[[ 2.04871705e-05  7.67878281e-04]
 [-5.76927846e-05  3.03609751e-04]]",[],0.0,0.0
1787145914.5836508,2.1638925404368745,-0.04293349382029926,1.9158719304352765,"[ 1.53064175e-06 -3.03809092e-07  0.00000000e+00  0.00000000e+00
  0.00000000e+00 -2.21631728e-08 -3.03809092e-07  2.34965874e-06
  0.00000000e+00  0.00000000e+00  0.00000000e+00 -5.01283993e-09
  0.00000000e+00  0.00000000e+00  0.00000000e+00  0.00000000e+00
  0.00000000e+00  0.00000000e+00  0.00000000e+00  0.00000000e+00
  0.00000000e+00  0.00000000e+00  0.00000000e+00  0.00000000e+00
  0.00000000e+00  0.00000000e+00  0.00000000e+00  0.00000000e+00
  0.00000000e+00  0.00000000e+00 -2.21631728e-08 -5.01283993e-09
  0.00000000e+00  0.00000000e+00  0.00000000e+00  2.47643282e-06]","[[ 2.04871705e-05  7.67878281e-04]
 [-5.76927846e-05  3.03609751e-04]]",[],0.0,0.0
1787145914.6355507,2.1638925404368745,-0.04293349382029926,1.9158719304352765,"[ 1.53064175e-06 -3.03809092e-07  0.00000000e+00  0.00000000e+00
  0.00000000e+00 -2.21631728e-08 -3.03809092e-07  2.34965874e-06
  0.00000000e+00  0.00000000e+00  0.00000000e+00 -5.01283993e-09
  0.00000000e+00  0.00000000e+00  0.00000000e+00  0.00000000e+00
  0.00000000e+00  0.00000000e+00  0.00000000e+00  0.00000000e+00
  0.00000000e+00  0.00000000e+00  0.00000000e+00  0.00000000e+00
  0.00000000e+00  0.00000000e+00  0.00000000e+00  0.00000000e+00
  0.00000000e+00  0.00000000e+00 -2.21631728e-08 -5.01283993e-09
  0.00000000e+00  0.00000000e+00  0.00000000e+00  2.47643282e-06]","[[ 2.04871705e-05  7.67878281e-04]
 [-5.76927846e-05  3.03609751e-04]]",[],0.0,0.0
1787145914.6835833,2.1638925404368745,-0.04293349382029926,1.9158719304352765,"[ 1.53064175e-06 -3.03809092e-07  0.00000000e+00  0.00000000e+00
  0.00000000e+00 -2.21631728e-08 -3.03809092e-07  2.34965874e-06
  0.00000000e+00  0.00000000e+00  0.00000000e+00 -5.01283993e-09
  0.00000000e+00  0.00000000e+00  0.00000000e+00  0.00000000e+00
  0.00000000e+00  0.00000000e+00  0.00000000e+00  0.00000000e+00
  0.00000000e+00  0.00000000e+00  0.00000000e+00  0.00000000e+00
  0.00000000e+00  0.00000000e+00  0.00000000e+00  0.00000000e+00
  0.00000000e+00  0.00000000e+00 -2.21631728e-08 -5.01283993e-09
  0.00000000e+00  0.00000000e+00  0.00000000e+00  2.47643282e-06]","[[ 2.04871705e-05  7.67878281e-04]
 [-5.76927846e-05  3.03609751e-04]]",[],0.0,0.0
1787145914.7354739,2.1638925404368745,-0.04293349382029926,1.9158719304352765,"[ 1.53064175e-06 -3.03809092e-07  0.00000000e+00  0.00000000e+00
  0.00000000e+00 -2.21631728e-08 -3.03809092e-07  2.34965874e-06
  0.00000000e+00  0.00000000e+00  0.00000000e+00 -5.01283993e-09
  0.00000000e+00  0.00000000e+00  0.00000000e+00  0.00000000e+00
  0.00000000e+00  0.00000000e+00  0.00000000e+00  0.00000000e+00
  0.00000000e+00  0.00000000e+00  0.00000000e+00  0.00000000e+00
  0.00000000e+00  0.00000000e+00  0.00000000e+00  0.00000000e+00
  0.00000000e+00  0.00000000e+00 -2.21631728e-08 -5.01283993e-09
  0.00000000e+00  0.00000000e+00  0.00000000e+00  2.47643282e-06]","[[ 2.04871705e-05  7.67878281e-04]
 [-5.76927846e-05  3.03609751e-04]]",[],0.0,0.0
1787145914.7860365,2.1638925404368745,-0.04293349382029926,1.9158719304352765,"[ 1.53064175e-06 -3.03809092e-07  0.00000000e+00  0.00000000e+00
  0.00000000e+00 -2.21631728e-08 -3.03809092e-07  2.34965874e-06
  0.00000000e+00  0.00000000e+00  0.00000000e+00 -5.01283993e-09
  0.00000000e+00  0.00000000e+00  0.00000000e+00  0.00000000e+00
  0.00000000e+00  0.00000000e+00  0.00000000e+00  0.00000000e+00
  0.00000000e+00  0.00000000e+00  0.00000000e+00  0.00000000e+00
  0.00000000e+00  0.00000000e+00  0.00000000e+00  0.00000000e+00
  0.00000000e+00  0.00000000e+00 -2.21631728e-08 -5.01283993e-09
  0.00000000e+00  0.00000000e+00  0.00000000e+00  2.47643282e-06]","[[ 2.04871705e-05  7.67878281e-04]
 [-5.76927846e-05  3.03609751e-04]]",[],0.0,0.0
1787145914.8432765,2.164146758809498,-0.0439364700005985,1.9137150331088817,"[ 1.50351013e-06 -3.39007034e-07  0.00000000e+00  0.00000000e+00
  0.00000000e+00 -2.10746544e-08 -3.39007034e-07  2.40479800e-06
  0.00000000e+00  0.00000000e+00  0.00000000e+00 -5.06162033e-09
  0.00000000e+00  0.00000000e+00  0.00000000e+00  0.00000000e+00
  0.00000000e+00  0.00000000e+00  0.00000000e+00  0.00000000e+00
  0.00000000e+00  0.00000000e+00  0.00000000e+00  0.00000000e+00
  0.00000000e+00  0.00000000e+00  0.00000000e+00  0.00000000e+00
  0.00000000e+00  0.00000000e+00 -2.10746544e-08 -5.06162033e-09
  0.00000000e+00  0.00000000e+00  0.00000000e+00  2.66879929e-06]","[[ 1.92878798e-05  7.82896212e-04]
 [-5.99150515e-05  2.28582108e-04]]",[],0.0,0.0
1787145914.8886352,2.164146758809498,-0.0439364700005985,1.9137150331088817,"[ 1.50351013e-06 -3.39007034e-07  0.00000000e+00  0.00000000e+00
  0.00000000e+00 -2.10746544e-08 -3.39007034e-07  2.40479800e-06
  0.00000000e+00  0.00000000e+00  0.00000000e+00 -5.06162033e-09
  0.00000000e+00  0.00000000e+00  0.00000000e+00  0.00000000e+00
  0.00000000e+00  0.00000000e+00  0.00000000e+00  0.00000000e+00
  0.00000000e+00  0.00000000e+00  0.00000000e+00  0.00000000e+00
  0.00000000e+00  0.00000000e+00  0.00000000e+00  0.00000000e+00
  0.00000000e+00  0.00000000e+00 -2.10746544e-08 -5.06162033e-09
  0.00000000e+00  0.00000000e+00  0.00000000e+00  2.66879929e-06]","[[ 1.92878798e-05  7.82896212e-04]
 [-5.99150515e-05  2.28582108e-04]]",[],0.0,0.0
1787145914.9380102,2.164146758809498,-0.0439364700005985,1.9137150331088817,"[ 1.50351013e-06 -3.39007034e-07  0.00000000e+00  0.00000000e+00
  0.00000000e+00 -2.10746544e-08 -3.39007034e-07  2.40479800e-06
  0.00000000e+00  0.00000000e+00  0.00000000e+00 -5.06162033e-09
  0.00000000e+00  0.00000000e+00  0.00000000e+00  0.00000000e+00
  0.00000000e+00  0.00000000e+00  0.00000000e+00  0.00000000e+00
  0.00000000e+00  0.00000000e+00  0.00000000e+00  0.00000000e+00
  0.00000000e+00  0.00000000e+00  0.00000000e+00  0.00000000e+00
  0.00000000e+00  0.00000000e+00 -2.10746544e-08 -5.06162033e-09
  0.00000000e+00  0.00000000e+00  0.00000000e+00  2.66879929e-06]","[[ 1.92878798e-05  7.82896212e-04]
 [-5.99150515e-05  2.28582108e-04]]",[],0.0,0.0
1787145914.982738,2.164146758809498,-0.0439364700005985,1.9137150331088817,"[ 1.50351013e-06 -3.39007034e-07  0.00000000e+00  0.00000000e+00
  0.00000000e+00 -2.10746544e-08 -3.39007034e-07  2.40479800e-06
  0.00000000e+00  0.00000000e+00  0.00000000e+00 -5.06162033e-09
  0.00000000e+00  0.00000000e+00  0.00000000e+00  0.00000000e+00
  0.00000000e+00  0.00000000e+00  0.00000000e+00  0.00000000e+00
  0.00000000e+00  0.00000000e+00  0.00000000e+00  0.00000000e+00
  0.00000000e+00  0.00000000e+00  0.00000000e+00  0.00000000e+00
  0.00000000e+00  0.00000000e+00 -2.10746544e-08 -5.06162033e-09
  0.00000000e+00  0.00000000e+00  0.00000000e+00  2.66879929e-06]","[[ 1.92878798e-05  7.82896212e-04]
 [-5.99150515e-05  2.28582108e-04]]",[],0.0,0.0
1787145915.0373135,2.164146758809498,-0.0439364700005985,1.9137150331088817,"[ 1.50351013e-06 -3.39007034e-07  0.00000000e+00  0.00000000e+00
  0.00000000e+00 -2.10746544e-08 -3.39007034e-07  2.40479800e-06
  0.00000000e+00  0.00000000e+00  0.00000000e+00 -5.06162033e-09
  0.00000000e+00  0.00000000e+00  0.00000000e+00  0.00000000e+00
  0.00000000e+00  0.00000000e+00  0.00000000e+00  0.00000000e+00
  0.00000000e+00  0.00000000e+00  0.00000000e+00  0.00000000e+00
  0.00000000e+00  0.00000000e+00  0.00000000e+00  0.00000000e+00
  0.00000000e+00  0.00000000e+00 -2.10746544e-08 -5.06162033e-09
  0.00000000e+00  0.00000000e+00  0.00000000e+00  2.66879929e-06]","[[ 1.92878798e-05  7.82896212e-04]
 [-5.99150515e-05  2.28582108e-04]]",[],0.0,0.0
1787145915.0871801,2.164146758809498,-0.0439364700005985,1.9137150331088817,"[ 1.50351013e-06 -3.39007034e-07  0.00000000e+00  0.00000000e+00
  0.00000000e+00 -2.10746544e-08 -3.39007034e-07  2.40479800e-06
  0.00000000e+00  0.00000000e+00  0.00000000e+00 -5.06162033e-09
  0.00000000e+00  0.00000000e+00  0.00000000e+00  0.00000000e+00
  0.00000000e+00  0.00000000e+00  0.00000000e+00  0.00000000e+00
  0.00000000e+00  0.00000000e+00  0.00000000e+00  0.00000000e+00
  0.00000000e+00  0.00000000e+00  0.00000000e+00  0.00000000e+00
  0.00000000e+00  0.00000000e+00 -2.10746544e-08 -5.06162033e-09
  0.00000000e+00  0.00000000e+00  0.00000000e+00  2.66879929e-06]","[[ 1.92878798e-05  7.82896212e-04]
 [-5.99150515e-05  2.28582108e-04]]",[],0.0,0.0
1787145915.1330376,2.164146758809498,-0.0439364700005985,1.9137150331088817,"[ 1.50351013e-06 -3.39007034e-07  0.00000000e+00  0.00000000e+00
  0.00000000e+00 -2.10746544e-08 -3.39007034e-07  2.40479800e-06
  0.00000000e+00  0.00000000e+00  0.00000000e+00 -5.06162033e-09
  0.00000000e+00  0.00000000e+00  0.00000000e+00  0.00000000e+00
  0.00000000e+00  0.00000000e+00  0.00000000e+00  0.00000000e+00
  0.00000000e+00  0.00000000e+00  0.00000000e+00  0.00000000e+00
  0.00000000e+00  0.00000000e+00  0.00000000e+00  0.00000000e+00
  0.00000000e+00  0.00000000e+00 -2.10746544e-08 -5.06162033e-09
  0.00000000e+00  0.00000000e+00  0.00000000e+00  2.66879929e-06]","[[ 1.92878798e-05  7.82896212e-04]
 [-5.99150515e-05  2.28582108e-04]]",[],0.0,0.0
1787145915.1855686,2.164146758809498,-0.0439364700005985,1.9137150331088817,"[ 1.50351013e-06 -3.39007034e-07  0.00000000e+00  0.00000000e+00
  0.00000000e+00 -2.10746544e-08 -3.39007034e-07  2.40479800e-06
  0.00000000e+00  0.00000000e+00  0.00000000e+00 -5.06162033e-09
  0.00000000e+00  0.00000000e+00  0.00000000e+00  0.00000000e+00
  0.00000000e+00  0.00000000e+00  0.00000000e+00  0.00000000e+00
  0.00000000e+00  0.00000000e+00  0.00000000e+00  0.00000000e+00
  0.00000000e+00  0.00000000e+00  0.00000000e+00  0.00000000e+00
  0.00000000e+00  0.00000000e+00 -2.10746544e-08 -5.06162033e-09
  0.00000000e+00  0.00000000e+00  0.00000000e+00  2.66879929e-06]","[[ 1.92878798e-05  7.82896212e-04]
 [-5.99150515e-05  2.28582108e-04]]",[],0.0,0.0
1787145915.2349913,2.164146758809498,-0.0439364700005985,1.9137150331088817,"[ 1.50351013e-06 -3.39007034e-07  0.00000000e+00  0.00000000e+00
  0.00000000e+00 -2.10746544e-08 -3.39007034e-07  2.40479800e-06
  0.00000000e+00  0.00000000e+00  0.00000000e+00 -5.06162033e-09
  0.00000000e+00  0.00000000e+00  0.00000000e+00  0.00000000e+00
  0.00000000e+00  0.00000000e+00  0.00000000e+00  0.00000000e+00
  0.00000000e+00  0.00000000e+00  0.00000000e+00  0.00000000e+00
  0.00000000e+00  0.00000000e+00  0.00000000e+00  0.00000000e+00
  0.00000000e+00  0.00000000e+00 -2.10746544e-08 -5.06162033e-09
  0.00000000e+00  0.00000000e+00  0.00000000e+00  2.66879929e-06]","[[ 1.92878798e-05  7.82896212e-04]
 [-5.99150515e-05  2.28582108e-04]]",[],0.0,0.0
1787145915.2827356,2.164146758809498,-0.0439364700005985,1.9137150331088817,"[ 1.50351013e-06 -3.39007034e-07  0.00000000e+00  0.00000000e+00
  0.00000000e+00 -2.10746544e-08 -3.39007034e-07  2.40479800e-06
  0.00000000e+00  0.00000000e+00  0.00000000e+00 -5.06162033e-09
  0.00000000e+00  0.00000000e+00  0.00000000e+00  0.00000000e+00
  0.00000000e+00  0.00000000e+00  0.00000000e+00  0.00000000e+00
  0.00000000e+00  0.00000000e+00  0.00000000e+00  0.00000000e+00
  0.00000000e+00  0.00000000e+00  0.00000000e+00  0.00000000e+00
  0.00000000e+00  0.00000000e+00 -2.10746544e-08 -5.06162033e-09
  0.00000000e+00  0.00000000e+00  0.00000000e+00  2.66879929e-06]","[[ 1.92878798e-05  7.82896212e-04]
 [-5.99150515e-05  2.28582108e-04]]",[],0.0,0.0
1787145915.3356874,2.164146758809498,-0.0439364700005985,1.9137150331088817,"[ 1.50351013e-06 -3.39007034e-07  0.00000000e+00  0.00000000e+00
  0.00000000e+00 -2.10746544e-08 -3.39007034e-07  2.40479800e-06
  0.00000000e+00  0.00000000e+00  0.00000000e+00 -5.06162033e-09
  0.00000000e+00  0.00000000e+00  0.00000000e+00  0.00000000e+00
  0.00000000e+00  0.00000000e+00  0.00000000e+00  0.00000000e+00
  0.00000000e+00  0.00000000e+00  0.00000000e+00  0.00000000e+00
  0.00000000e+00  0.00000000e+00  0.00000000e+00  0.00000000e+00
  0.00000000e+00  0.00000000e+00 -2.10746544e-08 -5.06162033e-09
  0.00000000e+00  0.00000000e+00  0.00000000e+00  2.66879929e-06]","[[ 1.92878798e-05  7.82896212e-04]
 [-5.99150515e-05  2.28582108e-04]]",[],0.0,0.0
1787145915.3928201,2.164146758809498,-0.0439364700005985,1.9137150331088817,"[ 1.50351013e-06 -3.39007034e-07  0.00000000e+00  0.00000000e+00
  0.00000000e+00 -2.10746544e-08 -3.39007034e-07  2.40479800e-06
  0.00000000e+00  0.00000000e+00  0.00000000e+00 -5.06162033e-09
  0.00000000e+00  0.00000000e+00  0.00000000e+00  0.00000000e+00
  0.00000000e+00  0.00000000e+00  0.00000000e+00  0.00000000e+00
  0.00000000e+00  0.00000000e+00  0.00000000e+00  0.00000000e+00
  0.00000000e+00  0.00000000e+00  0.00000000e+00  0.00000000e+00
  0.00000000e+00  0.00000000e+00 -2.10746544e-08 -5.06162033e-09
  0.00000000e+00  0.00000000e+00  0.00000000e+00  2.66879929e-06]","[[ 1.92878798e-05  7.82896212e-04]
 [-5.99150515e-05  2.28582108e-04]]",[],0.0,0.0
1787145915.4338417,2.164146758809498,-0.0439364700005985,1.9137150331088817,"[ 1.50351013e-06 -3.39007034e-07  0.00000000e+00  0.00000000e+00
  0.00000000e+00 -2.10746544e-08 -3.39007034e-07  2.40479800e-06
  0.00000000e+00  0.00000000e+00  0.00000000e+00 -5.06162033e-09
  0.00000000e+00  0.00000000e+00  0.00000000e+00  0.00000000e+00
  0.00000000e+00  0.00000000e+00  0.00000000e+00  0.00000000e+00
  0.00000000e+00  0.00000000e+00  0.00000000e+00  0.00000000e+00
  0.00000000e+00  0.00000000e+00  0.00000000e+00  0.00000000e+00
  0.00000000e+00  0.00000000e+00 -2.10746544e-08 -5.06162033e-09
  0.00000000e+00  0.00000000e+00  0.00000000e+00  2.66879929e-06]","[[ 1.92878798e-05  7.82896212e-04]
 [-5.99150515e-05  2.28582108e-04]]",[],0.0,0.0
1787145915.4921215,2.164146758809498,-0.0439364700005985,1.9137150331088817,"[ 1.50351013e-06 -3.39007034e-07  0.00000000e+00  0.00000000e+00
  0.00000000e+00 -2.10746544e-08 -3.39007034e-07  2.40479800e-06
  0.00000000e+00  0.00000000e+00  0.00000000e+00 -5.06162033e-09
  0.00000000e+00  0.00000000e+00  0.00000000e+00  0.00000000e+00
  0.00000000e+00  0.00000000e+00  0.00000000e+00  0.00000000e+00
  0.00000000e+00  0.00000000e+00  0.00000000e+00  0.00000000e+00
  0.00000000e+00  0.00000000e+00  0.00000000e+00  0.00000000e+00
  0.00000000e+00  0.00000000e+00 -2.10746544e-08 -5.06162033e-09
  0.00000000e+00  0.00000000e+00  0.00000000e+00  2.66879929e-06]","[[ 1.92878798e-05  7.82896212e-04]
 [-5.99150515e-05  2.28582108e-04]]",[],0.0,0.0
1787145915.534113,2.164146758809498,-0.0439364700005985,1.9137150331088817,"[ 1.50351013e-06 -3.39007034e-07  0.00000000e+00  0.00000000e+00
  0.00000000e+00 -2.10746544e-08 -3.39007034e-07  2.40479800e-06
  0.00000000e+00  0.00000000e+00  0.00000000e+00 -5.06162033e-09
  0.00000000e+00  0.00000000e+00  0.00000000e+00  0.00000000e+00
  0.00000000e+00  0.00000000e+00  0.00000000e+00  0.00000000e+00
  0.00000000e+00  0.00000000e+00  0.00000000e+00  0.00000000e+00
  0.00000000e+00  0.00000000e+00  0.00000000e+00  0.00000000e+00
  0.00000000e+00  0.00000000e+00 -2.10746544e-08 -5.06162033e-09
  0.00000000e+00  0.00000000e+00  0.00000000e+00  2.66879929e-06]","[[ 1.92878798e-05  7.82896212e-04]
 [-5.99150515e-05  2.28582108e-04]]",[],0.0,0.0
1787145915.582874,2.1645107841168794,-0.045471982430886,1.9101046966764343,"[ 1.47843648e-06 -3.68420471e-07  0.00000000e+00  0.00000000e+00
  0.00000000e+00 -2.33248960e-08 -3.68420471e-07  2.44796108e-06
  0.00000000e+00  0.00000000e+00  0.00000000e+00  3.33447874e-09
  0.00000000e+00  0.00000000e+00  0.00000000e+00  0.00000000e+00
  0.00000000e+00  0.00000000e+00  0.00000000e+00  0.00000000e+00
  0.00000000e+00  0.00000000e+00  0.00000000e+00  0.00000000e+00
  0.00000000e+00  0.00000000e+00  0.00000000e+00  0.00000000e+00
  0.00000000e+00  0.00000000e+00 -2.33248960e-08  3.33447874e-09
  0.00000000e+00  0.00000000e+00  0.00000000e+00  2.70046812e-06]","[[ 1.98024719e-05  7.68039425e-04]
 [-6.11643725e-05  2.06062186e-04]]",[],0.0,0.0
1787145915.6348975,2.1645107841168794,-0.045471982430886,1.9101046966764343,"[ 1.47843648e-06 -3.68420471e-07  0.00000000e+00  0.00000000e+00
  0.00000000e+00 -2.33248960e-08 -3.68420471e-07  2.44796108e-06
  0.00000000e+00  0.00000000e+00  0.00000000e+00  3.33447874e-09
  0.00000000e+00  0.00000000e+00  0.00000000e+00  0.00000000e+00
  0.00000000e+00  0.00000000e+00  0.00000000e+00  0.00000000e+00
  0.00000000e+00  0.00000000e+00  0.00000000e+00  0.00000000e+00
  0.00000000e+00  0.00000000e+00  0.00000000e+00  0.00000000e+00
  0.00000000e+00  0.00000000e+00 -2.33248960e-08  3.33447874e-09
  0.00000000e+00  0.00000000e+00  0.00000000e+00  2.70046812e-06]","[[ 1.98024719e-05  7.68039425e-04]
 [-6.11643725e-05  2.06062186e-04]]",[],0.0,0.0
1787145915.683331,2.1645107841168794,-0.045471982430886,1.9101046966764343,"[ 1.47843648e-06 -3.68420471e-07  0.00000000e+00  0.00000000e+00
  0.00000000e+00 -2.33248960e-08 -3.68420471e-07  2.44796108e-06
  0.00000000e+00  0.00000000e+00  0.00000000e+00  3.33447874e-09
  0.00000000e+00  0.00000000e+00  0.00000000e+00  0.00000000e+00
  0.00000000e+00  0.00000000e+00  0.00000000e+00  0.00000000e+00
  0.00000000e+00  0.00000000e+00  0.00000000e+00  0.00000000e+00
  0.00000000e+00  0.00000000e+00  0.00000000e+00  0.00000000e+00
  0.00000000e+00  0.00000000e+00 -2.33248960e-08  3.33447874e-09
  0.00000000e+00  0.00000000e+00  0.00000000e+00  2.70046812e-06]","[[ 1.98024719e-05  7.68039425e-04]
 [-6.11643725e-05  2.06062186e-04]]",[],0.0,0.0
1787145915.7344337,2.1645107841168794,-0.045471982430886,1.9101046966764343,"[ 1.47843648e-06 -3.68420471e-07  0.00000000e+00  0.00000000e+00
  0.00000000e+00 -2.33248960e-08 -3.68420471e-07  2.44796108e-06
  0.00000000e+00  0.00000000e+00  0.00000000e+00  3.33447874e-09
  0.00000000e+00  0.00000000e+00  0.00000000e+00  0.00000000e+00
  0.00000000e+00  0.00000000e+00  0.00000000e+00  0.00000000e+00
  0.00000000e+00  0.00000000e+00  0.00000000e+00  0.00000000e+00
  0.00000000e+00  0.00000000e+00  0.00000000e+00  0.00000000e+00
  0.00000000e+00  0.00000000e+00 -2.33248960e-08  3.33447874e-09
  0.00000000e+00  0.00000000e+00  0.00000000e+00  2.70046812e-06]","[[ 1.98024719e-05  7.68039425e-04]
 [-6.11643725e-05  2.06062186e-04]]",[],0.0,0.0
1787145915.7877767,2.1645107841168794,-0.045471982430886,1.9101046966764343,"[ 1.47843648e-06 -3.68420471e-07  0.00000000e+00  0.00000000e+00
  0.00000000e+00 -2.33248960e-08 -3.68420471e-07  2.44796108e-06
  0.00000000e+00  0.00000000e+00  0.00000000e+00  3.33447874e-09
  0.00000000e+00  0.00000000e+00  0.00000000e+00  0.00000000e+00
  0.00000000e+00  0.00000000e+00  0.00000000e+00  0.00000000e+00
  0.00000000e+00  0.00000000e+00  0.00000000e+00  0.00000000e+00
  0.00000000e+00  0.00000000e+00  0.00000000e+00  0.00000000e+00
  0.00000000e+00  0.00000000e+00 -2.33248960e-08  3.33447874e-09
  0.00000000e+00  0.00000000e+00  0.00000000e+00  2.70046812e-06]","[[ 1.98024719e-05  7.68039425e-04]
 [-6.11643725e-05  2.06062186e-04]]",[],0.0,0.0
1787145915.8351884,2.1645107841168794,-0.045471982430886,1.9101046966764343,"[ 1.47843648e-06 -3.68420471e-07  0.00000000e+00  0.00000000e+00
  0.00000000e+00 -2.33248960e-08 -3.68420471e-07  2.44796108e-06
  0.00000000e+00  0.00000000e+00  0.00000000e+00  3.33447874e-09
  0.00000000e+00  0.00000000e+00  0.00000000e+00  0.00000000e+00
  0.00000000e+00  0.00000000e+00  0.00000000e+00  0.00000000e+00
  0.00000000e+00  0.00000000e+00  0.00000000e+00  0.00000000e+00
  0.00000000e+00  0.00000000e+00  0.00000000e+00  0.00000000e+00
  0.00000000e+00  0.00000000e+00 -2.33248960e-08  3.33447874e-09
