time,x,y,yaw,cov_prop,K_gain,innovation,v_ekf,omega_ekf
1787146591.5750992,1.729914904056497,1.15695511279326,1.9500434305040406,"[ 7.43768727e-05  5.33803860e-06  0.00000000e+00  0.00000000e+00
  0.00000000e+00 -8.44144547e-06  5.33803860e-06  5.04050306e-05
  0.00000000e+00  0.00000000e+00  0.00000000e+00 -2.43076227e-06
  0.00000000e+00  0.00000000e+00  0.00000000e+00  0.00000000e+00
  0.00000000e+00  0.00000000e+00  0.00000000e+00  0.00000000e+00
  0.00000000e+00  0.00000000e+00  0.00000000e+00  0.00000000e+00
  0.00000000e+00  0.00000000e+00  0.00000000e+00  0.00000000e+00
  0.00000000e+00  0.00000000e+00 -8.44144547e-06 -2.43076227e-06
  0.00000000e+00  0.00000000e+00  0.00000000e+00  5.05368796e-06]","[[-0.00041871  0.06897367]
 [-0.00126563  0.00212634]]",[],0.0,0.0
1787146591.6261017,1.729914904056497,1.15695511279326,1.9500434305040406,"[ 7.43768727e-05  5.33803860e-06  0.00000000e+00  0.00000000e+00
  0.00000000e+00 -8.44144547e-06  5.33803860e-06  5.04050306e-05
  0.00000000e+00  0.00000000e+00  0.00000000e+00 -2.43076227e-06
  0.00000000e+00  0.00000000e+00  0.00000000e+00  0.00000000e+00
  0.00000000e+00  0.00000000e+00  0.00000000e+00  0.00000000e+00
  0.00000000e+00  0.00000000e+00  0.00000000e+00  0.00000000e+00
  0.00000000e+00  0.00000000e+00  0.00000000e+00  0.00000000e+00
  0.00000000e+00  0.00000000e+00 -8.44144547e-06 -2.43076227e-06
  0.00000000e+00  0.00000000e+00  0.00000000e+00  5.05368796e-06]","[[-0.00041871  0.06897367]
 [-0.00126563  0.00212634]]",[],0.0,0.0
1787146591.6751387,1.729914904056497,1.15695511279326,1.9500434305040406,"[ 7.43768727e-05  5.33803860e-06  0.00000000e+00  0.00000000e+00
  0.00000000e+00 -8.44144547e-06  5.33803860e-06  5.04050306e-05
  0.00000000e+00  0.00000000e+00  0.00000000e+00 -2.43076227e-06
  0.00000000e+00  0.00000000e+00  0.00000000e+00  0.00000000e+00
  0.00000000e+00  0.00000000e+00  0.00000000e+00  0.00000000e+00
  0.00000000e+00  0.00000000e+00  0.00000000e+00  0.00000000e+00
  0.00000000e+00  0.00000000e+00  0.00000000e+00  0.00000000e+00
  0.00000000e+00  0.00000000e+00 -8.44144547e-06 -2.43076227e-06
  0.00000000e+00  0.00000000e+00  0.00000000e+00  5.05368796e-06]","[[-0.00041871  0.06897367]
 [-0.00126563  0.00212634]]",[],0.0,0.0
1787146591.7280302,1.729914904056497,1.15695511279326,1.9500434305040406,"[ 7.43768727e-05  5.33803860e-06  0.00000000e+00  0.00000000e+00
  0.00000000e+00 -8.44144547e-06  5.33803860e-06  5.04050306e-05
  0.00000000e+00  0.00000000e+00  0.00000000e+00 -2.43076227e-06
  0.00000000e+00  0.00000000e+00  0.00000000e+00  0.00000000e+00
  0.00000000e+00  0.00000000e+00  0.00000000e+00  0.00000000e+00
  0.00000000e+00  0.00000000e+00  0.00000000e+00  0.00000000e+00
  0.00000000e+00  0.00000000e+00  0.00000000e+00  0.00000000e+00
  0.00000000e+00  0.00000000e+00 -8.44144547e-06 -2.43076227e-06
  0.00000000e+00  0.00000000e+00  0.00000000e+00  5.05368796e-06]","[[-0.00041871  0.06897367]
 [-0.00126563  0.00212634]]",[],0.0,0.0
1787146591.7748706,1.729914904056497,1.15695511279326,1.9500434305040406,"[ 7.43768727e-05  5.33803860e-06  0.00000000e+00  0.00000000e+00
  0.00000000e+00 -8.44144547e-06  5.33803860e-06  5.04050306e-05
  0.00000000e+00  0.00000000e+00  0.00000000e+00 -2.43076227e-06
  0.00000000e+00  0.00000000e+00  0.00000000e+00  0.00000000e+00
  0.00000000e+00  0.00000000e+00  0.00000000e+00  0.00000000e+00
  0.00000000e+00  0.00000000e+00  0.00000000e+00  0.00000000e+00
  0.00000000e+00  0.00000000e+00  0.00000000e+00  0.00000000e+00
  0.00000000e+00  0.00000000e+00 -8.44144547e-06 -2.43076227e-06
  0.00000000e+00  0.00000000e+00  0.00000000e+00  5.05368796e-06]","[[-0.00041871  0.06897367]
 [-0.00126563  0.00212634]]",[],0.0,0.0
1787146591.8307464,1.729914904056497,1.15695511279326,1.9500434305040406,"[ 7.43768727e-05  5.33803860e-06  0.00000000e+00  0.00000000e+00
  0.00000000e+00 -8.44144547e-06  5.33803860e-06  5.04050306e-05
  0.00000000e+00  0.00000000e+00  0.00000000e+00 -2.43076227e-06
  0.00000000e+00  0.00000000e+00  0.00000000e+00  0.00000000e+00
  0.00000000e+00  0.00000000e+00  0.00000000e+00  0.00000000e+00
  0.00000000e+00  0.00000000e+00  0.00000000e+00  0.00000000e+00
  0.00000000e+00  0.00000000e+00  0.00000000e+00  0.00000000e+00
  0.00000000e+00  0.00000000e+00 -8.44144547e-06 -2.43076227e-06
  0.00000000e+00  0.00000000e+00  0.00000000e+00  5.05368796e-06]","[[-0.00041871  0.06897367]
 [-0.00126563  0.00212634]]",[],0.0,0.0
1787146591.8746655,1.729914904056497,1.15695511279326,1.9500434305040406,"[ 7.43768727e-05  5.33803860e-06  0.00000000e+00  0.00000000e+00
  0.00000000e+00 -8.44144547e-06  5.33803860e-06  5.04050306e-05
  0.00000000e+00  0.00000000e+00  0.00000000e+00 -2.43076227e-06
  0.00000000e+00  0.00000000e+00  0.00000000e+00  0.00000000e+00
  0.00000000e+00  0.00000000e+00  0.00000000e+00  0.00000000e+00
  0.00000000e+00  0.00000000e+00  0.00000000e+00  0.00000000e+00
  0.00000000e+00  0.00000000e+00  0.00000000e+00  0.00000000e+00
  0.00000000e+00  0.00000000e+00 -8.44144547e-06 -2.43076227e-06
  0.00000000e+00  0.00000000e+00  0.00000000e+00  5.05368796e-06]","[[-0.00041871  0.06897367]
 [-0.00126563  0.00212634]]",[],0.0,0.0
1787146591.9297473,1.729914904056497,1.15695511279326,1.9500434305040406,"[ 7.43768727e-05  5.33803860e-06  0.00000000e+00  0.00000000e+00
  0.00000000e+00 -8.44144547e-06  5.33803860e-06  5.04050306e-05
  0.00000000e+00  0.00000000e+00  0.00000000e+00 -2.43076227e-06
  0.00000000e+00  0.00000000e+00  0.00000000e+00  0.00000000e+00
  0.00000000e+00  0.00000000e+00  0.00000000e+00  0.00000000e+00
  0.00000000e+00  0.00000000e+00  0.00000000e+00  0.00000000e+00
  0.00000000e+00  0.00000000e+00  0.00000000e+00  0.00000000e+00
  0.00000000e+00  0.00000000e+00 -8.44144547e-06 -2.43076227e-06
  0.00000000e+00  0.00000000e+00  0.00000000e+00  5.05368796e-06]","[[-0.00041871  0.06897367]
 [-0.00126563  0.00212634]]",[],0.0,0.0
1787146591.9752548,1.729914904056497,1.15695511279326,1.9500434305040406,"[ 7.43768727e-05  5.33803860e-06  0.00000000e+00  0.00000000e+00
  0.00000000e+00 -8.44144547e-06  5.33803860e-06  5.04050306e-05
  0.00000000e+00  0.00000000e+00  0.00000000e+00 -2.43076227e-06
  0.00000000e+00  0.00000000e+00  0.00000000e+00  0.00000000e+00
  0.00000000e+00  0.00000000e+00  0.00000000e+00  0.00000000e+00
  0.00000000e+00  0.00000000e+00  0.00000000e+00  0.00000000e+00
  0.00000000e+00  0.00000000e+00  0.00000000e+00  0.00000000e+00
  0.00000000e+00  0.00000000e+00 -8.44144547e-06 -2.43076227e-06
  0.00000000e+00  0.00000000e+00  0.00000000e+00  5.05368796e-06]","[[-0.00041871  0.06897367]
 [-0.00126563  0.00212634]]",[],0.0,0.0
1787146592.0291624,1.7070932545617823,1.1168943990112101,1.9669323986300153,"[ 3.48295429e-05  3.33111545e-06  0.00000000e+00  0.00000000e+00
  0.00000000e+00 -3.81852120e-06  3.33111545e-06  2.56225582e-05
  0.00000000e+00  0.00000000e+00  0.00000000e+00 -1.62106858e-06
  0.00000000e+00  0.00000000e+00  0.00000000e+00  0.00000000e+00
  0.00000000e+00  0.00000000e+00  0.00000000e+00  0.00000000e+00
  0.00000000e+00  0.00000000e+00  0.00000000e+00  0.00000000e+00
  0.00000000e+00  0.00000000e+00  0.00000000e+00  0.00000000e+00
  0.00000000e+00  0.00000000e+00 -3.81852120e-06 -1.62106858e-06
  0.00000000e+00  0.00000000e+00  0.00000000e+00  3.56904573e-06]","[[-0.00068443  0.02045158]
 [-0.00050471 -0.00778125]]",[],0.0,0.0
1787146592.2899833,1.7070932545617823,1.1168943990112101,1.9669323986300153,"[ 3.48295429e-05  3.33111545e-06  0.00000000e+00  0.00000000e+00
  0.00000000e+00 -3.81852120e-06  3.33111545e-06  2.56225582e-05
  0.00000000e+00  0.00000000e+00  0.00000000e+00 -1.62106858e-06
  0.00000000e+00  0.00000000e+00  0.00000000e+00  0.00000000e+00
  0.00000000e+00  0.00000000e+00  0.00000000e+00  0.00000000e+00
  0.00000000e+00  0.00000000e+00  0.00000000e+00  0.00000000e+00
  0.00000000e+00  0.00000000e+00  0.00000000e+00  0.00000000e+00
  0.00000000e+00  0.00000000e+00 -3.81852120e-06 -1.62106858e-06
  0.00000000e+00  0.00000000e+00  0.00000000e+00  3.56904573e-06]","[[-0.00068443  0.02045158]
 [-0.00050471 -0.00778125]]",[],0.0,0.0
1787146592.4460144,1.7070932545617823,1.1168943990112101,1.9669323986300153,"[ 3.48295429e-05  3.33111545e-06  0.00000000e+00  0.00000000e+00
  0.00000000e+00 -3.81852120e-06  3.33111545e-06  2.56225582e-05
  0.00000000e+00  0.00000000e+00  0.00000000e+00 -1.62106858e-06
  0.00000000e+00  0.00000000e+00  0.00000000e+00  0.00000000e+00
  0.00000000e+00  0.00000000e+00  0.00000000e+00  0.00000000e+00
  0.00000000e+00  0.00000000e+00  0.00000000e+00  0.00000000e+00
  0.00000000e+00  0.00000000e+00  0.00000000e+00  0.00000000e+00
  0.00000000e+00  0.00000000e+00 -3.81852120e-06 -1.62106858e-06
  0.00000000e+00  0.00000000e+00  0.00000000e+00  3.56904573e-06]","[[-0.00068443  0.02045158]
 [-0.00050471 -0.00778125]]",[],0.0,0.0
1787146592.8356311,1.7136313010536735,1.1038482379181187,1.965755089006321,"[ 2.29391305e-05  2.55875124e-06  0.00000000e+00  0.00000000e+00
  0.00000000e+00 -2.45162480e-06  2.55875124e-06  1.73375503e-05
  0.00000000e+00  0.00000000e+00  0.00000000e+00 -1.16720046e-06
  0.00000000e+00  0.00000000e+00  0.00000000e+00  0.00000000e+00
  0.00000000e+00  0.00000000e+00  0.00000000e+00  0.00000000e+00
  0.00000000e+00  0.00000000e+00  0.00000000e+00  0.00000000e+00
  0.00000000e+00  0.00000000e+00  0.00000000e+00  0.00000000e+00
  0.00000000e+00  0.00000000e+00 -2.45162480e-06 -1.16720046e-06
  0.00000000e+00  0.00000000e+00  0.00000000e+00  3.08032206e-06]","[[-0.00040643  0.0162723 ]
 [-0.00037937 -0.00460662]]",[],0.0,0.0
1787146593.2060068,1.7143269503239789,1.0966557180867855,1.9711760898100679,"[ 1.67633200e-05  1.79075725e-06  0.00000000e+00  0.00000000e+00
  0.00000000e+00 -1.85167540e-06  1.79075725e-06  1.30980723e-05
  0.00000000e+00  0.00000000e+00  0.00000000e+00 -9.19944573e-07
  0.00000000e+00  0.00000000e+00  0.00000000e+00  0.00000000e+00
  0.00000000e+00  0.00000000e+00  0.00000000e+00  0.00000000e+00
  0.00000000e+00  0.00000000e+00  0.00000000e+00  0.00000000e+00
  0.00000000e+00  0.00000000e+00  0.00000000e+00  0.00000000e+00
  0.00000000e+00  0.00000000e+00 -1.85167540e-06 -9.19944573e-07
  0.00000000e+00  0.00000000e+00  0.00000000e+00  2.87029293e-06]","[[ 6.08508851e-05  1.90711930e-02]
 [-3.06033236e-04  6.31165586e-03]]",[],0.0,0.0
1787146593.4185524,1.7084363717046176,1.0868265965327228,1.9764273580935923,"[ 1.32242501e-05  1.47085405e-06  0.00000000e+00  0.00000000e+00
  0.00000000e+00 -1.41235266e-06  1.47085405e-06  1.04901214e-05
  0.00000000e+00  0.00000000e+00  0.00000000e+00 -7.01945430e-07
  0.00000000e+00  0.00000000e+00  0.00000000e+00  0.00000000e+00
  0.00000000e+00  0.00000000e+00  0.00000000e+00  0.00000000e+00
  0.00000000e+00  0.00000000e+00  0.00000000e+00  0.00000000e+00
  0.00000000e+00  0.00000000e+00  0.00000000e+00  0.00000000e+00
  0.00000000e+00  0.00000000e+00 -1.41235266e-06 -7.01945430e-07
  0.00000000e+00  0.00000000e+00  0.00000000e+00  2.67348914e-06]","[[-0.00023228  0.00940168]
 [-0.00022943 -0.00276339]]",[],0.0,0.0
1787146593.4831598,1.7084363717046176,1.0868265965327228,1.9764273580935923,"[ 1.32242501e-05  1.47085405e-06  0.00000000e+00  0.00000000e+00
  0.00000000e+00 -1.41235266e-06  1.47085405e-06  1.04901214e-05
  0.00000000e+00  0.00000000e+00  0.00000000e+00 -7.01945430e-07
  0.00000000e+00  0.00000000e+00  0.00000000e+00  0.00000000e+00
  0.00000000e+00  0.00000000e+00  0.00000000e+00  0.00000000e+00
  0.00000000e+00  0.00000000e+00  0.00000000e+00  0.00000000e+00
  0.00000000e+00  0.00000000e+00  0.00000000e+00  0.00000000e+00
  0.00000000e+00  0.00000000e+00 -1.41235266e-06 -7.01945430e-07
  0.00000000e+00  0.00000000e+00  0.00000000e+00  2.67348914e-06]","[[-0.00023228  0.00940168]
 [-0.00022943 -0.00276339]]",[],0.0,0.0
1787146593.5752866,1.7084363717046176,1.0868265965327228,1.9764273580935923,"[ 1.32242501e-05  1.47085405e-06  0.00000000e+00  0.00000000e+00
  0.00000000e+00 -1.41235266e-06  1.47085405e-06  1.04901214e-05
  0.00000000e+00  0.00000000e+00  0.00000000e+00 -7.01945430e-07
  0.00000000e+00  0.00000000e+00  0.00000000e+00  0.00000000e+00
  0.00000000e+00  0.00000000e+00  0.00000000e+00  0.00000000e+00
  0.00000000e+00  0.00000000e+00  0.00000000e+00  0.00000000e+00
  0.00000000e+00  0.00000000e+00  0.00000000e+00  0.00000000e+00
  0.00000000e+00  0.00000000e+00 -1.41235266e-06 -7.01945430e-07
  0.00000000e+00  0.00000000e+00  0.00000000e+00  2.67348914e-06]","[[-0.00023228  0.00940168]
 [-0.00022943 -0.00276339]]",[],0.0,0.0
1787146593.6403987,1.7137739948544748,1.0794357441790827,1.9921089713508895,"[ 1.09128868e-05  1.14900001e-06  0.00000000e+00  0.00000000e+00
  0.00000000e+00 -1.12638472e-06  1.14900001e-06  8.81824461e-06
  0.00000000e+00  0.00000000e+00  0.00000000e+00 -6.25573502e-07
  0.00000000e+00  0.00000000e+00  0.00000000e+00  0.00000000e+00
  0.00000000e+00  0.00000000e+00  0.00000000e+00  0.00000000e+00
  0.00000000e+00  0.00000000e+00  0.00000000e+00  0.00000000e+00
  0.00000000e+00  0.00000000e+00  0.00000000e+00  0.00000000e+00
  0.00000000e+00  0.00000000e+00 -1.12638472e-06 -6.25573502e-07
  0.00000000e+00  0.00000000e+00  0.00000000e+00  2.66584901e-06]","[[ 6.35694770e-05  1.17377830e-02]
 [-1.98381847e-04  4.74804814e-03]]",[],0.0,0.0
1787146593.7237682,1.7137739948544748,1.0794357441790827,1.9921089713508895,"[ 1.09128868e-05  1.14900001e-06  0.00000000e+00  0.00000000e+00
  0.00000000e+00 -1.12638472e-06  1.14900001e-06  8.81824461e-06
  0.00000000e+00  0.00000000e+00  0.00000000e+00 -6.25573502e-07
  0.00000000e+00  0.00000000e+00  0.00000000e+00  0.00000000e+00
  0.00000000e+00  0.00000000e+00  0.00000000e+00  0.00000000e+00
  0.00000000e+00  0.00000000e+00  0.00000000e+00  0.00000000e+00
  0.00000000e+00  0.00000000e+00  0.00000000e+00  0.00000000e+00
  0.00000000e+00  0.00000000e+00 -1.12638472e-06 -6.25573502e-07
  0.00000000e+00  0.00000000e+00  0.00000000e+00  2.66584901e-06]","[[ 6.35694770e-05  1.17377830e-02]
 [-1.98381847e-04  4.74804814e-03]]",[],0.0,0.0
1787146593.7245562,1.7137739948544748,1.0794357441790827,1.9921089713508895,"[ 1.09128868e-05  1.14900001e-06  0.00000000e+00  0.00000000e+00
  0.00000000e+00 -1.12638472e-06  1.14900001e-06  8.81824461e-06
  0.00000000e+00  0.00000000e+00  0.00000000e+00 -6.25573502e-07
  0.00000000e+00  0.00000000e+00  0.00000000e+00  0.00000000e+00
  0.00000000e+00  0.00000000e+00  0.00000000e+00  0.00000000e+00
  0.00000000e+00  0.00000000e+00  0.00000000e+00  0.00000000e+00
  0.00000000e+00  0.00000000e+00  0.00000000e+00  0.00000000e+00
  0.00000000e+00  0.00000000e+00 -1.12638472e-06 -6.25573502e-07
  0.00000000e+00  0.00000000e+00  0.00000000e+00  2.66584901e-06]","[[ 6.35694770e-05  1.17377830e-02]
 [-1.98381847e-04  4.74804814e-03]]",[],0.0,0.0
1787146593.7939973,1.7137739948544748,1.0794357441790827,1.9921089713508895,"[ 1.09128868e-05  1.14900001e-06  0.00000000e+00  0.00000000e+00
  0.00000000e+00 -1.12638472e-06  1.14900001e-06  8.81824461e-06
  0.00000000e+00  0.00000000e+00  0.00000000e+00 -6.25573502e-07
  0.00000000e+00  0.00000000e+00  0.00000000e+00  0.00000000e+00
  0.00000000e+00  0.00000000e+00  0.00000000e+00  0.00000000e+00
  0.00000000e+00  0.00000000e+00  0.00000000e+00  0.00000000e+00
  0.00000000e+00  0.00000000e+00  0.00000000e+00  0.00000000e+00
  0.00000000e+00  0.00000000e+00 -1.12638472e-06 -6.25573502e-07
  0.00000000e+00  0.00000000e+00  0.00000000e+00  2.66584901e-06]","[[ 6.35694770e-05  1.17377830e-02]
 [-1.98381847e-04  4.74804814e-03]]",[],0.0,0.0
1787146593.947486,1.7137739948544748,1.0794357441790827,1.9921089713508895,"[ 1.09128868e-05  1.14900001e-06  0.00000000e+00  0.00000000e+00
  0.00000000e+00 -1.12638472e-06  1.14900001e-06  8.81824461e-06
  0.00000000e+00  0.00000000e+00  0.00000000e+00 -6.25573502e-07
  0.00000000e+00  0.00000000e+00  0.00000000e+00  0.00000000e+00
  0.00000000e+00  0.00000000e+00  0.00000000e+00  0.00000000e+00
  0.00000000e+00  0.00000000e+00  0.00000000e+00  0.00000000e+00
  0.00000000e+00  0.00000000e+00  0.00000000e+00  0.00000000e+00
  0.00000000e+00  0.00000000e+00 -1.12638472e-06 -6.25573502e-07
  0.00000000e+00  0.00000000e+00  0.00000000e+00  2.66584901e-06]","[[ 6.35694770e-05  1.17377830e-02]
 [-1.98381847e-04  4.74804814e-03]]",[],0.0,0.0
1787146594.0426817,1.7155598930325993,1.072584739216694,2.0075922884465243,"[ 9.24171120e-06  9.55075132e-07  0.00000000e+00  0.00000000e+00
  0.00000000e+00 -9.42062290e-07  9.55075132e-07  7.54349949e-06
  0.00000000e+00  0.00000000e+00  0.00000000e+00 -5.40381567e-07
  0.00000000e+00  0.00000000e+00  0.00000000e+00  0.00000000e+00
  0.00000000e+00  0.00000000e+00  0.00000000e+00  0.00000000e+00
  0.00000000e+00  0.00000000e+00  0.00000000e+00  0.00000000e+00
  0.00000000e+00  0.00000000e+00  0.00000000e+00  0.00000000e+00
  0.00000000e+00  0.00000000e+00 -9.42062290e-07 -5.40381567e-07
  0.00000000e+00  0.00000000e+00  0.00000000e+00  2.60002679e-06]","[[ 7.45281206e-05  9.27366466e-03]
 [-1.61504109e-04  4.41002778e-03]]",[],0.0,0.0
1787146594.3022509,1.7155598930325993,1.072584739216694,2.0075922884465243,"[ 9.24171120e-06  9.55075132e-07  0.00000000e+00  0.00000000e+00
  0.00000000e+00 -9.42062290e-07  9.55075132e-07  7.54349949e-06
  0.00000000e+00  0.00000000e+00  0.00000000e+00 -5.40381567e-07
  0.00000000e+00  0.00000000e+00  0.00000000e+00  0.00000000e+00
  0.00000000e+00  0.00000000e+00  0.00000000e+00  0.00000000e+00
  0.00000000e+00  0.00000000e+00  0.00000000e+00  0.00000000e+00
  0.00000000e+00  0.00000000e+00  0.00000000e+00  0.00000000e+00
  0.00000000e+00  0.00000000e+00 -9.42062290e-07 -5.40381567e-07
  0.00000000e+00  0.00000000e+00  0.00000000e+00  2.60002679e-06]","[[ 7.45281206e-05  9.27366466e-03]
 [-1.61504109e-04  4.41002778e-03]]",[],0.0,0.0
1787146594.6426573,1.7171716323823978,1.0650381060020915,2.021864737898225,"[ 8.06535929e-06  8.29579807e-07  0.00000000e+00  0.00000000e+00
  0.00000000e+00 -8.32198114e-07  8.29579807e-07  6.66114364e-06
  0.00000000e+00  0.00000000e+00  0.00000000e+00 -4.81659079e-07
  0.00000000e+00  0.00000000e+00  0.00000000e+00  0.00000000e+00
  0.00000000e+00  0.00000000e+00  0.00000000e+00  0.00000000e+00
  0.00000000e+00  0.00000000e+00  0.00000000e+00  0.00000000e+00
  0.00000000e+00  0.00000000e+00  0.00000000e+00  0.00000000e+00
  0.00000000e+00  0.00000000e+00 -8.32198114e-07 -4.81659079e-07
  0.00000000e+00  0.00000000e+00  0.00000000e+00  2.52532956e-06]","[[-0.00013931  0.0057101 ]
 [-0.00014468 -0.0017058 ]]",[],0.0,0.0
1787146595.041068,1.7221037394042646,1.0606367679900135,2.039134805896783,"[ 7.19095898e-06  7.29070839e-07  0.00000000e+00  0.00000000e+00
  0.00000000e+00 -7.11206858e-07  7.29070839e-07  5.96779173e-06
  0.00000000e+00  0.00000000e+00  0.00000000e+00 -4.06259758e-07
  0.00000000e+00  0.00000000e+00  0.00000000e+00  0.00000000e+00
  0.00000000e+00  0.00000000e+00  0.00000000e+00  0.00000000e+00
  0.00000000e+00  0.00000000e+00  0.00000000e+00  0.00000000e+00
  0.00000000e+00  0.00000000e+00  0.00000000e+00  0.00000000e+00
  0.00000000e+00  0.00000000e+00 -7.11206858e-07 -4.06259758e-07
  0.00000000e+00  0.00000000e+00  0.00000000e+00  2.51659496e-06]","[[-0.00012365  0.00504577]
 [-0.0001296  -0.00156337]]",[],0.0,0.0
1787146595.4368353,1.7296521442969215,1.0563770712934335,2.0627454939146013,"[ 6.44483294e-06  6.34793298e-07  0.00000000e+00  0.00000000e+00
  0.00000000e+00 -6.53553615e-07  6.34793298e-07  5.40183049e-06
  0.00000000e+00  0.00000000e+00  0.00000000e+00 -3.51722359e-07
  0.00000000e+00  0.00000000e+00  0.00000000e+00  0.00000000e+00
  0.00000000e+00  0.00000000e+00  0.00000000e+00  0.00000000e+00
  0.00000000e+00  0.00000000e+00  0.00000000e+00  0.00000000e+00
  0.00000000e+00  0.00000000e+00  0.00000000e+00  0.00000000e+00
  0.00000000e+00  0.00000000e+00 -6.53553615e-07 -3.51722359e-07
  0.00000000e+00  0.00000000e+00  0.00000000e+00  2.64937224e-06]","[[-0.0001101   0.00456591]
 [-0.00011713 -0.00144573]]",[],0.0,0.0
1787146595.8421743,1.7342234199715656,1.0507137479687105,2.082219492790922,"[ 5.82512179e-06  5.68392441e-07  0.00000000e+00  0.00000000e+00
  0.00000000e+00 -5.52974434e-07  5.68392441e-07  4.96608159e-06
  0.00000000e+00  0.00000000e+00  0.00000000e+00 -3.23176162e-07
  0.00000000e+00  0.00000000e+00  0.00000000e+00  0.00000000e+00
  0.00000000e+00  0.00000000e+00  0.00000000e+00  0.00000000e+00
  0.00000000e+00  0.00000000e+00  0.00000000e+00  0.00000000e+00
  0.00000000e+00  0.00000000e+00  0.00000000e+00  0.00000000e+00
  0.00000000e+00  0.00000000e+00 -5.52974434e-07 -3.23176162e-07
  0.00000000e+00  0.00000000e+00  0.00000000e+00  2.70613009e-06]","[[ 4.80882194e-05  5.69139754e-03]
 [-1.06787406e-04  2.77790832e-03]]",[],0.0,0.0
1787146596.247475,1.740218573238249,1.0454335670380133,2.114630098606167,"[ 5.31111017e-06  4.84808262e-07  0.00000000e+00  0.00000000e+00
  0.00000000e+00 -4.91758600e-07  4.84808262e-07  4.58237442e-06
  0.00000000e+00  0.00000000e+00  0.00000000e+00 -2.66716307e-07
  0.00000000e+00  0.00000000e+00  0.00000000e+00  0.00000000e+00
  0.00000000e+00  0.00000000e+00  0.00000000e+00  0.00000000e+00
  0.00000000e+00  0.00000000e+00  0.00000000e+00  0.00000000e+00
  0.00000000e+00  0.00000000e+00  0.00000000e+00  0.00000000e+00
  0.00000000e+00  0.00000000e+00 -4.91758600e-07 -2.66716307e-07
  0.00000000e+00  0.00000000e+00  0.00000000e+00  2.66587413e-06]","[[-8.50982716e-05  3.92200185e-03]
 [-1.01327896e-04 -1.21866216e-03]]",[],0.0,0.0
1787146596.6261785,1.7456353513619054,1.0419702590468014,2.1321713755651857,"[ 4.89595939e-06  4.23581297e-07  0.00000000e+00  0.00000000e+00
  0.00000000e+00 -4.38055789e-07  4.23581297e-07  4.26014530e-06
  0.00000000e+00  0.00000000e+00  0.00000000e+00 -2.39208786e-07
  0.00000000e+00  0.00000000e+00  0.00000000e+00  0.00000000e+00
  0.00000000e+00  0.00000000e+00  0.00000000e+00  0.00000000e+00
  0.00000000e+00  0.00000000e+00  0.00000000e+00  0.00000000e+00
  0.00000000e+00  0.00000000e+00  0.00000000e+00  0.00000000e+00
  0.00000000e+00  0.00000000e+00 -4.38055789e-07 -2.39208786e-07
  0.00000000e+00  0.00000000e+00  0.00000000e+00  2.67741438e-06]","[[-7.76203679e-05  3.60743854e-03]
 [-9.40051769e-05 -1.15337157e-03]]",[],0.0,0.0
1787146596.984444,1.75020949210878,1.037492059659862,2.15133312972743,"[ 4.53280923e-06  3.64982230e-07  0.00000000e+00  0.00000000e+00
  0.00000000e+00 -4.10594303e-07  3.64982230e-07  3.97905120e-06
  0.00000000e+00  0.00000000e+00  0.00000000e+00 -2.37175811e-07
  0.00000000e+00  0.00000000e+00  0.00000000e+00  0.00000000e+00
  0.00000000e+00  0.00000000e+00  0.00000000e+00  0.00000000e+00
  0.00000000e+00  0.00000000e+00  0.00000000e+00  0.00000000e+00
  0.00000000e+00  0.00000000e+00  0.00000000e+00  0.00000000e+00
  0.00000000e+00  0.00000000e+00 -4.10594303e-07 -2.37175811e-07
  0.00000000e+00  0.00000000e+00  0.00000000e+00  2.58916013e-06]","[[-7.10405158e-05  3.36630865e-03]
 [-8.75134172e-05 -1.06603498e-03]]",[],0.0,0.0
1787146597.3479724,1.7546063932977412,1.0332896691271873,2.164236150169158,"[ 4.21534705e-06  3.23531573e-07  0.00000000e+00  0.00000000e+00
  0.00000000e+00 -3.65330794e-07  3.23531573e-07  3.73341060e-06
  0.00000000e+00  0.00000000e+00  0.00000000e+00 -2.19224203e-07
  0.00000000e+00  0.00000000e+00  0.00000000e+00  0.00000000e+00
  0.00000000e+00  0.00000000e+00  0.00000000e+00  0.00000000e+00
  0.00000000e+00  0.00000000e+00  0.00000000e+00  0.00000000e+00
  0.00000000e+00  0.00000000e+00  0.00000000e+00  0.00000000e+00
  0.00000000e+00  0.00000000e+00 -3.65330794e-07 -2.19224203e-07
  0.00000000e+00  0.00000000e+00  0.00000000e+00  2.51311879e-06]","[[-6.54973839e-05  3.11437289e-03]
 [-8.19769172e-05 -1.00969204e-03]]",[],0.0,0.0
1787146597.7114327,1.7572582070179248,1.02906000783636,2.170923624989042,"[ 3.94033903e-06  3.00955432e-07  0.00000000e+00  0.00000000e+00
  0.00000000e+00 -3.21945346e-07  3.00955432e-07  3.52421440e-06
  0.00000000e+00  0.00000000e+00  0.00000000e+00 -1.82636389e-07
  0.00000000e+00  0.00000000e+00  0.00000000e+00  0.00000000e+00
  0.00000000e+00  0.00000000e+00  0.00000000e+00  0.00000000e+00
  0.00000000e+00  0.00000000e+00  0.00000000e+00  0.00000000e+00
  0.00000000e+00  0.00000000e+00  0.00000000e+00  0.00000000e+00
  0.00000000e+00  0.00000000e+00 -3.21945346e-07 -1.82636389e-07
  0.00000000e+00  0.00000000e+00  0.00000000e+00  2.54140982e-06]","[[-6.02767347e-05  2.92248789e-03]
 [-7.78210336e-05 -9.79947512e-04]]",[],0.0,0.0
1787146597.7258198,1.7572582070179248,1.02906000783636,2.170923624989042,"[ 3.94033903e-06  3.00955432e-07  0.00000000e+00  0.00000000e+00
  0.00000000e+00 -3.21945346e-07  3.00955432e-07  3.52421440e-06
  0.00000000e+00  0.00000000e+00  0.00000000e+00 -1.82636389e-07
  0.00000000e+00  0.00000000e+00  0.00000000e+00  0.00000000e+00
  0.00000000e+00  0.00000000e+00  0.00000000e+00  0.00000000e+00
  0.00000000e+00  0.00000000e+00  0.00000000e+00  0.00000000e+00
  0.00000000e+00  0.00000000e+00  0.00000000e+00  0.00000000e+00
  0.00000000e+00  0.00000000e+00 -3.21945346e-07 -1.82636389e-07
  0.00000000e+00  0.00000000e+00  0.00000000e+00  2.54140982e-06]","[[-6.02767347e-05  2.92248789e-03]
 [-7.78210336e-05 -9.79947512e-04]]",[],0.0,0.0
1787146598.1028042,1.7602164775344789,1.0257571671273984,2.1773963598813086,"[ 3.70098424e-06  2.70479566e-07  0.00000000e+00  0.00000000e+00
  0.00000000e+00 -3.13053173e-07  2.70479566e-07  3.34819305e-06
  0.00000000e+00  0.00000000e+00  0.00000000e+00 -1.87483296e-07
  0.00000000e+00  0.00000000e+00  0.00000000e+00  0.00000000e+00
  0.00000000e+00  0.00000000e+00  0.00000000e+00  0.00000000e+00
  0.00000000e+00  0.00000000e+00  0.00000000e+00  0.00000000e+00
  0.00000000e+00  0.00000000e+00  0.00000000e+00  0.00000000e+00
  0.00000000e+00  0.00000000e+00 -3.13053173e-07 -1.87483296e-07
  0.00000000e+00  0.00000000e+00  0.00000000e+00  2.59348317e-06]","[[-5.62059990e-05  2.76912470e-03]
 [-7.38065175e-05 -9.11870861e-04]]",[],0.0,0.0
1787146598.497496,1.7616889477842645,1.0215530367042802,2.185270563581784,"[ 3.49398122e-06  2.39974330e-07  0.00000000e+00  0.00000000e+00
  0.00000000e+00 -2.74936236e-07  2.39974330e-07  3.19082192e-06
  0.00000000e+00  0.00000000e+00  0.00000000e+00 -1.48295073e-07
  0.00000000e+00  0.00000000e+00  0.00000000e+00  0.00000000e+00
  0.00000000e+00  0.00000000e+00  0.00000000e+00  0.00000000e+00
  0.00000000e+00  0.00000000e+00  0.00000000e+00  0.00000000e+00
  0.00000000e+00  0.00000000e+00  0.00000000e+00  0.00000000e+00
  0.00000000e+00  0.00000000e+00 -2.74936236e-07 -1.48295073e-07
  0.00000000e+00  0.00000000e+00  0.00000000e+00  2.63868615e-06]","[[ 3.81990973e-05  3.00914277e-03]
 [-6.62436232e-05  1.69931403e-03]]",[],0.0,0.0
1787146598.9192734,1.7636105483594051,1.017353564979011,2.1910933196658355,"[ 3.29796348e-06  2.07470934e-07  0.00000000e+00  0.00000000e+00
  0.00000000e+00 -2.68713099e-07  2.07470934e-07  3.04307045e-06
  0.00000000e+00  0.00000000e+00  0.00000000e+00 -1.52981084e-07
  0.00000000e+00  0.00000000e+00  0.00000000e+00  0.00000000e+00
  0.00000000e+00  0.00000000e+00  0.00000000e+00  0.00000000e+00
  0.00000000e+00  0.00000000e+00  0.00000000e+00  0.00000000e+00
  0.00000000e+00  0.00000000e+00  0.00000000e+00  0.00000000e+00
  0.00000000e+00  0.00000000e+00 -2.68713099e-07 -1.52981084e-07
  0.00000000e+00  0.00000000e+00  0.00000000e+00  2.59371378e-06]","[[ 3.64397393e-05  2.84319427e-03]
 [-6.34587241e-05  1.62093553e-03]]",[],0.0,0.0
1787146598.9261584,1.7636105483594051,1.017353564979011,2.1910933196658355,"[ 3.29796348e-06  2.07470934e-07  0.00000000e+00  0.00000000e+00
  0.00000000e+00 -2.68713099e-07  2.07470934e-07  3.04307045e-06
  0.00000000e+00  0.00000000e+00  0.00000000e+00 -1.52981084e-07
  0.00000000e+00  0.00000000e+00  0.00000000e+00  0.00000000e+00
  0.00000000e+00  0.00000000e+00  0.00000000e+00  0.00000000e+00
  0.00000000e+00  0.00000000e+00  0.00000000e+00  0.00000000e+00
  0.00000000e+00  0.00000000e+00  0.00000000e+00  0.00000000e+00
  0.00000000e+00  0.00000000e+00 -2.68713099e-07 -1.52981084e-07
  0.00000000e+00  0.00000000e+00  0.00000000e+00  2.59371378e-06]","[[ 3.64397393e-05  2.84319427e-03]
 [-6.34587241e-05  1.62093553e-03]]",[],0.0,0.0
1787146598.9770818,1.7654987748974318,1.0126023903742363,2.2143856592411986,"[ 3.12961565e-06  1.67904434e-07  0.00000000e+00  0.00000000e+00
  0.00000000e+00 -2.33605535e-07  1.67904434e-07  2.91324970e-06
  0.00000000e+00  0.00000000e+00  0.00000000e+00 -1.16381486e-07
  0.00000000e+00  0.00000000e+00  0.00000000e+00  0.00000000e+00
  0.00000000e+00  0.00000000e+00  0.00000000e+00  0.00000000e+00
  0.00000000e+00  0.00000000e+00  0.00000000e+00  0.00000000e+00
  0.00000000e+00  0.00000000e+00  0.00000000e+00  0.00000000e+00
  0.00000000e+00  0.00000000e+00 -2.33605535e-07 -1.16381486e-07
  0.00000000e+00  0.00000000e+00  0.00000000e+00  2.65168640e-06]","[[-4.59139257e-05  2.31738791e-03]
 [-6.34922067e-05 -9.00188439e-04]]",[],0.0,0.0
1787146599.0250828,1.7654987748974318,1.0126023903742363,2.2143856592411986,"[ 3.12961565e-06  1.67904434e-07  0.00000000e+00  0.00000000e+00
  0.00000000e+00 -2.33605535e-07  1.67904434e-07  2.91324970e-06
  0.00000000e+00  0.00000000e+00  0.00000000e+00 -1.16381486e-07
  0.00000000e+00  0.00000000e+00  0.00000000e+00  0.00000000e+00
  0.00000000e+00  0.00000000e+00  0.00000000e+00  0.00000000e+00
  0.00000000e+00  0.00000000e+00  0.00000000e+00  0.00000000e+00
  0.00000000e+00  0.00000000e+00  0.00000000e+00  0.00000000e+00
  0.00000000e+00  0.00000000e+00 -2.33605535e-07 -1.16381486e-07
  0.00000000e+00  0.00000000e+00  0.00000000e+00  2.65168640e-06]","[[-4.59139257e-05  2.31738791e-03]
 [-6.34922067e-05 -9.00188439e-04]]",[],0.0,0.0
1787146599.09355,1.7654987748974318,1.0126023903742363,2.2143856592411986,"[ 3.12961565e-06  1.67904434e-07  0.00000000e+00  0.00000000e+00
  0.00000000e+00 -2.33605535e-07  1.67904434e-07  2.91324970e-06
  0.00000000e+00  0.00000000e+00  0.00000000e+00 -1.16381486e-07
  0.00000000e+00  0.00000000e+00  0.00000000e+00  0.00000000e+00
  0.00000000e+00  0.00000000e+00  0.00000000e+00  0.00000000e+00
  0.00000000e+00  0.00000000e+00  0.00000000e+00  0.00000000e+00
  0.00000000e+00  0.00000000e+00  0.00000000e+00  0.00000000e+00
  0.00000000e+00  0.00000000e+00 -2.33605535e-07 -1.16381486e-07
  0.00000000e+00  0.00000000e+00  0.00000000e+00  2.65168640e-06]","[[-4.59139257e-05  2.31738791e-03]
 [-6.34922067e-05 -9.00188439e-04]]",[],0.0,0.0
1787146599.1328468,1.7654987748974318,1.0126023903742363,2.2143856592411986,"[ 3.12961565e-06  1.67904434e-07  0.00000000e+00  0.00000000e+00
  0.00000000e+00 -2.33605535e-07  1.67904434e-07  2.91324970e-06
  0.00000000e+00  0.00000000e+00  0.00000000e+00 -1.16381486e-07
  0.00000000e+00  0.00000000e+00  0.00000000e+00  0.00000000e+00
  0.00000000e+00  0.00000000e+00  0.00000000e+00  0.00000000e+00
  0.00000000e+00  0.00000000e+00  0.00000000e+00  0.00000000e+00
  0.00000000e+00  0.00000000e+00  0.00000000e+00  0.00000000e+00
  0.00000000e+00  0.00000000e+00 -2.33605535e-07 -1.16381486e-07
  0.00000000e+00  0.00000000e+00  0.00000000e+00  2.65168640e-06]","[[-4.59139257e-05  2.31738791e-03]
 [-6.34922067e-05 -9.00188439e-04]]",[],0.0,0.0
1787146599.1747108,1.7654987748974318,1.0126023903742363,2.2143856592411986,"[ 3.12961565e-06  1.67904434e-07  0.00000000e+00  0.00000000e+00
  0.00000000e+00 -2.33605535e-07  1.67904434e-07  2.91324970e-06
  0.00000000e+00  0.00000000e+00  0.00000000e+00 -1.16381486e-07
  0.00000000e+00  0.00000000e+00  0.00000000e+00  0.00000000e+00
  0.00000000e+00  0.00000000e+00  0.00000000e+00  0.00000000e+00
  0.00000000e+00  0.00000000e+00  0.00000000e+00  0.00000000e+00
  0.00000000e+00  0.00000000e+00  0.00000000e+00  0.00000000e+00
  0.00000000e+00  0.00000000e+00 -2.33605535e-07 -1.16381486e-07
  0.00000000e+00  0.00000000e+00  0.00000000e+00  2.65168640e-06]","[[-4.59139257e-05  2.31738791e-03]
 [-6.34922067e-05 -9.00188439e-04]]",[],0.0,0.0
1787146599.224952,1.7654987748974318,1.0126023903742363,2.2143856592411986,"[ 3.12961565e-06  1.67904434e-07  0.00000000e+00  0.00000000e+00
  0.00000000e+00 -2.33605535e-07  1.67904434e-07  2.91324970e-06
  0.00000000e+00  0.00000000e+00  0.00000000e+00 -1.16381486e-07
  0.00000000e+00  0.00000000e+00  0.00000000e+00  0.00000000e+00
  0.00000000e+00  0.00000000e+00  0.00000000e+00  0.00000000e+00
  0.00000000e+00  0.00000000e+00  0.00000000e+00  0.00000000e+00
  0.00000000e+00  0.00000000e+00  0.00000000e+00  0.00000000e+00
  0.00000000e+00  0.00000000e+00 -2.33605535e-07 -1.16381486e-07
  0.00000000e+00  0.00000000e+00  0.00000000e+00  2.65168640e-06]","[[-4.59139257e-05  2.31738791e-03]
 [-6.34922067e-05 -9.00188439e-04]]",[],0.0,0.0
1787146599.2763412,1.7654987748974318,1.0126023903742363,2.2143856592411986,"[ 3.12961565e-06  1.67904434e-07  0.00000000e+00  0.00000000e+00
  0.00000000e+00 -2.33605535e-07  1.67904434e-07  2.91324970e-06
  0.00000000e+00  0.00000000e+00  0.00000000e+00 -1.16381486e-07
  0.00000000e+00  0.00000000e+00  0.00000000e+00  0.00000000e+00
  0.00000000e+00  0.00000000e+00  0.00000000e+00  0.00000000e+00
  0.00000000e+00  0.00000000e+00  0.00000000e+00  0.00000000e+00
  0.00000000e+00  0.00000000e+00  0.00000000e+00  0.00000000e+00
  0.00000000e+00  0.00000000e+00 -2.33605535e-07 -1.16381486e-07
  0.00000000e+00  0.00000000e+00  0.00000000e+00  2.65168640e-06]","[[-4.59139257e-05  2.31738791e-03]
 [-6.34922067e-05 -9.00188439e-04]]",[],0.0,0.0
1787146599.3265061,1.7654987748974318,1.0126023903742363,2.2143856592411986,"[ 3.12961565e-06  1.67904434e-07  0.00000000e+00  0.00000000e+00
  0.00000000e+00 -2.33605535e-07  1.67904434e-07  2.91324970e-06
  0.00000000e+00  0.00000000e+00  0.00000000e+00 -1.16381486e-07
  0.00000000e+00  0.00000000e+00  0.00000000e+00  0.00000000e+00
  0.00000000e+00  0.00000000e+00  0.00000000e+00  0.00000000e+00
  0.00000000e+00  0.00000000e+00  0.00000000e+00  0.00000000e+00
  0.00000000e+00  0.00000000e+00  0.00000000e+00  0.00000000e+00
  0.00000000e+00  0.00000000e+00 -2.33605535e-07 -1.16381486e-07
  0.00000000e+00  0.00000000e+00  0.00000000e+00  2.65168640e-06]","[[-4.59139257e-05  2.31738791e-03]
 [-6.34922067e-05 -9.00188439e-04]]",[],0.0,0.0
1787146599.3760552,1.7654987748974318,1.0126023903742363,2.2143856592411986,"[ 3.12961565e-06  1.67904434e-07  0.00000000e+00  0.00000000e+00
  0.00000000e+00 -2.33605535e-07  1.67904434e-07  2.91324970e-06
  0.00000000e+00  0.00000000e+00  0.00000000e+00 -1.16381486e-07
  0.00000000e+00  0.00000000e+00  0.00000000e+00  0.00000000e+00
  0.00000000e+00  0.00000000e+00  0.00000000e+00  0.00000000e+00
  0.00000000e+00  0.00000000e+00  0.00000000e+00  0.00000000e+00
  0.00000000e+00  0.00000000e+00  0.00000000e+00  0.00000000e+00
  0.00000000e+00  0.00000000e+00 -2.33605535e-07 -1.16381486e-07
  0.00000000e+00  0.00000000e+00  0.00000000e+00  2.65168640e-06]","[[-4.59139257e-05  2.31738791e-03]
 [-6.34922067e-05 -9.00188439e-04]]",[],0.0,0.0
1787146599.426632,1.7654987748974318,1.0126023903742363,2.2143856592411986,"[ 3.12961565e-06  1.67904434e-07  0.00000000e+00  0.00000000e+00
  0.00000000e+00 -2.33605535e-07  1.67904434e-07  2.91324970e-06
  0.00000000e+00  0.00000000e+00  0.00000000e+00 -1.16381486e-07
  0.00000000e+00  0.00000000e+00  0.00000000e+00  0.00000000e+00
  0.00000000e+00  0.00000000e+00  0.00000000e+00  0.00000000e+00
  0.00000000e+00  0.00000000e+00  0.00000000e+00  0.00000000e+00
  0.00000000e+00  0.00000000e+00  0.00000000e+00  0.00000000e+00
  0.00000000e+00  0.00000000e+00 -2.33605535e-07 -1.16381486e-07
  0.00000000e+00  0.00000000e+00  0.00000000e+00  2.65168640e-06]","[[-4.59139257e-05  2.31738791e-03]
 [-6.34922067e-05 -9.00188439e-04]]",[],0.0,0.0
1787146599.479419,1.7665026483154216,1.0085322786072934,2.238671995366661,"[ 2.98362759e-06  1.22913094e-07  0.00000000e+00  0.00000000e+00
  0.00000000e+00 -2.50920878e-07  1.22913094e-07  2.81369836e-06
  0.00000000e+00  0.00000000e+00  0.00000000e+00 -1.36441818e-07
  0.00000000e+00  0.00000000e+00  0.00000000e+00  0.00000000e+00
  0.00000000e+00  0.00000000e+00  0.00000000e+00  0.00000000e+00
  0.00000000e+00  0.00000000e+00  0.00000000e+00  0.00000000e+00
  0.00000000e+00  0.00000000e+00  0.00000000e+00  0.00000000e+00
  0.00000000e+00  0.00000000e+00 -2.50920878e-07 -1.36441818e-07
  0.00000000e+00  0.00000000e+00  0.00000000e+00  2.83825481e-06]","[[ 6.40229220e-07  1.21194200e-03]
 [-7.01026249e-05  2.95777670e-04]]",[],0.0,0.0
1787146599.5254805,1.7665026483154216,1.0085322786072934,2.238671995366661,"[ 2.98362759e-06  1.22913094e-07  0.00000000e+00  0.00000000e+00
  0.00000000e+00 -2.50920878e-07  1.22913094e-07  2.81369836e-06
  0.00000000e+00  0.00000000e+00  0.00000000e+00 -1.36441818e-07
  0.00000000e+00  0.00000000e+00  0.00000000e+00  0.00000000e+00
  0.00000000e+00  0.00000000e+00  0.00000000e+00  0.00000000e+00
  0.00000000e+00  0.00000000e+00  0.00000000e+00  0.00000000e+00
  0.00000000e+00  0.00000000e+00  0.00000000e+00  0.00000000e+00
  0.00000000e+00  0.00000000e+00 -2.50920878e-07 -1.36441818e-07
  0.00000000e+00  0.00000000e+00  0.00000000e+00  2.83825481e-06]","[[ 6.40229220e-07  1.21194200e-03]
 [-7.01026249e-05  2.95777670e-04]]",[],0.0,0.0
1787146599.584574,1.7665026483154216,1.0085322786072934,2.238671995366661,"[ 2.98362759e-06  1.22913094e-07  0.00000000e+00  0.00000000e+00
  0.00000000e+00 -2.50920878e-07  1.22913094e-07  2.81369836e-06
  0.00000000e+00  0.00000000e+00  0.00000000e+00 -1.36441818e-07
  0.00000000e+00  0.00000000e+00  0.00000000e+00  0.00000000e+00
  0.00000000e+00  0.00000000e+00  0.00000000e+00  0.00000000e+00
  0.00000000e+00  0.00000000e+00  0.00000000e+00  0.00000000e+00
  0.00000000e+00  0.00000000e+00  0.00000000e+00  0.00000000e+00
  0.00000000e+00  0.00000000e+00 -2.50920878e-07 -1.36441818e-07
  0.00000000e+00  0.00000000e+00  0.00000000e+00  2.83825481e-06]","[[ 6.40229220e-07  1.21194200e-03]
 [-7.01026249e-05  2.95777670e-04]]",[],0.0,0.0
1787146599.6250327,1.7665026483154216,1.0085322786072934,2.238671995366661,"[ 2.98362759e-06  1.22913094e-07  0.00000000e+00  0.00000000e+00
  0.00000000e+00 -2.50920878e-07  1.22913094e-07  2.81369836e-06
  0.00000000e+00  0.00000000e+00  0.00000000e+00 -1.36441818e-07
  0.00000000e+00  0.00000000e+00  0.00000000e+00  0.00000000e+00
  0.00000000e+00  0.00000000e+00  0.00000000e+00  0.00000000e+00
  0.00000000e+00  0.00000000e+00  0.00000000e+00  0.00000000e+00
  0.00000000e+00  0.00000000e+00  0.00000000e+00  0.00000000e+00
  0.00000000e+00  0.00000000e+00 -2.50920878e-07 -1.36441818e-07
  0.00000000e+00  0.00000000e+00  0.00000000e+00  2.83825481e-06]","[[ 6.40229220e-07  1.21194200e-03]
 [-7.01026249e-05  2.95777670e-04]]",[],0.0,0.0
1787146599.6749952,1.7665026483154216,1.0085322786072934,2.238671995366661,"[ 2.98362759e-06  1.22913094e-07  0.00000000e+00  0.00000000e+00
  0.00000000e+00 -2.50920878e-07  1.22913094e-07  2.81369836e-06
  0.00000000e+00  0.00000000e+00  0.00000000e+00 -1.36441818e-07
  0.00000000e+00  0.00000000e+00  0.00000000e+00  0.00000000e+00
  0.00000000e+00  0.00000000e+00  0.00000000e+00  0.00000000e+00
  0.00000000e+00  0.00000000e+00  0.00000000e+00  0.00000000e+00
  0.00000000e+00  0.00000000e+00  0.00000000e+00  0.00000000e+00
  0.00000000e+00  0.00000000e+00 -2.50920878e-07 -1.36441818e-07
  0.00000000e+00  0.00000000e+00  0.00000000e+00  2.83825481e-06]","[[ 6.40229220e-07  1.21194200e-03]
 [-7.01026249e-05  2.95777670e-04]]",[],0.0,0.0
1787146599.7248743,1.7665026483154216,1.0085322786072934,2.238671995366661,"[ 2.98362759e-06  1.22913094e-07  0.00000000e+00  0.00000000e+00
  0.00000000e+00 -2.50920878e-07  1.22913094e-07  2.81369836e-06
  0.00000000e+00  0.00000000e+00  0.00000000e+00 -1.36441818e-07
  0.00000000e+00  0.00000000e+00  0.00000000e+00  0.00000000e+00
  0.00000000e+00  0.00000000e+00  0.00000000e+00  0.00000000e+00
  0.00000000e+00  0.00000000e+00  0.00000000e+00  0.00000000e+00
  0.00000000e+00  0.00000000e+00  0.00000000e+00  0.00000000e+00
  0.00000000e+00  0.00000000e+00 -2.50920878e-07 -1.36441818e-07
  0.00000000e+00  0.00000000e+00  0.00000000e+00  2.83825481e-06]","[[ 6.40229220e-07  1.21194200e-03]
 [-7.01026249e-05  2.95777670e-04]]",[],0.0,0.0
1787146599.7748232,1.7665026483154216,1.0085322786072934,2.238671995366661,"[ 2.98362759e-06  1.22913094e-07  0.00000000e+00  0.00000000e+00
  0.00000000e+00 -2.50920878e-07  1.22913094e-07  2.81369836e-06
  0.00000000e+00  0.00000000e+00  0.00000000e+00 -1.36441818e-07
  0.00000000e+00  0.00000000e+00  0.00000000e+00  0.00000000e+00
  0.00000000e+00  0.00000000e+00  0.00000000e+00  0.00000000e+00
  0.00000000e+00  0.00000000e+00  0.00000000e+00  0.00000000e+00
  0.00000000e+00  0.00000000e+00  0.00000000e+00  0.00000000e+00
  0.00000000e+00  0.00000000e+00 -2.50920878e-07 -1.36441818e-07
  0.00000000e+00  0.00000000e+00  0.00000000e+00  2.83825481e-06]","[[ 6.40229220e-07  1.21194200e-03]
 [-7.01026249e-05  2.95777670e-04]]",[],0.0,0.0
1787146599.8293674,1.7665026483154216,1.0085322786072934,2.238671995366661,"[ 2.98362759e-06  1.22913094e-07  0.00000000e+00  0.00000000e+00
  0.00000000e+00 -2.50920878e-07  1.22913094e-07  2.81369836e-06
  0.00000000e+00  0.00000000e+00  0.00000000e+00 -1.36441818e-07
  0.00000000e+00  0.00000000e+00  0.00000000e+00  0.00000000e+00
  0.00000000e+00  0.00000000e+00  0.00000000e+00  0.00000000e+00
  0.00000000e+00  0.00000000e+00  0.00000000e+00  0.00000000e+00
  0.00000000e+00  0.00000000e+00  0.00000000e+00  0.00000000e+00
  0.00000000e+00  0.00000000e+00 -2.50920878e-07 -1.36441818e-07
  0.00000000e+00  0.00000000e+00  0.00000000e+00  2.83825481e-06]","[[ 6.40229220e-07  1.21194200e-03]
 [-7.01026249e-05  2.95777670e-04]]",[],0.0,0.0
1787146599.8786628,1.7665026483154216,1.0085322786072934,2.238671995366661,"[ 2.98362759e-06  1.22913094e-07  0.00000000e+00  0.00000000e+00
  0.00000000e+00 -2.50920878e-07  1.22913094e-07  2.81369836e-06
  0.00000000e+00  0.00000000e+00  0.00000000e+00 -1.36441818e-07
  0.00000000e+00  0.00000000e+00  0.00000000e+00  0.00000000e+00
  0.00000000e+00  0.00000000e+00  0.00000000e+00  0.00000000e+00
  0.00000000e+00  0.00000000e+00  0.00000000e+00  0.00000000e+00
  0.00000000e+00  0.00000000e+00  0.00000000e+00  0.00000000e+00
  0.00000000e+00  0.00000000e+00 -2.50920878e-07 -1.36441818e-07
  0.00000000e+00  0.00000000e+00  0.00000000e+00  2.83825481e-06]","[[ 6.40229220e-07  1.21194200e-03]
 [-7.01026249e-05  2.95777670e-04]]",[],0.0,0.0
1787146599.9242654,1.7678466680340323,1.00459985543203,2.2491153764291685,"[ 2.85127497e-06  8.97300251e-08  0.00000000e+00  0.00000000e+00
  0.00000000e+00 -2.34989429e-07  8.97300251e-08  2.71429272e-06
  0.00000000e+00  0.00000000e+00  0.00000000e+00 -1.14369019e-07
  0.00000000e+00  0.00000000e+00  0.00000000e+00  0.00000000e+00
  0.00000000e+00  0.00000000e+00  0.00000000e+00  0.00000000e+00
  0.00000000e+00  0.00000000e+00  0.00000000e+00  0.00000000e+00
  0.00000000e+00  0.00000000e+00  0.00000000e+00  0.00000000e+00
  0.00000000e+00  0.00000000e+00 -2.34989429e-07 -1.14369019e-07
  0.00000000e+00  0.00000000e+00  0.00000000e+00  2.84540483e-06]","[[ 1.31343944e-06  1.14936550e-03]
 [-6.76610866e-05  2.49158667e-04]]",[],0.0,0.0
1787146599.9813313,1.7678466680340323,1.00459985543203,2.2491153764291685,"[ 2.85127497e-06  8.97300251e-08  0.00000000e+00  0.00000000e+00
  0.00000000e+00 -2.34989429e-07  8.97300251e-08  2.71429272e-06
  0.00000000e+00  0.00000000e+00  0.00000000e+00 -1.14369019e-07
  0.00000000e+00  0.00000000e+00  0.00000000e+00  0.00000000e+00
  0.00000000e+00  0.00000000e+00  0.00000000e+00  0.00000000e+00
  0.00000000e+00  0.00000000e+00  0.00000000e+00  0.00000000e+00
  0.00000000e+00  0.00000000e+00  0.00000000e+00  0.00000000e+00
  0.00000000e+00  0.00000000e+00 -2.34989429e-07 -1.14369019e-07
  0.00000000e+00  0.00000000e+00  0.00000000e+00  2.84540483e-06]","[[ 1.31343944e-06  1.14936550e-03]
 [-6.76610866e-05  2.49158667e-04]]",[],0.0,0.0
1787146600.0245268,1.7678466680340323,1.00459985543203,2.2491153764291685,"[ 2.85127497e-06  8.97300251e-08  0.00000000e+00  0.00000000e+00
  0.00000000e+00 -2.34989429e-07  8.97300251e-08  2.71429272e-06
  0.00000000e+00  0.00000000e+00  0.00000000e+00 -1.14369019e-07
  0.00000000e+00  0.00000000e+00  0.00000000e+00  0.00000000e+00
  0.00000000e+00  0.00000000e+00  0.00000000e+00  0.00000000e+00
  0.00000000e+00  0.00000000e+00  0.00000000e+00  0.00000000e+00
  0.00000000e+00  0.00000000e+00  0.00000000e+00  0.00000000e+00
  0.00000000e+00  0.00000000e+00 -2.34989429e-07 -1.14369019e-07
  0.00000000e+00  0.00000000e+00  0.00000000e+00  2.84540483e-06]","[[ 1.31343944e-06  1.14936550e-03]
 [-6.76610866e-05  2.49158667e-04]]",[],0.0,0.0
1787146600.0809896,1.7678466680340323,1.00459985543203,2.2491153764291685,"[ 2.85127497e-06  8.97300251e-08  0.00000000e+00  0.00000000e+00
  0.00000000e+00 -2.34989429e-07  8.97300251e-08  2.71429272e-06
  0.00000000e+00  0.00000000e+00  0.00000000e+00 -1.14369019e-07
  0.00000000e+00  0.00000000e+00  0.00000000e+00  0.00000000e+00
  0.00000000e+00  0.00000000e+00  0.00000000e+00  0.00000000e+00
  0.00000000e+00  0.00000000e+00  0.00000000e+00  0.00000000e+00
  0.00000000e+00  0.00000000e+00  0.00000000e+00  0.00000000e+00
  0.00000000e+00  0.00000000e+00 -2.34989429e-07 -1.14369019e-07
  0.00000000e+00  0.00000000e+00  0.00000000e+00  2.84540483e-06]","[[ 1.31343944e-06  1.14936550e-03]
 [-6.76610866e-05  2.49158667e-04]]",[],0.0,0.0
1787146600.125886,1.7678466680340323,1.00459985543203,2.2491153764291685,"[ 2.85127497e-06  8.97300251e-08  0.00000000e+00  0.00000000e+00
  0.00000000e+00 -2.34989429e-07  8.97300251e-08  2.71429272e-06
  0.00000000e+00  0.00000000e+00  0.00000000e+00 -1.14369019e-07
  0.00000000e+00  0.00000000e+00  0.00000000e+00  0.00000000e+00
  0.00000000e+00  0.00000000e+00  0.00000000e+00  0.00000000e+00
  0.00000000e+00  0.00000000e+00  0.00000000e+00  0.00000000e+00
  0.00000000e+00  0.00000000e+00  0.00000000e+00  0.00000000e+00
  0.00000000e+00  0.00000000e+00 -2.34989429e-07 -1.14369019e-07
  0.00000000e+00  0.00000000e+00  0.00000000e+00  2.84540483e-06]","[[ 1.31343944e-06  1.14936550e-03]
 [-6.76610866e-05  2.49158667e-04]]",[],0.0,0.0
1787146600.1750178,1.7678466680340323,1.00459985543203,2.2491153764291685,"[ 2.85127497e-06  8.97300251e-08  0.00000000e+00  0.00000000e+00
  0.00000000e+00 -2.34989429e-07  8.97300251e-08  2.71429272e-06
  0.00000000e+00  0.00000000e+00  0.00000000e+00 -1.14369019e-07
  0.00000000e+00  0.00000000e+00  0.00000000e+00  0.00000000e+00
  0.00000000e+00  0.00000000e+00  0.00000000e+00  0.00000000e+00
  0.00000000e+00  0.00000000e+00  0.00000000e+00  0.00000000e+00
  0.00000000e+00  0.00000000e+00  0.00000000e+00  0.00000000e+00
  0.00000000e+00  0.00000000e+00 -2.34989429e-07 -1.14369019e-07
  0.00000000e+00  0.00000000e+00  0.00000000e+00  2.84540483e-06]","[[ 1.31343944e-06  1.14936550e-03]
 [-6.76610866e-05  2.49158667e-04]]",[],0.0,0.0
1787146600.2298539,1.7678466680340323,1.00459985543203,2.2491153764291685,"[ 2.85127497e-06  8.97300251e-08  0.00000000e+00  0.00000000e+00
  0.00000000e+00 -2.34989429e-07  8.97300251e-08  2.71429272e-06
  0.00000000e+00  0.00000000e+00  0.00000000e+00 -1.14369019e-07
  0.00000000e+00  0.00000000e+00  0.00000000e+00  0.00000000e+00
  0.00000000e+00  0.00000000e+00  0.00000000e+00  0.00000000e+00
  0.00000000e+00  0.00000000e+00  0.00000000e+00  0.00000000e+00
  0.00000000e+00  0.00000000e+00  0.00000000e+00  0.00000000e+00
  0.00000000e+00  0.00000000e+00 -2.34989429e-07 -1.14369019e-07
  0.00000000e+00  0.00000000e+00  0.00000000e+00  2.84540483e-06]","[[ 1.31343944e-06  1.14936550e-03]
 [-6.76610866e-05  2.49158667e-04]]",[],0.0,0.0
1787146600.276234,1.7678466680340323,1.00459985543203,2.2491153764291685,"[ 2.85127497e-06  8.97300251e-08  0.00000000e+00  0.00000000e+00
  0.00000000e+00 -2.34989429e-07  8.97300251e-08  2.71429272e-06
  0.00000000e+00  0.00000000e+00  0.00000000e+00 -1.14369019e-07
  0.00000000e+00  0.00000000e+00  0.00000000e+00  0.00000000e+00
  0.00000000e+00  0.00000000e+00  0.00000000e+00  0.00000000e+00
  0.00000000e+00  0.00000000e+00  0.00000000e+00  0.00000000e+00
  0.00000000e+00  0.00000000e+00  0.00000000e+00  0.00000000e+00
  0.00000000e+00  0.00000000e+00 -2.34989429e-07 -1.14369019e-07
  0.00000000e+00  0.00000000e+00  0.00000000e+00  2.84540483e-06]","[[ 1.31343944e-06  1.14936550e-03]
 [-6.76610866e-05  2.49158667e-04]]",[],0.0,0.0
1787146600.3266428,1.7678466680340323,1.00459985543203,2.2491153764291685,"[ 2.85127497e-06  8.97300251e-08  0.00000000e+00  0.00000000e+00
  0.00000000e+00 -2.34989429e-07  8.97300251e-08  2.71429272e-06
  0.00000000e+00  0.00000000e+00  0.00000000e+00 -1.14369019e-07
  0.00000000e+00  0.00000000e+00  0.00000000e+00  0.00000000e+00
  0.00000000e+00  0.00000000e+00  0.00000000e+00  0.00000000e+00
  0.00000000e+00  0.00000000e+00  0.00000000e+00  0.00000000e+00
  0.00000000e+00  0.00000000e+00  0.00000000e+00  0.00000000e+00
  0.00000000e+00  0.00000000e+00 -2.34989429e-07 -1.14369019e-07
  0.00000000e+00  0.00000000e+00  0.00000000e+00  2.84540483e-06]","[[ 1.31343944e-06  1.14936550e-03]
 [-6.76610866e-05  2.49158667e-04]]",[],0.0,0.0
1787146600.3779643,1.7678466680340323,1.00459985543203,2.2491153764291685,"[ 2.85127497e-06  8.97300251e-08  0.00000000e+00  0.00000000e+00
  0.00000000e+00 -2.34989429e-07  8.97300251e-08  2.71429272e-06
  0.00000000e+00  0.00000000e+00  0.00000000e+00 -1.14369019e-07
  0.00000000e+00  0.00000000e+00  0.00000000e+00  0.00000000e+00
  0.00000000e+00  0.00000000e+00  0.00000000e+00  0.00000000e+00
  0.00000000e+00  0.00000000e+00  0.00000000e+00  0.00000000e+00
  0.00000000e+00  0.00000000e+00  0.00000000e+00  0.00000000e+00
  0.00000000e+00  0.00000000e+00 -2.34989429e-07 -1.14369019e-07
  0.00000000e+00  0.00000000e+00  0.00000000e+00  2.84540483e-06]","[[ 1.31343944e-06  1.14936550e-03]
 [-6.76610866e-05  2.49158667e-04]]",[],0.0,0.0
1787146600.4260576,1.7678466680340323,1.00459985543203,2.2491153764291685,"[ 2.85127497e-06  8.97300251e-08  0.00000000e+00  0.00000000e+00
  0.00000000e+00 -2.34989429e-07  8.97300251e-08  2.71429272e-06
  0.00000000e+00  0.00000000e+00  0.00000000e+00 -1.14369019e-07
  0.00000000e+00  0.00000000e+00  0.00000000e+00  0.00000000e+00
  0.00000000e+00  0.00000000e+00  0.00000000e+00  0.00000000e+00
  0.00000000e+00  0.00000000e+00  0.00000000e+00  0.00000000e+00
  0.00000000e+00  0.00000000e+00  0.00000000e+00  0.00000000e+00
  0.00000000e+00  0.00000000e+00 -2.34989429e-07 -1.14369019e-07
  0.00000000e+00  0.00000000e+00  0.00000000e+00  2.84540483e-06]","[[ 1.31343944e-06  1.14936550e-03]
 [-6.76610866e-05  2.49158667e-04]]",[],0.0,0.0
1787146600.4781,1.768981301460559,1.0005925732090362,2.2653379081569627,"[ 2.73376896e-06  5.33548445e-08  0.00000000e+00  0.00000000e+00
  0.00000000e+00 -2.30170528e-07  5.33548445e-08  2.63439796e-06
  0.00000000e+00  0.00000000e+00  0.00000000e+00 -1.13511437e-07
  0.00000000e+00  0.00000000e+00  0.00000000e+00  0.00000000e+00
  0.00000000e+00  0.00000000e+00  0.00000000e+00  0.00000000e+00
  0.00000000e+00  0.00000000e+00  0.00000000e+00  0.00000000e+00
  0.00000000e+00  0.00000000e+00  0.00000000e+00  0.00000000e+00
  0.00000000e+00  0.00000000e+00 -2.30170528e-07 -1.13511437e-07
  0.00000000e+00  0.00000000e+00  0.00000000e+00  2.89850472e-06]","[[ 2.08784668e-06  1.10913765e-03]
 [-6.57106868e-05  2.37086207e-04]]",[],0.0,0.0
1787146600.5258136,1.768981301460559,1.0005925732090362,2.2653379081569627,"[ 2.73376896e-06  5.33548445e-08  0.00000000e+00  0.00000000e+00
  0.00000000e+00 -2.30170528e-07  5.33548445e-08  2.63439796e-06
  0.00000000e+00  0.00000000e+00  0.00000000e+00 -1.13511437e-07
  0.00000000e+00  0.00000000e+00  0.00000000e+00  0.00000000e+00
  0.00000000e+00  0.00000000e+00  0.00000000e+00  0.00000000e+00
  0.00000000e+00  0.00000000e+00  0.00000000e+00  0.00000000e+00
  0.00000000e+00  0.00000000e+00  0.00000000e+00  0.00000000e+00
  0.00000000e+00  0.00000000e+00 -2.30170528e-07 -1.13511437e-07
  0.00000000e+00  0.00000000e+00  0.00000000e+00  2.89850472e-06]","[[ 2.08784668e-06  1.10913765e-03]
 [-6.57106868e-05  2.37086207e-04]]",[],0.0,0.0
1787146600.5752697,1.768981301460559,1.0005925732090362,2.2653379081569627,"[ 2.73376896e-06  5.33548445e-08  0.00000000e+00  0.00000000e+00
  0.00000000e+00 -2.30170528e-07  5.33548445e-08  2.63439796e-06
  0.00000000e+00  0.00000000e+00  0.00000000e+00 -1.13511437e-07
  0.00000000e+00  0.00000000e+00  0.00000000e+00  0.00000000e+00
  0.00000000e+00  0.00000000e+00  0.00000000e+00  0.00000000e+00
  0.00000000e+00  0.00000000e+00  0.00000000e+00  0.00000000e+00
  0.00000000e+00  0.00000000e+00  0.00000000e+00  0.00000000e+00
  0.00000000e+00  0.00000000e+00 -2.30170528e-07 -1.13511437e-07
  0.00000000e+00  0.00000000e+00  0.00000000e+00  2.89850472e-06]","[[ 2.08784668e-06  1.10913765e-03]
 [-6.57106868e-05  2.37086207e-04]]",[],0.0,0.0
1787146600.6348872,1.768981301460559,1.0005925732090362,2.2653379081569627,"[ 2.73376896e-06  5.33548445e-08  0.00000000e+00  0.00000000e+00
  0.00000000e+00 -2.30170528e-07  5.33548445e-08  2.63439796e-06
  0.00000000e+00  0.00000000e+00  0.00000000e+00 -1.13511437e-07
  0.00000000e+00  0.00000000e+00  0.00000000e+00  0.00000000e+00
  0.00000000e+00  0.00000000e+00  0.00000000e+00  0.00000000e+00
  0.00000000e+00  0.00000000e+00  0.00000000e+00  0.00000000e+00
  0.00000000e+00  0.00000000e+00  0.00000000e+00  0.00000000e+00
  0.00000000e+00  0.00000000e+00 -2.30170528e-07 -1.13511437e-07
  0.00000000e+00  0.00000000e+00  0.00000000e+00  2.89850472e-06]","[[ 2.08784668e-06  1.10913765e-03]
 [-6.57106868e-05  2.37086207e-04]]",[],0.0,0.0
1787146600.674431,1.768981301460559,1.0005925732090362,2.2653379081569627,"[ 2.73376896e-06  5.33548445e-08  0.00000000e+00  0.00000000e+00
  0.00000000e+00 -2.30170528e-07  5.33548445e-08  2.63439796e-06
  0.00000000e+00  0.00000000e+00  0.00000000e+00 -1.13511437e-07
  0.00000000e+00  0.00000000e+00  0.00000000e+00  0.00000000e+00
  0.00000000e+00  0.00000000e+00  0.00000000e+00  0.00000000e+00
  0.00000000e+00  0.00000000e+00  0.00000000e+00  0.00000000e+00
  0.00000000e+00  0.00000000e+00  0.00000000e+00  0.00000000e+00
  0.00000000e+00  0.00000000e+00 -2.30170528e-07 -1.13511437e-07
  0.00000000e+00  0.00000000e+00  0.00000000e+00  2.89850472e-06]","[[ 2.08784668e-06  1.10913765e-03]
 [-6.57106868e-05  2.37086207e-04]]",[],0.0,0.0
1787146600.7259068,1.768981301460559,1.0005925732090362,2.2653379081569627,"[ 2.73376896e-06  5.33548445e-08  0.00000000e+00  0.00000000e+00
  0.00000000e+00 -2.30170528e-07  5.33548445e-08  2.63439796e-06
  0.00000000e+00  0.00000000e+00  0.00000000e+00 -1.13511437e-07
  0.00000000e+00  0.00000000e+00  0.00000000e+00  0.00000000e+00
  0.00000000e+00  0.00000000e+00  0.00000000e+00  0.00000000e+00
  0.00000000e+00  0.00000000e+00  0.00000000e+00  0.00000000e+00
  0.00000000e+00  0.00000000e+00  0.00000000e+00  0.00000000e+00
  0.00000000e+00  0.00000000e+00 -2.30170528e-07 -1.13511437e-07
  0.00000000e+00  0.00000000e+00  0.00000000e+00  2.89850472e-06]","[[ 2.08784668e-06  1.10913765e-03]
 [-6.57106868e-05  2.37086207e-04]]",[],0.0,0.0
1787146600.7834613,1.768981301460559,1.0005925732090362,2.2653379081569627,"[ 2.73376896e-06  5.33548445e-08  0.00000000e+00  0.00000000e+00
  0.00000000e+00 -2.30170528e-07  5.33548445e-08  2.63439796e-06
  0.00000000e+00  0.00000000e+00  0.00000000e+00 -1.13511437e-07
  0.00000000e+00  0.00000000e+00  0.00000000e+00  0.00000000e+00
  0.00000000e+00  0.00000000e+00  0.00000000e+00  0.00000000e+00
  0.00000000e+00  0.00000000e+00  0.00000000e+00  0.00000000e+00
  0.00000000e+00  0.00000000e+00  0.00000000e+00  0.00000000e+00
  0.00000000e+00  0.00000000e+00 -2.30170528e-07 -1.13511437e-07
  0.00000000e+00  0.00000000e+00  0.00000000e+00  2.89850472e-06]","[[ 2.08784668e-06  1.10913765e-03]
 [-6.57106868e-05  2.37086207e-04]]",[],0.0,0.0
1787146600.8250344,1.768981301460559,1.0005925732090362,2.2653379081569627,"[ 2.73376896e-06  5.33548445e-08  0.00000000e+00  0.00000000e+00
  0.00000000e+00 -2.30170528e-07  5.33548445e-08  2.63439796e-06
  0.00000000e+00  0.00000000e+00  0.00000000e+00 -1.13511437e-07
  0.00000000e+00  0.00000000e+00  0.00000000e+00  0.00000000e+00
  0.00000000e+00  0.00000000e+00  0.00000000e+00  0.00000000e+00
  0.00000000e+00  0.00000000e+00  0.00000000e+00  0.00000000e+00
  0.00000000e+00  0.00000000e+00  0.00000000e+00  0.00000000e+00
  0.00000000e+00  0.00000000e+00 -2.30170528e-07 -1.13511437e-07
  0.00000000e+00  0.00000000e+00  0.00000000e+00  2.89850472e-06]","[[ 2.08784668e-06  1.10913765e-03]
 [-6.57106868e-05  2.37086207e-04]]",[],0.0,0.0
1787146600.8831587,1.768981301460559,1.0005925732090362,2.2653379081569627,"[ 2.73376896e-06  5.33548445e-08  0.00000000e+00  0.00000000e+00
  0.00000000e+00 -2.30170528e-07  5.33548445e-08  2.63439796e-06
  0.00000000e+00  0.00000000e+00  0.00000000e+00 -1.13511437e-07
  0.00000000e+00  0.00000000e+00  0.00000000e+00  0.00000000e+00
  0.00000000e+00  0.00000000e+00  0.00000000e+00  0.00000000e+00
  0.00000000e+00  0.00000000e+00  0.00000000e+00  0.00000000e+00
  0.00000000e+00  0.00000000e+00  0.00000000e+00  0.00000000e+00
  0.00000000e+00  0.00000000e+00 -2.30170528e-07 -1.13511437e-07
  0.00000000e+00  0.00000000e+00  0.00000000e+00  2.89850472e-06]","[[ 2.08784668e-06  1.10913765e-03]
 [-6.57106868e-05  2.37086207e-04]]",[],0.0,0.0
1787146600.9252913,1.768981301460559,1.0005925732090362,2.2653379081569627,"[ 2.73376896e-06  5.33548445e-08  0.00000000e+00  0.00000000e+00
  0.00000000e+00 -2.30170528e-07  5.33548445e-08  2.63439796e-06
  0.00000000e+00  0.00000000e+00  0.00000000e+00 -1.13511437e-07
  0.00000000e+00  0.00000000e+00  0.00000000e+00  0.00000000e+00
  0.00000000e+00  0.00000000e+00  0.00000000e+00  0.00000000e+00
  0.00000000e+00  0.00000000e+00  0.00000000e+00  0.00000000e+00
  0.00000000e+00  0.00000000e+00  0.00000000e+00  0.00000000e+00
  0.00000000e+00  0.00000000e+00 -2.30170528e-07 -1.13511437e-07
  0.00000000e+00  0.00000000e+00  0.00000000e+00  2.89850472e-06]","[[ 2.08784668e-06  1.10913765e-03]
 [-6.57106868e-05  2.37086207e-04]]",[],0.0,0.0
1787146600.9749496,1.770617417215173,0.9973160362968677,2.285995755652129,"[ 2.63397669e-06  9.21147527e-09  0.00000000e+00  0.00000000e+00
  0.00000000e+00 -2.05076887e-07  9.21147527e-09  2.56017124e-06
  0.00000000e+00  0.00000000e+00  0.00000000e+00 -9.50664218e-08
  0.00000000e+00  0.00000000e+00  0.00000000e+00  0.00000000e+00
  0.00000000e+00  0.00000000e+00  0.00000000e+00  0.00000000e+00
  0.00000000e+00  0.00000000e+00  0.00000000e+00  0.00000000e+00
  0.00000000e+00  0.00000000e+00  0.00000000e+00  0.00000000e+00
  0.00000000e+00  0.00000000e+00 -2.05076887e-07 -9.50664218e-08
  0.00000000e+00  0.00000000e+00  0.00000000e+00  2.89555041e-06]","[[-2.96561786e-05  2.25985075e-03]
 [-5.73494564e-05 -7.71144862e-04]]",[],0.0,0.0
1787146601.0355225,1.770617417215173,0.9973160362968677,2.285995755652129,"[ 2.63397669e-06  9.21147527e-09  0.00000000e+00  0.00000000e+00
  0.00000000e+00 -2.05076887e-07  9.21147527e-09  2.56017124e-06
  0.00000000e+00  0.00000000e+00  0.00000000e+00 -9.50664218e-08
  0.00000000e+00  0.00000000e+00  0.00000000e+00  0.00000000e+00
  0.00000000e+00  0.00000000e+00  0.00000000e+00  0.00000000e+00
  0.00000000e+00  0.00000000e+00  0.00000000e+00  0.00000000e+00
  0.00000000e+00  0.00000000e+00  0.00000000e+00  0.00000000e+00
  0.00000000e+00  0.00000000e+00 -2.05076887e-07 -9.50664218e-08
  0.00000000e+00  0.00000000e+00  0.00000000e+00  2.89555041e-06]","[[-2.96561786e-05  2.25985075e-03]
 [-5.73494564e-05 -7.71144862e-04]]",[],0.0,0.0
1787146601.075479,1.770617417215173,0.9973160362968677,2.285995755652129,"[ 2.63397669e-06  9.21147527e-09  0.00000000e+00  0.00000000e+00
  0.00000000e+00 -2.05076887e-07  9.21147527e-09  2.56017124e-06
  0.00000000e+00  0.00000000e+00  0.00000000e+00 -9.50664218e-08
  0.00000000e+00  0.00000000e+00  0.00000000e+00  0.00000000e+00
  0.00000000e+00  0.00000000e+00  0.00000000e+00  0.00000000e+00
  0.00000000e+00  0.00000000e+00  0.00000000e+00  0.00000000e+00
  0.00000000e+00  0.00000000e+00  0.00000000e+00  0.00000000e+00
  0.00000000e+00  0.00000000e+00 -2.05076887e-07 -9.50664218e-08
  0.00000000e+00  0.00000000e+00  0.00000000e+00  2.89555041e-06]","[[-2.96561786e-05  2.25985075e-03]
 [-5.73494564e-05 -7.71144862e-04]]",[],0.0,0.0
1787146601.133728,1.770617417215173,0.9973160362968677,2.285995755652129,"[ 2.63397669e-06  9.21147527e-09  0.00000000e+00  0.00000000e+00
  0.00000000e+00 -2.05076887e-07  9.21147527e-09  2.56017124e-06
  0.00000000e+00  0.00000000e+00  0.00000000e+00 -9.50664218e-08
  0.00000000e+00  0.00000000e+00  0.00000000e+00  0.00000000e+00
  0.00000000e+00  0.00000000e+00  0.00000000e+00  0.00000000e+00
  0.00000000e+00  0.00000000e+00  0.00000000e+00  0.00000000e+00
  0.00000000e+00  0.00000000e+00  0.00000000e+00  0.00000000e+00
  0.00000000e+00  0.00000000e+00 -2.05076887e-07 -9.50664218e-08
  0.00000000e+00  0.00000000e+00  0.00000000e+00  2.89555041e-06]","[[-2.96561786e-05  2.25985075e-03]
 [-5.73494564e-05 -7.71144862e-04]]",[],0.0,0.0
1787146601.1767468,1.770617417215173,0.9973160362968677,2.285995755652129,"[ 2.63397669e-06  9.21147527e-09  0.00000000e+00  0.00000000e+00
  0.00000000e+00 -2.05076887e-07  9.21147527e-09  2.56017124e-06
  0.00000000e+00  0.00000000e+00  0.00000000e+00 -9.50664218e-08
  0.00000000e+00  0.00000000e+00  0.00000000e+00  0.00000000e+00
  0.00000000e+00  0.00000000e+00  0.00000000e+00  0.00000000e+00
  0.00000000e+00  0.00000000e+00  0.00000000e+00  0.00000000e+00
  0.00000000e+00  0.00000000e+00  0.00000000e+00  0.00000000e+00
  0.00000000e+00  0.00000000e+00 -2.05076887e-07 -9.50664218e-08
  0.00000000e+00  0.00000000e+00  0.00000000e+00  2.89555041e-06]","[[-2.96561786e-05  2.25985075e-03]
 [-5.73494564e-05 -7.71144862e-04]]",[],0.0,0.0
1787146601.2263966,1.770617417215173,0.9973160362968677,2.285995755652129,"[ 2.63397669e-06  9.21147527e-09  0.00000000e+00  0.00000000e+00
  0.00000000e+00 -2.05076887e-07  9.21147527e-09  2.56017124e-06
  0.00000000e+00  0.00000000e+00  0.00000000e+00 -9.50664218e-08
  0.00000000e+00  0.00000000e+00  0.00000000e+00  0.00000000e+00
  0.00000000e+00  0.00000000e+00  0.00000000e+00  0.00000000e+00
  0.00000000e+00  0.00000000e+00  0.00000000e+00  0.00000000e+00
  0.00000000e+00  0.00000000e+00  0.00000000e+00  0.00000000e+00
  0.00000000e+00  0.00000000e+00 -2.05076887e-07 -9.50664218e-08
  0.00000000e+00  0.00000000e+00  0.00000000e+00  2.89555041e-06]","[[-2.96561786e-05  2.25985075e-03]
 [-5.73494564e-05 -7.71144862e-04]]",[],0.0,0.0
1787146601.2768133,1.770617417215173,0.9973160362968677,2.285995755652129,"[ 2.63397669e-06  9.21147527e-09  0.00000000e+00  0.00000000e+00
  0.00000000e+00 -2.05076887e-07  9.21147527e-09  2.56017124e-06
  0.00000000e+00  0.00000000e+00  0.00000000e+00 -9.50664218e-08
  0.00000000e+00  0.00000000e+00  0.00000000e+00  0.00000000e+00
  0.00000000e+00  0.00000000e+00  0.00000000e+00  0.00000000e+00
  0.00000000e+00  0.00000000e+00  0.00000000e+00  0.00000000e+00
  0.00000000e+00  0.00000000e+00  0.00000000e+00  0.00000000e+00
  0.00000000e+00  0.00000000e+00 -2.05076887e-07 -9.50664218e-08
  0.00000000e+00  0.00000000e+00  0.00000000e+00  2.89555041e-06]","[[-2.96561786e-05  2.25985075e-03]
 [-5.73494564e-05 -7.71144862e-04]]",[],0.0,0.0
1787146601.325421,1.770617417215173,0.9973160362968677,2.285995755652129,"[ 2.63397669e-06  9.21147527e-09  0.00000000e+00  0.00000000e+00
  0.00000000e+00 -2.05076887e-07  9.21147527e-09  2.56017124e-06
  0.00000000e+00  0.00000000e+00  0.00000000e+00 -9.50664218e-08
  0.00000000e+00  0.00000000e+00  0.00000000e+00  0.00000000e+00
  0.00000000e+00  0.00000000e+00  0.00000000e+00  0.00000000e+00
  0.00000000e+00  0.00000000e+00  0.00000000e+00  0.00000000e+00
  0.00000000e+00  0.00000000e+00  0.00000000e+00  0.00000000e+00
  0.00000000e+00  0.00000000e+00 -2.05076887e-07 -9.50664218e-08
  0.00000000e+00  0.00000000e+00  0.00000000e+00  2.89555041e-06]","[[-2.96561786e-05  2.25985075e-03]
 [-5.73494564e-05 -7.71144862e-04]]",[],0.0,0.0
1787146601.374815,1.770617417215173,0.9973160362968677,2.285995755652129,"[ 2.63397669e-06  9.21147527e-09  0.00000000e+00  0.00000000e+00
  0.00000000e+00 -2.05076887e-07  9.21147527e-09  2.56017124e-06
  0.00000000e+00  0.00000000e+00  0.00000000e+00 -9.50664218e-08
  0.00000000e+00  0.00000000e+00  0.00000000e+00  0.00000000e+00
  0.00000000e+00  0.00000000e+00  0.00000000e+00  0.00000000e+00
  0.00000000e+00  0.00000000e+00  0.00000000e+00  0.00000000e+00
  0.00000000e+00  0.00000000e+00  0.00000000e+00  0.00000000e+00
  0.00000000e+00  0.00000000e+00 -2.05076887e-07 -9.50664218e-08
  0.00000000e+00  0.00000000e+00  0.00000000e+00  2.89555041e-06]","[[-2.96561786e-05  2.25985075e-03]
 [-5.73494564e-05 -7.71144862e-04]]",[],0.0,0.0
1787146601.4337375,1.770617417215173,0.9973160362968677,2.285995755652129,"[ 2.63397669e-06  9.21147527e-09  0.00000000e+00  0.00000000e+00
  0.00000000e+00 -2.05076887e-07  9.21147527e-09  2.56017124e-06
  0.00000000e+00  0.00000000e+00  0.00000000e+00 -9.50664218e-08
  0.00000000e+00  0.00000000e+00  0.00000000e+00  0.00000000e+00
  0.00000000e+00  0.00000000e+00  0.00000000e+00  0.00000000e+00
  0.00000000e+00  0.00000000e+00  0.00000000e+00  0.00000000e+00
  0.00000000e+00  0.00000000e+00  0.00000000e+00  0.00000000e+00
  0.00000000e+00  0.00000000e+00 -2.05076887e-07 -9.50664218e-08
  0.00000000e+00  0.00000000e+00  0.00000000e+00  2.89555041e-06]","[[-2.96561786e-05  2.25985075e-03]
 [-5.73494564e-05 -7.71144862e-04]]",[],0.0,0.0
1787146601.4746153,1.7735222011122866,0.9946836227648921,2.3052302896011962,"[ 2.54116279e-06 -2.36682582e-08  0.00000000e+00  0.00000000e+00
  0.00000000e+00 -1.92282524e-07 -2.36682582e-08  2.48688287e-06
  0.00000000e+00  0.00000000e+00  0.00000000e+00 -1.03840891e-07
  0.00000000e+00  0.00000000e+00  0.00000000e+00  0.00000000e+00
  0.00000000e+00  0.00000000e+00  0.00000000e+00  0.00000000e+00
  0.00000000e+00  0.00000000e+00  0.00000000e+00  0.00000000e+00
  0.00000000e+00  0.00000000e+00  0.00000000e+00  0.00000000e+00
  0.00000000e+00  0.00000000e+00 -1.92282524e-07 -1.03840891e-07
  0.00000000e+00  0.00000000e+00  0.00000000e+00  2.87418103e-06]","[[ 5.32148293e-05  1.02373059e-03]
 [-3.49388756e-05  1.21751172e-03]]",[],0.0,0.0
1787146601.8550315,1.7735222011122866,0.9946836227648921,2.3052302896011962,"[ 2.54116279e-06 -2.36682582e-08  0.00000000e+00  0.00000000e+00
  0.00000000e+00 -1.92282524e-07 -2.36682582e-08  2.48688287e-06
  0.00000000e+00  0.00000000e+00  0.00000000e+00 -1.03840891e-07
  0.00000000e+00  0.00000000e+00  0.00000000e+00  0.00000000e+00
  0.00000000e+00  0.00000000e+00  0.00000000e+00  0.00000000e+00
  0.00000000e+00  0.00000000e+00  0.00000000e+00  0.00000000e+00
  0.00000000e+00  0.00000000e+00  0.00000000e+00  0.00000000e+00
  0.00000000e+00  0.00000000e+00 -1.92282524e-07 -1.03840891e-07
  0.00000000e+00  0.00000000e+00  0.00000000e+00  2.87418103e-06]","[[ 5.32148293e-05  1.02373059e-03]
 [-3.49388756e-05  1.21751172e-03]]",[],0.0,0.0
1787146602.2462873,1.7755268634343624,0.9921246111722027,2.3164803921843706,"[ 2.44533178e-06 -4.14637177e-08  0.00000000e+00  0.00000000e+00
  0.00000000e+00 -1.62334728e-07 -4.14637177e-08  2.39970173e-06
  0.00000000e+00  0.00000000e+00  0.00000000e+00 -1.08171772e-07
  0.00000000e+00  0.00000000e+00  0.00000000e+00  0.00000000e+00
  0.00000000e+00  0.00000000e+00  0.00000000e+00  0.00000000e+00
  0.00000000e+00  0.00000000e+00  0.00000000e+00  0.00000000e+00
  0.00000000e+00  0.00000000e+00  0.00000000e+00  0.00000000e+00
  0.00000000e+00  0.00000000e+00 -1.62334728e-07 -1.08171772e-07
  0.00000000e+00  0.00000000e+00  0.00000000e+00  2.58895551e-06]","[[ 5.14609720e-05  9.39063840e-04]
 [-3.41104950e-05  1.18145017e-03]]",[],0.0,0.0
1787146602.5120618,1.7779326184689352,0.9893193421251728,2.3220701466468405,"[ 2.35872782e-06 -5.75480891e-08  0.00000000e+00  0.00000000e+00
  0.00000000e+00 -1.57732165e-07 -5.75480891e-08  2.31794810e-06
  0.00000000e+00  0.00000000e+00  0.00000000e+00 -9.53785580e-08
  0.00000000e+00  0.00000000e+00  0.00000000e+00  0.00000000e+00
  0.00000000e+00  0.00000000e+00  0.00000000e+00  0.00000000e+00
  0.00000000e+00  0.00000000e+00  0.00000000e+00  0.00000000e+00
  0.00000000e+00  0.00000000e+00  0.00000000e+00  0.00000000e+00
  0.00000000e+00  0.00000000e+00 -1.57732165e-07 -9.53785580e-08
  0.00000000e+00  0.00000000e+00  0.00000000e+00  2.48114279e-06]","[[ 4.98717793e-05  8.99995001e-04]
 [-3.33273412e-05  1.12008883e-03]]",[],0.0,0.0
1787146602.6203976,1.7779326184689352,0.9893193421251728,2.3220701466468405,"[ 2.35872782e-06 -5.75480891e-08  0.00000000e+00  0.00000000e+00
  0.00000000e+00 -1.57732165e-07 -5.75480891e-08  2.31794810e-06
  0.00000000e+00  0.00000000e+00  0.00000000e+00 -9.53785580e-08
  0.00000000e+00  0.00000000e+00  0.00000000e+00  0.00000000e+00
  0.00000000e+00  0.00000000e+00  0.00000000e+00  0.00000000e+00
  0.00000000e+00  0.00000000e+00  0.00000000e+00  0.00000000e+00
  0.00000000e+00  0.00000000e+00  0.00000000e+00  0.00000000e+00
  0.00000000e+00  0.00000000e+00 -1.57732165e-07 -9.53785580e-08
  0.00000000e+00  0.00000000e+00  0.00000000e+00  2.48114279e-06]","[[ 4.98717793e-05  8.99995001e-04]
 [-3.33273412e-05  1.12008883e-03]]",[],0.0,0.0
1787146602.6244924,1.780179080652335,0.9863704281784609,2.32540615106533,"[ 2.27860937e-06 -7.30631687e-08  0.00000000e+00  0.00000000e+00
  0.00000000e+00 -1.48608932e-07 -7.30631687e-08  2.24082733e-06
  0.00000000e+00  0.00000000e+00  0.00000000e+00 -7.36384499e-08
  0.00000000e+00  0.00000000e+00  0.00000000e+00  0.00000000e+00
  0.00000000e+00  0.00000000e+00  0.00000000e+00  0.00000000e+00
  0.00000000e+00  0.00000000e+00  0.00000000e+00  0.00000000e+00
  0.00000000e+00  0.00000000e+00  0.00000000e+00  0.00000000e+00
  0.00000000e+00  0.00000000e+00 -1.48608932e-07 -7.36384499e-08
  0.00000000e+00  0.00000000e+00  0.00000000e+00  2.43261812e-06]","[[ 4.98717793e-05  8.99995001e-04]
 [-3.33273412e-05  1.12008883e-03]]",[],0.0,0.0
1787146603.0015798,1.780179080652335,0.9863704281784609,2.32540615106533,"[ 2.27860937e-06 -7.30631687e-08  0.00000000e+00  0.00000000e+00
  0.00000000e+00 -1.48608932e-07 -7.30631687e-08  2.24082733e-06
  0.00000000e+00  0.00000000e+00  0.00000000e+00 -7.36384499e-08
  0.00000000e+00  0.00000000e+00  0.00000000e+00  0.00000000e+00
  0.00000000e+00  0.00000000e+00  0.00000000e+00  0.00000000e+00
  0.00000000e+00  0.00000000e+00  0.00000000e+00  0.00000000e+00
  0.00000000e+00  0.00000000e+00  0.00000000e+00  0.00000000e+00
  0.00000000e+00  0.00000000e+00 -1.48608932e-07 -7.36384499e-08
  0.00000000e+00  0.00000000e+00  0.00000000e+00  2.43261812e-06]","[[ 4.84107312e-05  8.55457936e-04]
 [-3.25951151e-05  1.04599974e-03]]",[],0.0,0.0
1787146603.3395092,1.7817795035759691,0.9837713480312734,2.3310439112188313,"[ 2.19915474e-06 -8.51650391e-08  0.00000000e+00  0.00000000e+00
  0.00000000e+00 -1.53564410e-07 -8.51650391e-08  2.16464497e-06
  0.00000000e+00  0.00000000e+00  0.00000000e+00 -5.99965645e-08
  0.00000000e+00  0.00000000e+00  0.00000000e+00  0.00000000e+00
  0.00000000e+00  0.00000000e+00  0.00000000e+00  0.00000000e+00
  0.00000000e+00  0.00000000e+00  0.00000000e+00  0.00000000e+00
  0.00000000e+00  0.00000000e+00  0.00000000e+00  0.00000000e+00
  0.00000000e+00  0.00000000e+00 -1.53564410e-07 -5.99965645e-08
  0.00000000e+00  0.00000000e+00  0.00000000e+00  2.34743181e-06]","[[ 4.69151984e-05  8.35945685e-04]
 [-3.18065658e-05  9.86724824e-04]]",[],0.0,0.0
1787146603.6736982,1.783517002403748,0.9812132029783327,2.3317079890741192,"[ 2.12672679e-06 -9.27984747e-08  0.00000000e+00  0.00000000e+00
  0.00000000e+00 -1.40138879e-07 -9.27984747e-08  2.09569858e-06
  0.00000000e+00  0.00000000e+00  0.00000000e+00 -7.74082331e-08
  0.00000000e+00  0.00000000e+00  0.00000000e+00  0.00000000e+00
  0.00000000e+00  0.00000000e+00  0.00000000e+00  0.00000000e+00
  0.00000000e+00  0.00000000e+00  0.00000000e+00  0.00000000e+00
  0.00000000e+00  0.00000000e+00  0.00000000e+00  0.00000000e+00
  0.00000000e+00  0.00000000e+00 -1.40138879e-07 -7.74082331e-08
  0.00000000e+00  0.00000000e+00  0.00000000e+00  2.34429416e-06]","[[ 4.55041636e-05  7.90063669e-04]
 [-3.10251165e-05  9.83378637e-04]]",[],0.0,0.0
1787146603.6744442,1.783517002403748,0.9812132029783327,2.3317079890741192,"[ 2.12672679e-06 -9.27984747e-08  0.00000000e+00  0.00000000e+00
  0.00000000e+00 -1.40138879e-07 -9.27984747e-08  2.09569858e-06
  0.00000000e+00  0.00000000e+00  0.00000000e+00 -7.74082331e-08
  0.00000000e+00  0.00000000e+00  0.00000000e+00  0.00000000e+00
  0.00000000e+00  0.00000000e+00  0.00000000e+00  0.00000000e+00
  0.00000000e+00  0.00000000e+00  0.00000000e+00  0.00000000e+00
  0.00000000e+00  0.00000000e+00  0.00000000e+00  0.00000000e+00
  0.00000000e+00  0.00000000e+00 -1.40138879e-07 -7.74082331e-08
  0.00000000e+00  0.00000000e+00  0.00000000e+00  2.34429416e-06]","[[ 4.55041636e-05  7.90063669e-04]
 [-3.10251165e-05  9.83378637e-04]]",[],0.0,0.0
1787146604.0145485,1.7855738085375155,0.978672302548761,2.335010073999725,"[ 2.06107901e-06 -9.95025305e-08  0.00000000e+00  0.00000000e+00
  0.00000000e+00 -1.30765017e-07 -9.95025305e-08  2.03664847e-06
  0.00000000e+00  0.00000000e+00  0.00000000e+00 -6.81702105e-08
  0.00000000e+00  0.00000000e+00  0.00000000e+00  0.00000000e+00
  0.00000000e+00  0.00000000e+00  0.00000000e+00  0.00000000e+00
  0.00000000e+00  0.00000000e+00  0.00000000e+00  0.00000000e+00
  0.00000000e+00  0.00000000e+00  0.00000000e+00  0.00000000e+00
  0.00000000e+00  0.00000000e+00 -1.30765017e-07 -6.81702105e-08
  0.00000000e+00  0.00000000e+00  0.00000000e+00  2.34589935e-06]","[[ 4.42229567e-05  7.53149540e-04]
 [-3.03592161e-05  9.40437552e-04]]",[],0.0,0.0
1787146604.3468938,1.7873398254399082,0.9762819689157854,2.3400376128078513,"[ 1.99943872e-06 -1.04547558e-07  0.00000000e+00  0.00000000e+00
  0.00000000e+00 -1.30641622e-07 -1.04547558e-07  1.97873782e-06
  0.00000000e+00  0.00000000e+00  0.00000000e+00 -8.35392079e-08
  0.00000000e+00  0.00000000e+00  0.00000000e+00  0.00000000e+00
  0.00000000e+00  0.00000000e+00  0.00000000e+00  0.00000000e+00
  0.00000000e+00  0.00000000e+00  0.00000000e+00  0.00000000e+00
  0.00000000e+00  0.00000000e+00  0.00000000e+00  0.00000000e+00
  0.00000000e+00  0.00000000e+00 -1.30641622e-07 -8.35392079e-08
  0.00000000e+00  0.00000000e+00  0.00000000e+00  2.33681492e-06]","[[ 4.30042273e-05  7.33283821e-04]
 [-2.96713876e-05  9.39170798e-04]]",[],0.0,0.0
1787146604.3747745,1.789243417763708,0.9742898449114228,2.337072382977441,"[ 1.94433218e-06 -1.11470311e-07  0.00000000e+00  0.00000000e+00
  0.00000000e+00 -1.25904343e-07 -1.11470311e-07  1.92711708e-06
  0.00000000e+00  0.00000000e+00  0.00000000e+00 -8.01175037e-08
  0.00000000e+00  0.00000000e+00  0.00000000e+00  0.00000000e+00
  0.00000000e+00  0.00000000e+00  0.00000000e+00  0.00000000e+00
  0.00000000e+00  0.00000000e+00  0.00000000e+00  0.00000000e+00
  0.00000000e+00  0.00000000e+00  0.00000000e+00  0.00000000e+00
  0.00000000e+00  0.00000000e+00 -1.25904343e-07 -8.01175037e-08
  0.00000000e+00  0.00000000e+00  0.00000000e+00  2.36197095e-06]","[[ 4.19476622e-05  7.06913633e-04]
 [-2.91096747e-05  9.09064088e-04]]",[],0.0,0.0
1787146604.4250653,1.789243417763708,0.9742898449114228,2.337072382977441,"[ 1.94433218e-06 -1.11470311e-07  0.00000000e+00  0.00000000e+00
  0.00000000e+00 -1.25904343e-07 -1.11470311e-07  1.92711708e-06
  0.00000000e+00  0.00000000e+00  0.00000000e+00 -8.01175037e-08
  0.00000000e+00  0.00000000e+00  0.00000000e+00  0.00000000e+00
  0.00000000e+00  0.00000000e+00  0.00000000e+00  0.00000000e+00
  0.00000000e+00  0.00000000e+00  0.00000000e+00  0.00000000e+00
  0.00000000e+00  0.00000000e+00  0.00000000e+00  0.00000000e+00
  0.00000000e+00  0.00000000e+00 -1.25904343e-07 -8.01175037e-08
  0.00000000e+00  0.00000000e+00  0.00000000e+00  2.36197095e-06]","[[ 4.19476622e-05  7.06913633e-04]
 [-2.91096747e-05  9.09064088e-04]]",[],0.0,0.0
1787146604.477941,1.789243417763708,0.9742898449114228,2.337072382977441,"[ 1.94433218e-06 -1.11470311e-07  0.00000000e+00  0.00000000e+00
  0.00000000e+00 -1.25904343e-07 -1.11470311e-07  1.92711708e-06
  0.00000000e+00  0.00000000e+00  0.00000000e+00 -8.01175037e-08
  0.00000000e+00  0.00000000e+00  0.00000000e+00  0.00000000e+00
  0.00000000e+00  0.00000000e+00  0.00000000e+00  0.00000000e+00
  0.00000000e+00  0.00000000e+00  0.00000000e+00  0.00000000e+00
  0.00000000e+00  0.00000000e+00  0.00000000e+00  0.00000000e+00
  0.00000000e+00  0.00000000e+00 -1.25904343e-07 -8.01175037e-08
  0.00000000e+00  0.00000000e+00  0.00000000e+00  2.36197095e-06]","[[ 4.19476622e-05  7.06913633e-04]
 [-2.91096747e-05  9.09064088e-04]]",[],0.0,0.0
1787146604.5291452,1.789243417763708,0.9742898449114228,2.337072382977441,"[ 1.94433218e-06 -1.11470311e-07  0.00000000e+00  0.00000000e+00
  0.00000000e+00 -1.25904343e-07 -1.11470311e-07  1.92711708e-06
  0.00000000e+00  0.00000000e+00  0.00000000e+00 -8.01175037e-08
  0.00000000e+00  0.00000000e+00  0.00000000e+00  0.00000000e+00
  0.00000000e+00  0.00000000e+00  0.00000000e+00  0.00000000e+00
  0.00000000e+00  0.00000000e+00  0.00000000e+00  0.00000000e+00
  0.00000000e+00  0.00000000e+00  0.00000000e+00  0.00000000e+00
  0.00000000e+00  0.00000000e+00 -1.25904343e-07 -8.01175037e-08
  0.00000000e+00  0.00000000e+00  0.00000000e+00  2.36197095e-06]","[[ 4.19476622e-05  7.06913633e-04]
 [-2.91096747e-05  9.09064088e-04]]",[],0.0,0.0
1787146604.5843654,1.789243417763708,0.9742898449114228,2.337072382977441,"[ 1.94433218e-06 -1.11470311e-07  0.00000000e+00  0.00000000e+00
  0.00000000e+00 -1.25904343e-07 -1.11470311e-07  1.92711708e-06
  0.00000000e+00  0.00000000e+00  0.00000000e+00 -8.01175037e-08
  0.00000000e+00  0.00000000e+00  0.00000000e+00  0.00000000e+00
  0.00000000e+00  0.00000000e+00  0.00000000e+00  0.00000000e+00
  0.00000000e+00  0.00000000e+00  0.00000000e+00  0.00000000e+00
  0.00000000e+00  0.00000000e+00  0.00000000e+00  0.00000000e+00
  0.00000000e+00  0.00000000e+00 -1.25904343e-07 -8.01175037e-08
  0.00000000e+00  0.00000000e+00  0.00000000e+00  2.36197095e-06]","[[ 4.19476622e-05  7.06913633e-04]
 [-2.91096747e-05  9.09064088e-04]]",[],0.0,0.0
1787146604.6268086,1.789243417763708,0.9742898449114228,2.337072382977441,"[ 1.94433218e-06 -1.11470311e-07  0.00000000e+00  0.00000000e+00
  0.00000000e+00 -1.25904343e-07 -1.11470311e-07  1.92711708e-06
  0.00000000e+00  0.00000000e+00  0.00000000e+00 -8.01175037e-08
  0.00000000e+00  0.00000000e+00  0.00000000e+00  0.00000000e+00
  0.00000000e+00  0.00000000e+00  0.00000000e+00  0.00000000e+00
  0.00000000e+00  0.00000000e+00  0.00000000e+00  0.00000000e+00
  0.00000000e+00  0.00000000e+00  0.00000000e+00  0.00000000e+00
  0.00000000e+00  0.00000000e+00 -1.25904343e-07 -8.01175037e-08
  0.00000000e+00  0.00000000e+00  0.00000000e+00  2.36197095e-06]","[[ 4.19476622e-05  7.06913633e-04]
 [-2.91096747e-05  9.09064088e-04]]",[],0.0,0.0
1787146604.677228,1.789243417763708,0.9742898449114228,2.337072382977441,"[ 1.94433218e-06 -1.11470311e-07  0.00000000e+00  0.00000000e+00
  0.00000000e+00 -1.25904343e-07 -1.11470311e-07  1.92711708e-06
  0.00000000e+00  0.00000000e+00  0.00000000e+00 -8.01175037e-08
  0.00000000e+00  0.00000000e+00  0.00000000e+00  0.00000000e+00
  0.00000000e+00  0.00000000e+00  0.00000000e+00  0.00000000e+00
  0.00000000e+00  0.00000000e+00  0.00000000e+00  0.00000000e+00
  0.00000000e+00  0.00000000e+00  0.00000000e+00  0.00000000e+00
  0.00000000e+00  0.00000000e+00 -1.25904343e-07 -8.01175037e-08
  0.00000000e+00  0.00000000e+00  0.00000000e+00  2.36197095e-06]","[[ 4.19476622e-05  7.06913633e-04]
 [-2.91096747e-05  9.09064088e-04]]",[],0.0,0.0
1787146604.7281268,1.789243417763708,0.9742898449114228,2.337072382977441,"[ 1.94433218e-06 -1.11470311e-07  0.00000000e+00  0.00000000e+00
  0.00000000e+00 -1.25904343e-07 -1.11470311e-07  1.92711708e-06
  0.00000000e+00  0.00000000e+00  0.00000000e+00 -8.01175037e-08
  0.00000000e+00  0.00000000e+00  0.00000000e+00  0.00000000e+00
  0.00000000e+00  0.00000000e+00  0.00000000e+00  0.00000000e+00
  0.00000000e+00  0.00000000e+00  0.00000000e+00  0.00000000e+00
  0.00000000e+00  0.00000000e+00  0.00000000e+00  0.00000000e+00
  0.00000000e+00  0.00000000e+00 -1.25904343e-07 -8.01175037e-08
  0.00000000e+00  0.00000000e+00  0.00000000e+00  2.36197095e-06]","[[ 4.19476622e-05  7.06913633e-04]
 [-2.91096747e-05  9.09064088e-04]]",[],0.0,0.0
1787146604.7744396,1.789243417763708,0.9742898449114228,2.337072382977441,"[ 1.94433218e-06 -1.11470311e-07  0.00000000e+00  0.00000000e+00
  0.00000000e+00 -1.25904343e-07 -1.11470311e-07  1.92711708e-06
  0.00000000e+00  0.00000000e+00  0.00000000e+00 -8.01175037e-08
  0.00000000e+00  0.00000000e+00  0.00000000e+00  0.00000000e+00
  0.00000000e+00  0.00000000e+00  0.00000000e+00  0.00000000e+00
  0.00000000e+00  0.00000000e+00  0.00000000e+00  0.00000000e+00
  0.00000000e+00  0.00000000e+00  0.00000000e+00  0.00000000e+00
  0.00000000e+00  0.00000000e+00 -1.25904343e-07 -8.01175037e-08
  0.00000000e+00  0.00000000e+00  0.00000000e+00  2.36197095e-06]","[[ 4.19476622e-05  7.06913633e-04]
 [-2.91096747e-05  9.09064088e-04]]",[],0.0,0.0
1787146604.8355057,1.789243417763708,0.9742898449114228,2.337072382977441,"[ 1.94433218e-06 -1.11470311e-07  0.00000000e+00  0.00000000e+00
  0.00000000e+00 -1.25904343e-07 -1.11470311e-07  1.92711708e-06
  0.00000000e+00  0.00000000e+00  0.00000000e+00 -8.01175037e-08
  0.00000000e+00  0.00000000e+00  0.00000000e+00  0.00000000e+00
  0.00000000e+00  0.00000000e+00  0.00000000e+00  0.00000000e+00
  0.00000000e+00  0.00000000e+00  0.00000000e+00  0.00000000e+00
  0.00000000e+00  0.00000000e+00  0.00000000e+00  0.00000000e+00
  0.00000000e+00  0.00000000e+00 -1.25904343e-07 -8.01175037e-08
  0.00000000e+00  0.00000000e+00  0.00000000e+00  2.36197095e-06]","[[ 4.19476622e-05  7.06913633e-04]
 [-2.91096747e-05  9.09064088e-04]]",[],0.0,0.0
1787146604.8746638,1.7910237859407567,0.9722492761247881,2.3438317691476467,"[ 1.91206436e-06 -1.39230717e-07  0.00000000e+00  0.00000000e+00
  0.00000000e+00 -1.15680952e-07 -1.39230717e-07  1.89794690e-06
  0.00000000e+00  0.00000000e+00  0.00000000e+00 -7.04590599e-08
  0.00000000e+00  0.00000000e+00  0.00000000e+00  0.00000000e+00
  0.00000000e+00  0.00000000e+00  0.00000000e+00  0.00000000e+00
  0.00000000e+00  0.00000000e+00  0.00000000e+00  0.00000000e+00
  0.00000000e+00  0.00000000e+00  0.00000000e+00  0.00000000e+00
  0.00000000e+00  0.00000000e+00 -1.15680952e-07 -7.04590599e-08
  0.00000000e+00  0.00000000e+00  0.00000000e+00  2.80370917e-06]","[[ 4.16588825e-05  6.69077219e-04]
 [-2.92877123e-05  8.72347026e-04]]",[],0.0,0.0
1787146604.924837,1.7910237859407567,0.9722492761247881,2.3438317691476467,"[ 1.91206436e-06 -1.39230717e-07  0.00000000e+00  0.00000000e+00
  0.00000000e+00 -1.15680952e-07 -1.39230717e-07  1.89794690e-06
  0.00000000e+00  0.00000000e+00  0.00000000e+00 -7.04590599e-08
  0.00000000e+00  0.00000000e+00  0.00000000e+00  0.00000000e+00
  0.00000000e+00  0.00000000e+00  0.00000000e+00  0.00000000e+00
  0.00000000e+00  0.00000000e+00  0.00000000e+00  0.00000000e+00
  0.00000000e+00  0.00000000e+00  0.00000000e+00  0.00000000e+00
  0.00000000e+00  0.00000000e+00 -1.15680952e-07 -7.04590599e-08
  0.00000000e+00  0.00000000e+00  0.00000000e+00  2.80370917e-06]","[[ 4.16588825e-05  6.69077219e-04]
 [-2.92877123e-05  8.72347026e-04]]",[],0.0,0.0
1787146604.9754357,1.7910237859407567,0.9722492761247881,2.3438317691476467,"[ 1.91206436e-06 -1.39230717e-07  0.00000000e+00  0.00000000e+00
  0.00000000e+00 -1.15680952e-07 -1.39230717e-07  1.89794690e-06
  0.00000000e+00  0.00000000e+00  0.00000000e+00 -7.04590599e-08
  0.00000000e+00  0.00000000e+00  0.00000000e+00  0.00000000e+00
  0.00000000e+00  0.00000000e+00  0.00000000e+00  0.00000000e+00
  0.00000000e+00  0.00000000e+00  0.00000000e+00  0.00000000e+00
  0.00000000e+00  0.00000000e+00  0.00000000e+00  0.00000000e+00
  0.00000000e+00  0.00000000e+00 -1.15680952e-07 -7.04590599e-08
  0.00000000e+00  0.00000000e+00  0.00000000e+00  2.80370917e-06]","[[ 4.16588825e-05  6.69077219e-04]
 [-2.92877123e-05  8.72347026e-04]]",[],0.0,0.0
1787146605.0257213,1.7910237859407567,0.9722492761247881,2.3438317691476467,"[ 1.91206436e-06 -1.39230717e-07  0.00000000e+00  0.00000000e+00
  0.00000000e+00 -1.15680952e-07 -1.39230717e-07  1.89794690e-06
  0.00000000e+00  0.00000000e+00  0.00000000e+00 -7.04590599e-08
  0.00000000e+00  0.00000000e+00  0.00000000e+00  0.00000000e+00
  0.00000000e+00  0.00000000e+00  0.00000000e+00  0.00000000e+00
  0.00000000e+00  0.00000000e+00  0.00000000e+00  0.00000000e+00
  0.00000000e+00  0.00000000e+00  0.00000000e+00  0.00000000e+00
  0.00000000e+00  0.00000000e+00 -1.15680952e-07 -7.04590599e-08
  0.00000000e+00  0.00000000e+00  0.00000000e+00  2.80370917e-06]","[[ 4.16588825e-05  6.69077219e-04]
 [-2.92877123e-05  8.72347026e-04]]",[],0.0,0.0
1787146605.075903,1.7910237859407567,0.9722492761247881,2.3438317691476467,"[ 1.91206436e-06 -1.39230717e-07  0.00000000e+00  0.00000000e+00
  0.00000000e+00 -1.15680952e-07 -1.39230717e-07  1.89794690e-06
  0.00000000e+00  0.00000000e+00  0.00000000e+00 -7.04590599e-08
  0.00000000e+00  0.00000000e+00  0.00000000e+00  0.00000000e+00
  0.00000000e+00  0.00000000e+00  0.00000000e+00  0.00000000e+00
  0.00000000e+00  0.00000000e+00  0.00000000e+00  0.00000000e+00
  0.00000000e+00  0.00000000e+00  0.00000000e+00  0.00000000e+00
  0.00000000e+00  0.00000000e+00 -1.15680952e-07 -7.04590599e-08
  0.00000000e+00  0.00000000e+00  0.00000000e+00  2.80370917e-06]","[[ 4.16588825e-05  6.69077219e-04]
 [-2.92877123e-05  8.72347026e-04]]",[],0.0,0.0
1787146605.1294458,1.7910237859407567,0.9722492761247881,2.3438317691476467,"[ 1.91206436e-06 -1.39230717e-07  0.00000000e+00  0.00000000e+00
  0.00000000e+00 -1.15680952e-07 -1.39230717e-07  1.89794690e-06
  0.00000000e+00  0.00000000e+00  0.00000000e+00 -7.04590599e-08
  0.00000000e+00  0.00000000e+00  0.00000000e+00  0.00000000e+00
  0.00000000e+00  0.00000000e+00  0.00000000e+00  0.00000000e+00
  0.00000000e+00  0.00000000e+00  0.00000000e+00  0.00000000e+00
  0.00000000e+00  0.00000000e+00  0.00000000e+00  0.00000000e+00
  0.00000000e+00  0.00000000e+00 -1.15680952e-07 -7.04590599e-08
  0.00000000e+00  0.00000000e+00  0.00000000e+00  2.80370917e-06]","[[ 4.16588825e-05  6.69077219e-04]
 [-2.92877123e-05  8.72347026e-04]]",[],0.0,0.0
1787146605.181653,1.7910237859407567,0.9722492761247881,2.3438317691476467,"[ 1.91206436e-06 -1.39230717e-07  0.00000000e+00  0.00000000e+00
  0.00000000e+00 -1.15680952e-07 -1.39230717e-07  1.89794690e-06
  0.00000000e+00  0.00000000e+00  0.00000000e+00 -7.04590599e-08
  0.00000000e+00  0.00000000e+00  0.00000000e+00  0.00000000e+00
  0.00000000e+00  0.00000000e+00  0.00000000e+00  0.00000000e+00
  0.00000000e+00  0.00000000e+00  0.00000000e+00  0.00000000e+00
  0.00000000e+00  0.00000000e+00  0.00000000e+00  0.00000000e+00
  0.00000000e+00  0.00000000e+00 -1.15680952e-07 -7.04590599e-08
  0.00000000e+00  0.00000000e+00  0.00000000e+00  2.80370917e-06]","[[ 4.16588825e-05  6.69077219e-04]
 [-2.92877123e-05  8.72347026e-04]]",[],0.0,0.0
1787146605.2244813,1.7910237859407567,0.9722492761247881,2.3438317691476467,"[ 1.91206436e-06 -1.39230717e-07  0.00000000e+00  0.00000000e+00
  0.00000000e+00 -1.15680952e-07 -1.39230717e-07  1.89794690e-06
  0.00000000e+00  0.00000000e+00  0.00000000e+00 -7.04590599e-08
  0.00000000e+00  0.00000000e+00  0.00000000e+00  0.00000000e+00
  0.00000000e+00  0.00000000e+00  0.00000000e+00  0.00000000e+00
  0.00000000e+00  0.00000000e+00  0.00000000e+00  0.00000000e+00
  0.00000000e+00  0.00000000e+00  0.00000000e+00  0.00000000e+00
  0.00000000e+00  0.00000000e+00 -1.15680952e-07 -7.04590599e-08
  0.00000000e+00  0.00000000e+00  0.00000000e+00  2.80370917e-06]","[[ 4.16588825e-05  6.69077219e-04]
 [-2.92877123e-05  8.72347026e-04]]",[],0.0,0.0
1787146605.279908,1.7910237859407567,0.9722492761247881,2.3438317691476467,"[ 1.91206436e-06 -1.39230717e-07  0.00000000e+00  0.00000000e+00
  0.00000000e+00 -1.15680952e-07 -1.39230717e-07  1.89794690e-06
  0.00000000e+00  0.00000000e+00  0.00000000e+00 -7.04590599e-08
  0.00000000e+00  0.00000000e+00  0.00000000e+00  0.00000000e+00
  0.00000000e+00  0.00000000e+00  0.00000000e+00  0.00000000e+00
  0.00000000e+00  0.00000000e+00  0.00000000e+00  0.00000000e+00
  0.00000000e+00  0.00000000e+00  0.00000000e+00  0.00000000e+00
  0.00000000e+00  0.00000000e+00 -1.15680952e-07 -7.04590599e-08
  0.00000000e+00  0.00000000e+00  0.00000000e+00  2.80370917e-06]","[[ 4.16588825e-05  6.69077219e-04]
 [-2.92877123e-05  8.72347026e-04]]",[],0.0,0.0
1787146605.3247855,1.7910237859407567,0.9722492761247881,2.3438317691476467,"[ 1.91206436e-06 -1.39230717e-07  0.00000000e+00  0.00000000e+00
  0.00000000e+00 -1.15680952e-07 -1.39230717e-07  1.89794690e-06
  0.00000000e+00  0.00000000e+00  0.00000000e+00 -7.04590599e-08
  0.00000000e+00  0.00000000e+00  0.00000000e+00  0.00000000e+00
  0.00000000e+00  0.00000000e+00  0.00000000e+00  0.00000000e+00
  0.00000000e+00  0.00000000e+00  0.00000000e+00  0.00000000e+00
  0.00000000e+00  0.00000000e+00  0.00000000e+00  0.00000000e+00
  0.00000000e+00  0.00000000e+00 -1.15680952e-07 -7.04590599e-08
  0.00000000e+00  0.00000000e+00  0.00000000e+00  2.80370917e-06]","[[ 4.16588825e-05  6.69077219e-04]
 [-2.92877123e-05  8.72347026e-04]]",[],0.0,0.0
1787146605.3749552,1.7926732424050893,0.9703249036638767,2.349883241546749,"[ 1.88028866e-06 -1.64661532e-07  0.00000000e+00  0.00000000e+00
  0.00000000e+00 -1.14982400e-07 -1.64661532e-07  1.86906795e-06
  0.00000000e+00  0.00000000e+00  0.00000000e+00 -6.21807798e-08
  0.00000000e+00  0.00000000e+00  0.00000000e+00  0.00000000e+00
  0.00000000e+00  0.00000000e+00  0.00000000e+00  0.00000000e+00
  0.00000000e+00  0.00000000e+00  0.00000000e+00  0.00000000e+00
  0.00000000e+00  0.00000000e+00  0.00000000e+00  0.00000000e+00
  0.00000000e+00  0.00000000e+00 -1.14982400e-07 -6.21807798e-08
  0.00000000e+00  0.00000000e+00  0.00000000e+00  2.79127068e-06]","[[ 4.13475432e-05  6.48177363e-04]
 [-2.94222484e-05  8.38717452e-04]]",[],0.0,0.0
1787146605.4344497,1.7926732424050893,0.9703249036638767,2.349883241546749,"[ 1.88028866e-06 -1.64661532e-07  0.00000000e+00  0.00000000e+00
  0.00000000e+00 -1.14982400e-07 -1.64661532e-07  1.86906795e-06
  0.00000000e+00  0.00000000e+00  0.00000000e+00 -6.21807798e-08
  0.00000000e+00  0.00000000e+00  0.00000000e+00  0.00000000e+00
  0.00000000e+00  0.00000000e+00  0.00000000e+00  0.00000000e+00
  0.00000000e+00  0.00000000e+00  0.00000000e+00  0.00000000e+00
  0.00000000e+00  0.00000000e+00  0.00000000e+00  0.00000000e+00
  0.00000000e+00  0.00000000e+00 -1.14982400e-07 -6.21807798e-08
  0.00000000e+00  0.00000000e+00  0.00000000e+00  2.79127068e-06]","[[ 4.13475432e-05  6.48177363e-04]
 [-2.94222484e-05  8.38717452e-04]]",[],0.0,0.0
1787146605.4771843,1.7926732424050893,0.9703249036638767,2.349883241546749,"[ 1.88028866e-06 -1.64661532e-07  0.00000000e+00  0.00000000e+00
  0.00000000e+00 -1.14982400e-07 -1.64661532e-07  1.86906795e-06
  0.00000000e+00  0.00000000e+00  0.00000000e+00 -6.21807798e-08
  0.00000000e+00  0.00000000e+00  0.00000000e+00  0.00000000e+00
  0.00000000e+00  0.00000000e+00  0.00000000e+00  0.00000000e+00
  0.00000000e+00  0.00000000e+00  0.00000000e+00  0.00000000e+00
  0.00000000e+00  0.00000000e+00  0.00000000e+00  0.00000000e+00
  0.00000000e+00  0.00000000e+00 -1.14982400e-07 -6.21807798e-08
  0.00000000e+00  0.00000000e+00  0.00000000e+00  2.79127068e-06]","[[ 4.13475432e-05  6.48177363e-04]
 [-2.94222484e-05  8.38717452e-04]]",[],0.0,0.0
1787146605.5265813,1.7926732424050893,0.9703249036638767,2.349883241546749,"[ 1.88028866e-06 -1.64661532e-07  0.00000000e+00  0.00000000e+00
  0.00000000e+00 -1.14982400e-07 -1.64661532e-07  1.86906795e-06
  0.00000000e+00  0.00000000e+00  0.00000000e+00 -6.21807798e-08
  0.00000000e+00  0.00000000e+00  0.00000000e+00  0.00000000e+00
  0.00000000e+00  0.00000000e+00  0.00000000e+00  0.00000000e+00
  0.00000000e+00  0.00000000e+00  0.00000000e+00  0.00000000e+00
  0.00000000e+00  0.00000000e+00  0.00000000e+00  0.00000000e+00
  0.00000000e+00  0.00000000e+00 -1.14982400e-07 -6.21807798e-08
  0.00000000e+00  0.00000000e+00  0.00000000e+00  2.79127068e-06]","[[ 4.13475432e-05  6.48177363e-04]
 [-2.94222484e-05  8.38717452e-04]]",[],0.0,0.0
1787146605.7373598,1.7926732424050893,0.9703249036638767,2.349883241546749,"[ 1.88028866e-06 -1.64661532e-07  0.00000000e+00  0.00000000e+00
  0.00000000e+00 -1.14982400e-07 -1.64661532e-07  1.86906795e-06
  0.00000000e+00  0.00000000e+00  0.00000000e+00 -6.21807798e-08
  0.00000000e+00  0.00000000e+00  0.00000000e+00  0.00000000e+00
  0.00000000e+00  0.00000000e+00  0.00000000e+00  0.00000000e+00
  0.00000000e+00  0.00000000e+00  0.00000000e+00  0.00000000e+00
  0.00000000e+00  0.00000000e+00  0.00000000e+00  0.00000000e+00
  0.00000000e+00  0.00000000e+00 -1.14982400e-07 -6.21807798e-08
  0.00000000e+00  0.00000000e+00  0.00000000e+00  2.79127068e-06]","[[ 4.13475432e-05  6.48177363e-04]
 [-2.94222484e-05  8.38717452e-04]]",[],0.0,0.0
1787146606.144779,1.7948251738184398,0.9682492046140274,2.3497450341595254,"[ 1.84145364e-06 -1.78762281e-07  0.00000000e+00  0.00000000e+00
  0.00000000e+00 -1.20886883e-07 -1.78762281e-07  1.83076449e-06
  0.00000000e+00  0.00000000e+00  0.00000000e+00 -6.66746631e-08
  0.00000000e+00  0.00000000e+00  0.00000000e+00  0.00000000e+00
  0.00000000e+00  0.00000000e+00  0.00000000e+00  0.00000000e+00
  0.00000000e+00  0.00000000e+00  0.00000000e+00  0.00000000e+00
  0.00000000e+00  0.00000000e+00  0.00000000e+00  0.00000000e+00
  0.00000000e+00  0.00000000e+00 -1.20886883e-07 -6.66746631e-08
  0.00000000e+00  0.00000000e+00  0.00000000e+00  2.62509191e-06]","[[ 4.07324997e-05  6.41003448e-04]
 [-2.91896413e-05  8.25519483e-04]]",[],0.0,0.0
1787146606.5451646,1.7962446051353476,0.9663489939384333,2.3533621232566038,"[ 1.80124315e-06 -1.89761730e-07  0.00000000e+00  0.00000000e+00
  0.00000000e+00 -1.16112146e-07 -1.89761730e-07  1.79416317e-06
  0.00000000e+00  0.00000000e+00  0.00000000e+00 -6.94987235e-08
  0.00000000e+00  0.00000000e+00  0.00000000e+00  0.00000000e+00
  0.00000000e+00  0.00000000e+00  0.00000000e+00  0.00000000e+00
  0.00000000e+00  0.00000000e+00  0.00000000e+00  0.00000000e+00
  0.00000000e+00  0.00000000e+00  0.00000000e+00  0.00000000e+00
  0.00000000e+00  0.00000000e+00 -1.16112146e-07 -6.94987235e-08
  0.00000000e+00  0.00000000e+00  0.00000000e+00  2.53662103e-06]","[[ 4.00470618e-05  6.16993686e-04]
 [-2.89142830e-05  8.11092675e-04]]",[],0.0,0.0
1787146606.9344964,1.7977867015534073,0.9642653222560608,2.3573826477784445,"[ 1.76282024e-06 -2.01837556e-07  0.00000000e+00  0.00000000e+00
  0.00000000e+00 -1.18623551e-07 -2.01837556e-07  1.75842654e-06
  0.00000000e+00  0.00000000e+00  0.00000000e+00 -5.84984754e-08
  0.00000000e+00  0.00000000e+00  0.00000000e+00  0.00000000e+00
  0.00000000e+00  0.00000000e+00  0.00000000e+00  0.00000000e+00
  0.00000000e+00  0.00000000e+00  0.00000000e+00  0.00000000e+00
  0.00000000e+00  0.00000000e+00  0.00000000e+00  0.00000000e+00
  0.00000000e+00  0.00000000e+00 -1.18623551e-07 -5.84984754e-08
  0.00000000e+00  0.00000000e+00  0.00000000e+00  2.47342254e-06]","[[ 3.94123643e-05  6.05261039e-04]
 [-2.86756949e-05  7.73995721e-04]]",[],0.0,0.0
1787146607.3223236,1.7998405280957033,0.9621579954057248,2.3572814938252495,"[ 1.72737081e-06 -2.10990848e-07  0.00000000e+00  0.00000000e+00
  0.00000000e+00 -1.21162650e-07 -2.10990848e-07  1.72527840e-06
  0.00000000e+00  0.00000000e+00  0.00000000e+00 -4.98026941e-08
  0.00000000e+00  0.00000000e+00  0.00000000e+00  0.00000000e+00
  0.00000000e+00  0.00000000e+00  0.00000000e+00  0.00000000e+00
  0.00000000e+00  0.00000000e+00  0.00000000e+00  0.00000000e+00
  0.00000000e+00  0.00000000e+00  0.00000000e+00  0.00000000e+00
  0.00000000e+00  0.00000000e+00 -1.21162650e-07 -4.98026941e-08
  0.00000000e+00  0.00000000e+00  0.00000000e+00  2.54443505e-06]","[[ 3.87985656e-05  5.95635010e-04]
 [-2.84128812e-05  7.42579724e-04]]",[],0.0,0.0
1787146607.3268063,1.7998405280957033,0.9621579954057248,2.3572814938252495,"[ 1.72737081e-06 -2.10990848e-07  0.00000000e+00  0.00000000e+00
  0.00000000e+00 -1.21162650e-07 -2.10990848e-07  1.72527840e-06
  0.00000000e+00  0.00000000e+00  0.00000000e+00 -4.98026941e-08
  0.00000000e+00  0.00000000e+00  0.00000000e+00  0.00000000e+00
  0.00000000e+00  0.00000000e+00  0.00000000e+00  0.00000000e+00
  0.00000000e+00  0.00000000e+00  0.00000000e+00  0.00000000e+00
  0.00000000e+00  0.00000000e+00  0.00000000e+00  0.00000000e+00
  0.00000000e+00  0.00000000e+00 -1.21162650e-07 -4.98026941e-08
  0.00000000e+00  0.00000000e+00  0.00000000e+00  2.54443505e-06]","[[ 3.87985656e-05  5.95635010e-04]
 [-2.84128812e-05  7.42579724e-04]]",[],0.0,0.0
1787146607.6544507,1.801541646934394,0.9601308802519798,2.3574989319399258,"[ 1.69520308e-06 -2.20560069e-07  0.00000000e+00  0.00000000e+00
  0.00000000e+00 -1.10038230e-07 -2.20560069e-07  1.69180640e-06
  0.00000000e+00  0.00000000e+00  0.00000000e+00 -4.33748435e-08
  0.00000000e+00  0.00000000e+00  0.00000000e+00  0.00000000e+00
  0.00000000e+00  0.00000000e+00  0.00000000e+00  0.00000000e+00
  0.00000000e+00  0.00000000e+00  0.00000000e+00  0.00000000e+00
  0.00000000e+00  0.00000000e+00  0.00000000e+00  0.00000000e+00
  0.00000000e+00  0.00000000e+00 -1.10038230e-07 -4.33748435e-08
  0.00000000e+00  0.00000000e+00  0.00000000e+00  2.48105572e-06]","[[ 3.82605782e-05  5.64055198e-04]
 [-2.81511603e-05  7.14651987e-04]]",[],0.0,0.0
1787146607.998852,1.8033137901805276,0.9582156169451742,2.354939296648322,"[ 1.65727093e-06 -2.22363951e-07  0.00000000e+00  0.00000000e+00
  0.00000000e+00 -9.52341917e-08 -2.22363951e-07  1.65547891e-06
  0.00000000e+00  0.00000000e+00  0.00000000e+00 -5.97259278e-08
  0.00000000e+00  0.00000000e+00  0.00000000e+00  0.00000000e+00
  0.00000000e+00  0.00000000e+00  0.00000000e+00  0.00000000e+00
  0.00000000e+00  0.00000000e+00  0.00000000e+00  0.00000000e+00
  0.00000000e+00  0.00000000e+00  0.00000000e+00  0.00000000e+00
  0.00000000e+00  0.00000000e+00 -9.52341917e-08 -5.97259278e-08
  0.00000000e+00  0.00000000e+00  0.00000000e+00  2.37837966e-06]","[[ 3.74942383e-05  5.28095876e-04]
 [-2.76893924e-05  7.25456348e-04]]",[],0.0,0.0
1787146608.0247025,1.8049665947384044,0.9563234314281249,2.3536769196480805,"[ 1.62357566e-06 -2.28005995e-07  0.00000000e+00  0.00000000e+00
  0.00000000e+00 -1.06094521e-07 -2.28005995e-07  1.62302940e-06
  0.00000000e+00  0.00000000e+00  0.00000000e+00 -4.70509219e-08
  0.00000000e+00  0.00000000e+00  0.00000000e+00  0.00000000e+00
  0.00000000e+00  0.00000000e+00  0.00000000e+00  0.00000000e+00
  0.00000000e+00  0.00000000e+00  0.00000000e+00  0.00000000e+00
  0.00000000e+00  0.00000000e+00  0.00000000e+00  0.00000000e+00
  0.00000000e+00  0.00000000e+00 -1.06094521e-07 -4.70509219e-08
  0.00000000e+00  0.00000000e+00  0.00000000e+00  2.32894943e-06]","[[ 3.68703065e-05  5.34154298e-04]
 [-2.73597577e-05  6.88843899e-04]]",[],0.0,0.0
1787146608.0758557,1.8049665947384044,0.9563234314281249,2.3536769196480805,"[ 1.62357566e-06 -2.28005995e-07  0.00000000e+00  0.00000000e+00
  0.00000000e+00 -1.06094521e-07 -2.28005995e-07  1.62302940e-06
  0.00000000e+00  0.00000000e+00  0.00000000e+00 -4.70509219e-08
  0.00000000e+00  0.00000000e+00  0.00000000e+00  0.00000000e+00
  0.00000000e+00  0.00000000e+00  0.00000000e+00  0.00000000e+00
  0.00000000e+00  0.00000000e+00  0.00000000e+00  0.00000000e+00
  0.00000000e+00  0.00000000e+00  0.00000000e+00  0.00000000e+00
  0.00000000e+00  0.00000000e+00 -1.06094521e-07 -4.70509219e-08
  0.00000000e+00  0.00000000e+00  0.00000000e+00  2.32894943e-06]","[[ 3.68703065e-05  5.34154298e-04]
 [-2.73597577e-05  6.88843899e-04]]",[],0.0,0.0
1787146608.1259105,1.8049665947384044,0.9563234314281249,2.3536769196480805,"[ 1.62357566e-06 -2.28005995e-07  0.00000000e+00  0.00000000e+00
  0.00000000e+00 -1.06094521e-07 -2.28005995e-07  1.62302940e-06
  0.00000000e+00  0.00000000e+00  0.00000000e+00 -4.70509219e-08
  0.00000000e+00  0.00000000e+00  0.00000000e+00  0.00000000e+00
  0.00000000e+00  0.00000000e+00  0.00000000e+00  0.00000000e+00
  0.00000000e+00  0.00000000e+00  0.00000000e+00  0.00000000e+00
  0.00000000e+00  0.00000000e+00  0.00000000e+00  0.00000000e+00
  0.00000000e+00  0.00000000e+00 -1.06094521e-07 -4.70509219e-08
  0.00000000e+00  0.00000000e+00  0.00000000e+00  2.32894943e-06]","[[ 3.68703065e-05  5.34154298e-04]
 [-2.73597577e-05  6.88843899e-04]]",[],0.0,0.0
1787146608.4082031,1.8049665947384044,0.9563234314281249,2.3536769196480805,"[ 1.62357566e-06 -2.28005995e-07  0.00000000e+00  0.00000000e+00
  0.00000000e+00 -1.06094521e-07 -2.28005995e-07  1.62302940e-06
  0.00000000e+00  0.00000000e+00  0.00000000e+00 -4.70509219e-08
  0.00000000e+00  0.00000000e+00  0.00000000e+00  0.00000000e+00
  0.00000000e+00  0.00000000e+00  0.00000000e+00  0.00000000e+00
  0.00000000e+00  0.00000000e+00  0.00000000e+00  0.00000000e+00
  0.00000000e+00  0.00000000e+00  0.00000000e+00  0.00000000e+00
  0.00000000e+00  0.00000000e+00 -1.06094521e-07 -4.70509219e-08
  0.00000000e+00  0.00000000e+00  0.00000000e+00  2.32894943e-06]","[[ 3.68703065e-05  5.34154298e-04]
 [-2.73597577e-05  6.88843899e-04]]",[],0.0,0.0
1787146608.7538948,1.8063958849257433,0.9546220544772757,2.356464267741824,"[ 1.59709455e-06 -2.38514219e-07  0.00000000e+00  0.00000000e+00
  0.00000000e+00 -1.08085878e-07 -2.38514219e-07  1.59627618e-06
  0.00000000e+00  0.00000000e+00  0.00000000e+00 -3.86865494e-08
  0.00000000e+00  0.00000000e+00  0.00000000e+00  0.00000000e+00
  0.00000000e+00  0.00000000e+00  0.00000000e+00  0.00000000e+00
  0.00000000e+00  0.00000000e+00  0.00000000e+00  0.00000000e+00
  0.00000000e+00  0.00000000e+00  0.00000000e+00  0.00000000e+00
  0.00000000e+00  0.00000000e+00 -1.08085878e-07 -3.86865494e-08
  0.00000000e+00  0.00000000e+00  0.00000000e+00  2.42953550e-06]","[[ 3.64638923e-05  5.25572104e-04]
 [-2.72106739e-05  6.60407602e-04]]",[],0.0,0.0
1787146609.1045384,1.80779640873967,0.952916444721189,2.358193567806719,"[ 1.56541374e-06 -2.42191216e-07  0.00000000e+00  0.00000000e+00
  0.00000000e+00 -1.04419267e-07 -2.42191216e-07  1.56566741e-06
  0.00000000e+00  0.00000000e+00  0.00000000e+00 -3.93493317e-08
  0.00000000e+00  0.00000000e+00  0.00000000e+00  0.00000000e+00
  0.00000000e+00  0.00000000e+00  0.00000000e+00  0.00000000e+00
  0.00000000e+00  0.00000000e+00  0.00000000e+00  0.00000000e+00
  0.00000000e+00  0.00000000e+00  0.00000000e+00  0.00000000e+00
  0.00000000e+00  0.00000000e+00 -1.04419267e-07 -3.93493317e-08
  0.00000000e+00  0.00000000e+00  0.00000000e+00  2.32403413e-06]","[[ 3.58547135e-05  5.09052031e-04]
 [-2.68655037e-05  6.47287955e-04]]",[],0.0,0.0
1787146609.4431973,1.8091102529412433,0.9511583296853559,2.358282062047273,"[ 1.53638880e-06 -2.46599883e-07  0.00000000e+00  0.00000000e+00
  0.00000000e+00 -9.32204012e-08 -2.46599883e-07  1.53775271e-06
  0.00000000e+00  0.00000000e+00  0.00000000e+00 -3.53422710e-08
  0.00000000e+00  0.00000000e+00  0.00000000e+00  0.00000000e+00
  0.00000000e+00  0.00000000e+00  0.00000000e+00  0.00000000e+00
  0.00000000e+00  0.00000000e+00  0.00000000e+00  0.00000000e+00
  0.00000000e+00  0.00000000e+00  0.00000000e+00  0.00000000e+00
  0.00000000e+00  0.00000000e+00 -9.32204012e-08 -3.53422710e-08
  0.00000000e+00  0.00000000e+00  0.00000000e+00  2.32205277e-06]","[[ 3.53109352e-05  4.80526281e-04]
 [-2.65730088e-05  6.27379186e-04]]",[],0.0,0.0
1787146609.7848952,1.8104890637382518,0.9494162291525485,2.358708916918488,"[ 1.50976980e-06 -2.50294244e-07  0.00000000e+00  0.00000000e+00
  0.00000000e+00 -9.23627100e-08 -2.50294244e-07  1.51096980e-06
  0.00000000e+00  0.00000000e+00  0.00000000e+00 -4.33208611e-08
  0.00000000e+00  0.00000000e+00  0.00000000e+00  0.00000000e+00
  0.00000000e+00  0.00000000e+00  0.00000000e+00  0.00000000e+00
  0.00000000e+00  0.00000000e+00  0.00000000e+00  0.00000000e+00
  0.00000000e+00  0.00000000e+00  0.00000000e+00  0.00000000e+00
  0.00000000e+00  0.00000000e+00 -9.23627100e-08 -4.33208611e-08
  0.00000000e+00  0.00000000e+00  0.00000000e+00  2.32572444e-06]","[[ 3.48068391e-05  4.70103473e-04]
 [-2.62820162e-05  6.27974620e-04]]",[],0.0,0.0
1787146610.1572871,1.8120927295759375,0.9479291435762578,2.358671407409001,"[ 1.48228160e-06 -2.53149152e-07  0.00000000e+00  0.00000000e+00
  0.00000000e+00 -9.15612615e-08 -2.53149152e-07  1.48496472e-06
  0.00000000e+00  0.00000000e+00  0.00000000e+00 -3.85453141e-08
  0.00000000e+00  0.00000000e+00  0.00000000e+00  0.00000000e+00
  0.00000000e+00  0.00000000e+00  0.00000000e+00  0.00000000e+00
  0.00000000e+00  0.00000000e+00  0.00000000e+00  0.00000000e+00
  0.00000000e+00  0.00000000e+00  0.00000000e+00  0.00000000e+00
  0.00000000e+00  0.00000000e+00 -9.15612615e-08 -3.85453141e-08
  0.00000000e+00  0.00000000e+00  0.00000000e+00  2.28327300e-06]","[[ 3.42734272e-05  4.59871187e-04]
 [-2.59837940e-05  6.08049832e-04]]",[],0.0,0.0
1787146610.5091627,1.8134137207627805,0.9465187354247047,2.360051431222482,"[ 1.45983624e-06 -2.59494248e-07  0.00000000e+00  0.00000000e+00
  0.00000000e+00 -9.45180883e-08 -2.59494248e-07  1.46292359e-06
  0.00000000e+00  0.00000000e+00  0.00000000e+00 -3.51184021e-08
  0.00000000e+00  0.00000000e+00  0.00000000e+00  0.00000000e+00
  0.00000000e+00  0.00000000e+00  0.00000000e+00  0.00000000e+00
  0.00000000e+00  0.00000000e+00  0.00000000e+00  0.00000000e+00
  0.00000000e+00  0.00000000e+00  0.00000000e+00  0.00000000e+00
  0.00000000e+00  0.00000000e+00 -9.45180883e-08 -3.51184021e-08
  0.00000000e+00  0.00000000e+00  0.00000000e+00  2.35401962e-06]","[[ 3.38950327e-05  4.55750537e-04]
 [-2.58103438e-05  5.91086220e-04]]",[],0.0,0.0
1787146610.535085,1.8145046701170056,0.944823329705233,2.3626358299819987,"[ 1.43883606e-06 -2.62962344e-07  0.00000000e+00  0.00000000e+00
  0.00000000e+00 -1.00091041e-07 -2.62962344e-07  1.44164849e-06
  0.00000000e+00  0.00000000e+00  0.00000000e+00 -2.34812148e-08
  0.00000000e+00  0.00000000e+00  0.00000000e+00  0.00000000e+00
  0.00000000e+00  0.00000000e+00  0.00000000e+00  0.00000000e+00
  0.00000000e+00  0.00000000e+00  0.00000000e+00  0.00000000e+00
  0.00000000e+00  0.00000000e+00  0.00000000e+00  0.00000000e+00
  0.00000000e+00  0.00000000e+00 -1.00091041e-07 -2.34812148e-08
  0.00000000e+00  0.00000000e+00  0.00000000e+00  2.36623635e-06]","[[ 3.35060966e-05  4.57602498e-04]
 [-2.55885696e-05  5.61705621e-04]]",[],0.0,0.0
1787146610.8483582,1.8145046701170056,0.944823329705233,2.3626358299819987,"[ 1.43883606e-06 -2.62962344e-07  0.00000000e+00  0.00000000e+00
  0.00000000e+00 -1.00091041e-07 -2.62962344e-07  1.44164849e-06
  0.00000000e+00  0.00000000e+00  0.00000000e+00 -2.34812148e-08
  0.00000000e+00  0.00000000e+00  0.00000000e+00  0.00000000e+00
  0.00000000e+00  0.00000000e+00  0.00000000e+00  0.00000000e+00
  0.00000000e+00  0.00000000e+00  0.00000000e+00  0.00000000e+00
  0.00000000e+00  0.00000000e+00  0.00000000e+00  0.00000000e+00
  0.00000000e+00  0.00000000e+00 -1.00091041e-07 -2.34812148e-08
  0.00000000e+00  0.00000000e+00  0.00000000e+00  2.36623635e-06]","[[ 3.35060966e-05  4.57602498e-04]
 [-2.55885696e-05  5.61705621e-04]]",[],0.0,0.0
1787146611.233765,1.8156523144303043,0.9434112282996178,2.355402466410249,"[ 1.41732869e-06 -2.65636453e-07  0.00000000e+00  0.00000000e+00
  0.00000000e+00 -8.55204774e-08 -2.65636453e-07  1.41991085e-06
  0.00000000e+00  0.00000000e+00  0.00000000e+00 -2.74717890e-08
  0.00000000e+00  0.00000000e+00  0.00000000e+00  0.00000000e+00
  0.00000000e+00  0.00000000e+00  0.00000000e+00  0.00000000e+00
  0.00000000e+00  0.00000000e+00  0.00000000e+00  0.00000000e+00
  0.00000000e+00  0.00000000e+00  0.00000000e+00  0.00000000e+00
  0.00000000e+00  0.00000000e+00 -8.55204774e-08 -2.74717890e-08
  0.00000000e+00  0.00000000e+00  0.00000000e+00  2.31785087e-06]","[[ 3.30940783e-05  4.26405694e-04]
 [-2.53465686e-05  5.58165124e-04]]",[],0.0,0.0
1787146611.5949626,1.8172004955520138,0.9417356219898163,2.35340943301488,"[ 1.40207076e-06 -2.75014870e-07  0.00000000e+00  0.00000000e+00
  0.00000000e+00 -7.84871560e-08 -2.75014870e-07  1.40511239e-06
  0.00000000e+00  0.00000000e+00  0.00000000e+00 -2.59420152e-08
  0.00000000e+00  0.00000000e+00  0.00000000e+00  0.00000000e+00
  0.00000000e+00  0.00000000e+00  0.00000000e+00  0.00000000e+00
  0.00000000e+00  0.00000000e+00  0.00000000e+00  0.00000000e+00
  0.00000000e+00  0.00000000e+00  0.00000000e+00  0.00000000e+00
  0.00000000e+00  0.00000000e+00 -7.84871560e-08 -2.59420152e-08
  0.00000000e+00  0.00000000e+00  0.00000000e+00  2.48464601e-06]","[[ 3.29065927e-05  4.06607710e-04]
 [-2.53382518e-05  5.46563692e-04]]",[],0.0,0.0
1787146611.9410775,1.8184817321330224,0.9401135532022327,2.353624464546769,"[ 1.38420244e-06 -2.80126207e-07  0.00000000e+00  0.00000000e+00
  0.00000000e+00 -8.18339808e-08 -2.80126207e-07  1.38843546e-06
  0.00000000e+00  0.00000000e+00  0.00000000e+00 -3.19894294e-08
  0.00000000e+00  0.00000000e+00  0.00000000e+00  0.00000000e+00
  0.00000000e+00  0.00000000e+00  0.00000000e+00  0.00000000e+00
  0.00000000e+00  0.00000000e+00  0.00000000e+00  0.00000000e+00
  0.00000000e+00  0.00000000e+00  0.00000000e+00  0.00000000e+00
  0.00000000e+00  0.00000000e+00 -8.18339808e-08 -3.19894294e-08
  0.00000000e+00  0.00000000e+00  0.00000000e+00  2.45310885e-06]","[[ 3.26055070e-05  4.04979989e-04]
 [-2.52150487e-05  5.47846355e-04]]",[],0.0,0.0
1787146612.3358996,1.819441975266354,0.9386269090939529,2.3525807634997946,"[ 1.36552453e-06 -2.83359378e-07  0.00000000e+00  0.00000000e+00
  0.00000000e+00 -7.91535208e-08 -2.83359378e-07  1.37090788e-06
  0.00000000e+00  0.00000000e+00  0.00000000e+00 -3.89556548e-08
  0.00000000e+00  0.00000000e+00  0.00000000e+00  0.00000000e+00
  0.00000000e+00  0.00000000e+00  0.00000000e+00  0.00000000e+00
  0.00000000e+00  0.00000000e+00  0.00000000e+00  0.00000000e+00
  0.00000000e+00  0.00000000e+00  0.00000000e+00  0.00000000e+00
  0.00000000e+00  0.00000000e+00 -7.91535208e-08 -3.89556548e-08
  0.00000000e+00  0.00000000e+00  0.00000000e+00  2.38755421e-06]","[[ 3.22610789e-05  3.93980051e-04]
 [-2.50416621e-05  5.50854002e-04]]",[],0.0,0.0
1787146612.6983478,1.8209244474252215,0.9367162742304107,2.34828321627605,"[ 1.35425118e-06 -2.94711537e-07  0.00000000e+00  0.00000000e+00
  0.00000000e+00 -7.95716823e-08 -2.94711537e-07  1.35998232e-06
  0.00000000e+00  0.00000000e+00  0.00000000e+00 -2.85032354e-08
  0.00000000e+00  0.00000000e+00  0.00000000e+00  0.00000000e+00
  0.00000000e+00  0.00000000e+00  0.00000000e+00  0.00000000e+00
  0.00000000e+00  0.00000000e+00  0.00000000e+00  0.00000000e+00
  0.00000000e+00  0.00000000e+00  0.00000000e+00  0.00000000e+00
  0.00000000e+00  0.00000000e+00 -7.95716823e-08 -2.85032354e-08
  0.00000000e+00  0.00000000e+00  0.00000000e+00  2.49281441e-06]","[[ 3.21835073e-05  3.86863534e-04]
 [-2.51291786e-05  5.25564136e-04]]",[],0.0,0.0
1787146612.7283978,1.8222357985119582,0.9350855071845386,2.349692000062073,"[ 1.33785317e-06 -3.00451586e-07  0.00000000e+00  0.00000000e+00
  0.00000000e+00 -9.29797401e-08 -3.00451586e-07  1.34444536e-06
  0.00000000e+00  0.00000000e+00  0.00000000e+00 -1.64874626e-08
  0.00000000e+00  0.00000000e+00  0.00000000e+00  0.00000000e+00
  0.00000000e+00  0.00000000e+00  0.00000000e+00  0.00000000e+00
  0.00000000e+00  0.00000000e+00  0.00000000e+00  0.00000000e+00
  0.00000000e+00  0.00000000e+00  0.00000000e+00  0.00000000e+00
  0.00000000e+00  0.00000000e+00 -9.29797401e-08 -1.64874626e-08
  0.00000000e+00  0.00000000e+00  0.00000000e+00  2.36642780e-06]","[[ 3.19211844e-05  4.02086146e-04]
 [-2.50361553e-05  4.97254033e-04]]",[],0.0,0.0
1787146612.7758267,1.8222357985119582,0.9350855071845386,2.349692000062073,"[ 1.33785317e-06 -3.00451586e-07  0.00000000e+00  0.00000000e+00
  0.00000000e+00 -9.29797401e-08 -3.00451586e-07  1.34444536e-06
  0.00000000e+00  0.00000000e+00  0.00000000e+00 -1.64874626e-08
  0.00000000e+00  0.00000000e+00  0.00000000e+00  0.00000000e+00
  0.00000000e+00  0.00000000e+00  0.00000000e+00  0.00000000e+00
  0.00000000e+00  0.00000000e+00  0.00000000e+00  0.00000000e+00
  0.00000000e+00  0.00000000e+00  0.00000000e+00  0.00000000e+00
  0.00000000e+00  0.00000000e+00 -9.29797401e-08 -1.64874626e-08
  0.00000000e+00  0.00000000e+00  0.00000000e+00  2.36642780e-06]","[[ 3.19211844e-05  4.02086146e-04]
 [-2.50361553e-05  4.97254033e-04]]",[],0.0,0.0
1787146612.8269575,1.8222357985119582,0.9350855071845386,2.349692000062073,"[ 1.33785317e-06 -3.00451586e-07  0.00000000e+00  0.00000000e+00
  0.00000000e+00 -9.29797401e-08 -3.00451586e-07  1.34444536e-06
  0.00000000e+00  0.00000000e+00  0.00000000e+00 -1.64874626e-08
  0.00000000e+00  0.00000000e+00  0.00000000e+00  0.00000000e+00
  0.00000000e+00  0.00000000e+00  0.00000000e+00  0.00000000e+00
  0.00000000e+00  0.00000000e+00  0.00000000e+00  0.00000000e+00
  0.00000000e+00  0.00000000e+00  0.00000000e+00  0.00000000e+00
  0.00000000e+00  0.00000000e+00 -9.29797401e-08 -1.64874626e-08
  0.00000000e+00  0.00000000e+00  0.00000000e+00  2.36642780e-06]","[[ 3.19211844e-05  4.02086146e-04]
 [-2.50361553e-05  4.97254033e-04]]",[],0.0,0.0
1787146612.8750045,1.8222357985119582,0.9350855071845386,2.349692000062073,"[ 1.33785317e-06 -3.00451586e-07  0.00000000e+00  0.00000000e+00
  0.00000000e+00 -9.29797401e-08 -3.00451586e-07  1.34444536e-06
  0.00000000e+00  0.00000000e+00  0.00000000e+00 -1.64874626e-08
  0.00000000e+00  0.00000000e+00  0.00000000e+00  0.00000000e+00
  0.00000000e+00  0.00000000e+00  0.00000000e+00  0.00000000e+00
  0.00000000e+00  0.00000000e+00  0.00000000e+00  0.00000000e+00
  0.00000000e+00  0.00000000e+00  0.00000000e+00  0.00000000e+00
  0.00000000e+00  0.00000000e+00 -9.29797401e-08 -1.64874626e-08
  0.00000000e+00  0.00000000e+00  0.00000000e+00  2.36642780e-06]","[[ 3.19211844e-05  4.02086146e-04]
 [-2.50361553e-05  4.97254033e-04]]",[],0.0,0.0
1787146612.9248302,1.8222357985119582,0.9350855071845386,2.349692000062073,"[ 1.33785317e-06 -3.00451586e-07  0.00000000e+00  0.00000000e+00
  0.00000000e+00 -9.29797401e-08 -3.00451586e-07  1.34444536e-06
  0.00000000e+00  0.00000000e+00  0.00000000e+00 -1.64874626e-08
  0.00000000e+00  0.00000000e+00  0.00000000e+00  0.00000000e+00
  0.00000000e+00  0.00000000e+00  0.00000000e+00  0.00000000e+00
  0.00000000e+00  0.00000000e+00  0.00000000e+00  0.00000000e+00
  0.00000000e+00  0.00000000e+00  0.00000000e+00  0.00000000e+00
  0.00000000e+00  0.00000000e+00 -9.29797401e-08 -1.64874626e-08
  0.00000000e+00  0.00000000e+00  0.00000000e+00  2.36642780e-06]","[[ 3.19211844e-05  4.02086146e-04]
 [-2.50361553e-05  4.97254033e-04]]",[],0.0,0.0
1787146612.9786568,1.8222357985119582,0.9350855071845386,2.349692000062073,"[ 1.33785317e-06 -3.00451586e-07  0.00000000e+00  0.00000000e+00
  0.00000000e+00 -9.29797401e-08 -3.00451586e-07  1.34444536e-06
  0.00000000e+00  0.00000000e+00  0.00000000e+00 -1.64874626e-08
  0.00000000e+00  0.00000000e+00  0.00000000e+00  0.00000000e+00
  0.00000000e+00  0.00000000e+00  0.00000000e+00  0.00000000e+00
  0.00000000e+00  0.00000000e+00  0.00000000e+00  0.00000000e+00
  0.00000000e+00  0.00000000e+00  0.00000000e+00  0.00000000e+00
  0.00000000e+00  0.00000000e+00 -9.29797401e-08 -1.64874626e-08
  0.00000000e+00  0.00000000e+00  0.00000000e+00  2.36642780e-06]","[[ 3.19211844e-05  4.02086146e-04]
 [-2.50361553e-05  4.97254033e-04]]",[],0.0,0.0
1787146613.0269074,1.8222357985119582,0.9350855071845386,2.349692000062073,"[ 1.33785317e-06 -3.00451586e-07  0.00000000e+00  0.00000000e+00
  0.00000000e+00 -9.29797401e-08 -3.00451586e-07  1.34444536e-06
  0.00000000e+00  0.00000000e+00  0.00000000e+00 -1.64874626e-08
  0.00000000e+00  0.00000000e+00  0.00000000e+00  0.00000000e+00
  0.00000000e+00  0.00000000e+00  0.00000000e+00  0.00000000e+00
  0.00000000e+00  0.00000000e+00  0.00000000e+00  0.00000000e+00
  0.00000000e+00  0.00000000e+00  0.00000000e+00  0.00000000e+00
  0.00000000e+00  0.00000000e+00 -9.29797401e-08 -1.64874626e-08
  0.00000000e+00  0.00000000e+00  0.00000000e+00  2.36642780e-06]","[[ 3.19211844e-05  4.02086146e-04]
 [-2.50361553e-05  4.97254033e-04]]",[],0.0,0.0
1787146613.075148,1.8222357985119582,0.9350855071845386,2.349692000062073,"[ 1.33785317e-06 -3.00451586e-07  0.00000000e+00  0.00000000e+00
  0.00000000e+00 -9.29797401e-08 -3.00451586e-07  1.34444536e-06
  0.00000000e+00  0.00000000e+00  0.00000000e+00 -1.64874626e-08
  0.00000000e+00  0.00000000e+00  0.00000000e+00  0.00000000e+00
  0.00000000e+00  0.00000000e+00  0.00000000e+00  0.00000000e+00
  0.00000000e+00  0.00000000e+00  0.00000000e+00  0.00000000e+00
  0.00000000e+00  0.00000000e+00  0.00000000e+00  0.00000000e+00
  0.00000000e+00  0.00000000e+00 -9.29797401e-08 -1.64874626e-08
  0.00000000e+00  0.00000000e+00  0.00000000e+00  2.36642780e-06]","[[ 3.19211844e-05  4.02086146e-04]
 [-2.50361553e-05  4.97254033e-04]]",[],0.0,0.0
1787146613.1252196,1.8222357985119582,0.9350855071845386,2.349692000062073,"[ 1.33785317e-06 -3.00451586e-07  0.00000000e+00  0.00000000e+00
  0.00000000e+00 -9.29797401e-08 -3.00451586e-07  1.34444536e-06
  0.00000000e+00  0.00000000e+00  0.00000000e+00 -1.64874626e-08
  0.00000000e+00  0.00000000e+00  0.00000000e+00  0.00000000e+00
  0.00000000e+00  0.00000000e+00  0.00000000e+00  0.00000000e+00
  0.00000000e+00  0.00000000e+00  0.00000000e+00  0.00000000e+00
  0.00000000e+00  0.00000000e+00  0.00000000e+00  0.00000000e+00
  0.00000000e+00  0.00000000e+00 -9.29797401e-08 -1.64874626e-08
  0.00000000e+00  0.00000000e+00  0.00000000e+00  2.36642780e-06]","[[ 3.19211844e-05  4.02086146e-04]
 [-2.50361553e-05  4.97254033e-04]]",[],0.0,0.0
1787146613.1750443,1.8222357985119582,0.9350855071845386,2.349692000062073,"[ 1.33785317e-06 -3.00451586e-07  0.00000000e+00  0.00000000e+00
  0.00000000e+00 -9.29797401e-08 -3.00451586e-07  1.34444536e-06
  0.00000000e+00  0.00000000e+00  0.00000000e+00 -1.64874626e-08
  0.00000000e+00  0.00000000e+00  0.00000000e+00  0.00000000e+00
  0.00000000e+00  0.00000000e+00  0.00000000e+00  0.00000000e+00
  0.00000000e+00  0.00000000e+00  0.00000000e+00  0.00000000e+00
  0.00000000e+00  0.00000000e+00  0.00000000e+00  0.00000000e+00
  0.00000000e+00  0.00000000e+00 -9.29797401e-08 -1.64874626e-08
  0.00000000e+00  0.00000000e+00  0.00000000e+00  2.36642780e-06]","[[ 3.19211844e-05  4.02086146e-04]
 [-2.50361553e-05  4.97254033e-04]]",[],0.0,0.0
1787146613.2268965,1.8236407886730934,0.9333275659649086,2.3558569940237337,"[ 1.33973751e-06 -3.22896651e-07  0.00000000e+00  0.00000000e+00
  0.00000000e+00 -9.41348082e-08 -3.22896651e-07  1.34721563e-06
  0.00000000e+00  0.00000000e+00  0.00000000e+00 -1.62511890e-08
  0.00000000e+00  0.00000000e+00  0.00000000e+00  0.00000000e+00
  0.00000000e+00  0.00000000e+00  0.00000000e+00  0.00000000e+00
  0.00000000e+00  0.00000000e+00  0.00000000e+00  0.00000000e+00
  0.00000000e+00  0.00000000e+00  0.00000000e+00  0.00000000e+00
  0.00000000e+00  0.00000000e+00 -9.41348082e-08 -1.62511890e-08
  0.00000000e+00  0.00000000e+00  0.00000000e+00  2.69670148e-06]","[[ 3.22720398e-05  3.95254634e-04]
 [-2.55442634e-05  4.91389727e-04]]",[],0.0,0.0
1787146613.274983,1.8236407886730934,0.9333275659649086,2.3558569940237337,"[ 1.33973751e-06 -3.22896651e-07  0.00000000e+00  0.00000000e+00
  0.00000000e+00 -9.41348082e-08 -3.22896651e-07  1.34721563e-06
  0.00000000e+00  0.00000000e+00  0.00000000e+00 -1.62511890e-08
  0.00000000e+00  0.00000000e+00  0.00000000e+00  0.00000000e+00
  0.00000000e+00  0.00000000e+00  0.00000000e+00  0.00000000e+00
  0.00000000e+00  0.00000000e+00  0.00000000e+00  0.00000000e+00
  0.00000000e+00  0.00000000e+00  0.00000000e+00  0.00000000e+00
  0.00000000e+00  0.00000000e+00 -9.41348082e-08 -1.62511890e-08
