time,x,y,yaw,cov_prop,K_gain,innovation,v_ekf,omega_ekf
1787212449.5097265,0.4516284062690189,-0.9666252947198645,0.17976494981437877,"[ 2.77274064e-05 -3.80102036e-06  0.00000000e+00  0.00000000e+00
  0.00000000e+00 -3.05956139e-06 -3.80102036e-06  2.02445889e-05
  0.00000000e+00  0.00000000e+00  0.00000000e+00  4.23721497e-06
  0.00000000e+00  0.00000000e+00  0.00000000e+00  0.00000000e+00
  0.00000000e+00  0.00000000e+00  0.00000000e+00  0.00000000e+00
  0.00000000e+00  0.00000000e+00  0.00000000e+00  0.00000000e+00
  0.00000000e+00  0.00000000e+00  0.00000000e+00  0.00000000e+00
  0.00000000e+00  0.00000000e+00 -3.05956139e-06  4.23721497e-06
  0.00000000e+00  0.00000000e+00  0.00000000e+00  4.69564869e-06]","[[-0.00069812  0.00579169]
 [ 0.00013007 -0.01484709]]",[],0.0,0.0
1787212449.5626414,0.4516284062690189,-0.9666252947198645,0.17976494981437877,"[ 2.77274064e-05 -3.80102036e-06  0.00000000e+00  0.00000000e+00
  0.00000000e+00 -3.05956139e-06 -3.80102036e-06  2.02445889e-05
  0.00000000e+00  0.00000000e+00  0.00000000e+00  4.23721497e-06
  0.00000000e+00  0.00000000e+00  0.00000000e+00  0.00000000e+00
  0.00000000e+00  0.00000000e+00  0.00000000e+00  0.00000000e+00
  0.00000000e+00  0.00000000e+00  0.00000000e+00  0.00000000e+00
  0.00000000e+00  0.00000000e+00  0.00000000e+00  0.00000000e+00
  0.00000000e+00  0.00000000e+00 -3.05956139e-06  4.23721497e-06
  0.00000000e+00  0.00000000e+00  0.00000000e+00  4.69564869e-06]","[[-0.00069812  0.00579169]
 [ 0.00013007 -0.01484709]]",[],0.0,0.0
1787212449.627472,0.4516284062690189,-0.9666252947198645,0.17976494981437877,"[ 2.77274064e-05 -3.80102036e-06  0.00000000e+00  0.00000000e+00
  0.00000000e+00 -3.05956139e-06 -3.80102036e-06  2.02445889e-05
  0.00000000e+00  0.00000000e+00  0.00000000e+00  4.23721497e-06
  0.00000000e+00  0.00000000e+00  0.00000000e+00  0.00000000e+00
  0.00000000e+00  0.00000000e+00  0.00000000e+00  0.00000000e+00
  0.00000000e+00  0.00000000e+00  0.00000000e+00  0.00000000e+00
  0.00000000e+00  0.00000000e+00  0.00000000e+00  0.00000000e+00
  0.00000000e+00  0.00000000e+00 -3.05956139e-06  4.23721497e-06
  0.00000000e+00  0.00000000e+00  0.00000000e+00  4.69564869e-06]","[[-0.00069812  0.00579169]
 [ 0.00013007 -0.01484709]]",[],0.0,0.0
1787212449.6975348,0.4516284062690189,-0.9666252947198645,0.17976494981437877,"[ 2.77274064e-05 -3.80102036e-06  0.00000000e+00  0.00000000e+00
  0.00000000e+00 -3.05956139e-06 -3.80102036e-06  2.02445889e-05
  0.00000000e+00  0.00000000e+00  0.00000000e+00  4.23721497e-06
  0.00000000e+00  0.00000000e+00  0.00000000e+00  0.00000000e+00
  0.00000000e+00  0.00000000e+00  0.00000000e+00  0.00000000e+00
  0.00000000e+00  0.00000000e+00  0.00000000e+00  0.00000000e+00
  0.00000000e+00  0.00000000e+00  0.00000000e+00  0.00000000e+00
  0.00000000e+00  0.00000000e+00 -3.05956139e-06  4.23721497e-06
  0.00000000e+00  0.00000000e+00  0.00000000e+00  4.69564869e-06]","[[-0.00069812  0.00579169]
 [ 0.00013007 -0.01484709]]",[],0.0,0.0
1787212449.7492003,0.4516284062690189,-0.9666252947198645,0.17976494981437877,"[ 2.77274064e-05 -3.80102036e-06  0.00000000e+00  0.00000000e+00
  0.00000000e+00 -3.05956139e-06 -3.80102036e-06  2.02445889e-05
  0.00000000e+00  0.00000000e+00  0.00000000e+00  4.23721497e-06
  0.00000000e+00  0.00000000e+00  0.00000000e+00  0.00000000e+00
  0.00000000e+00  0.00000000e+00  0.00000000e+00  0.00000000e+00
  0.00000000e+00  0.00000000e+00  0.00000000e+00  0.00000000e+00
  0.00000000e+00  0.00000000e+00  0.00000000e+00  0.00000000e+00
  0.00000000e+00  0.00000000e+00 -3.05956139e-06  4.23721497e-06
  0.00000000e+00  0.00000000e+00  0.00000000e+00  4.69564869e-06]","[[-0.00069812  0.00579169]
 [ 0.00013007 -0.01484709]]",[],0.0,0.0
1787212449.7617815,0.4516284062690189,-0.9666252947198645,0.17976494981437877,"[ 2.77274064e-05 -3.80102036e-06  0.00000000e+00  0.00000000e+00
  0.00000000e+00 -3.05956139e-06 -3.80102036e-06  2.02445889e-05
  0.00000000e+00  0.00000000e+00  0.00000000e+00  4.23721497e-06
  0.00000000e+00  0.00000000e+00  0.00000000e+00  0.00000000e+00
  0.00000000e+00  0.00000000e+00  0.00000000e+00  0.00000000e+00
  0.00000000e+00  0.00000000e+00  0.00000000e+00  0.00000000e+00
  0.00000000e+00  0.00000000e+00  0.00000000e+00  0.00000000e+00
  0.00000000e+00  0.00000000e+00 -3.05956139e-06  4.23721497e-06
  0.00000000e+00  0.00000000e+00  0.00000000e+00  4.69564869e-06]","[[-0.00069812  0.00579169]
 [ 0.00013007 -0.01484709]]",[],0.0,0.0
1787212449.8562229,0.4516284062690189,-0.9666252947198645,0.17976494981437877,"[ 2.77274064e-05 -3.80102036e-06  0.00000000e+00  0.00000000e+00
  0.00000000e+00 -3.05956139e-06 -3.80102036e-06  2.02445889e-05
  0.00000000e+00  0.00000000e+00  0.00000000e+00  4.23721497e-06
  0.00000000e+00  0.00000000e+00  0.00000000e+00  0.00000000e+00
  0.00000000e+00  0.00000000e+00  0.00000000e+00  0.00000000e+00
  0.00000000e+00  0.00000000e+00  0.00000000e+00  0.00000000e+00
  0.00000000e+00  0.00000000e+00  0.00000000e+00  0.00000000e+00
  0.00000000e+00  0.00000000e+00 -3.05956139e-06  4.23721497e-06
  0.00000000e+00  0.00000000e+00  0.00000000e+00  4.69564869e-06]","[[-0.00069812  0.00579169]
 [ 0.00013007 -0.01484709]]",[],0.0,0.0
1787212449.8641255,0.4516284062690189,-0.9666252947198645,0.17976494981437877,"[ 2.77274064e-05 -3.80102036e-06  0.00000000e+00  0.00000000e+00
  0.00000000e+00 -3.05956139e-06 -3.80102036e-06  2.02445889e-05
  0.00000000e+00  0.00000000e+00  0.00000000e+00  4.23721497e-06
  0.00000000e+00  0.00000000e+00  0.00000000e+00  0.00000000e+00
  0.00000000e+00  0.00000000e+00  0.00000000e+00  0.00000000e+00
  0.00000000e+00  0.00000000e+00  0.00000000e+00  0.00000000e+00
  0.00000000e+00  0.00000000e+00  0.00000000e+00  0.00000000e+00
  0.00000000e+00  0.00000000e+00 -3.05956139e-06  4.23721497e-06
  0.00000000e+00  0.00000000e+00  0.00000000e+00  4.69564869e-06]","[[-0.00069812  0.00579169]
 [ 0.00013007 -0.01484709]]",[],0.0,0.0
1787212449.913717,0.4516284062690189,-0.9666252947198645,0.17976494981437877,"[ 2.77274064e-05 -3.80102036e-06  0.00000000e+00  0.00000000e+00
  0.00000000e+00 -3.05956139e-06 -3.80102036e-06  2.02445889e-05
  0.00000000e+00  0.00000000e+00  0.00000000e+00  4.23721497e-06
  0.00000000e+00  0.00000000e+00  0.00000000e+00  0.00000000e+00
  0.00000000e+00  0.00000000e+00  0.00000000e+00  0.00000000e+00
  0.00000000e+00  0.00000000e+00  0.00000000e+00  0.00000000e+00
  0.00000000e+00  0.00000000e+00  0.00000000e+00  0.00000000e+00
  0.00000000e+00  0.00000000e+00 -3.05956139e-06  4.23721497e-06
  0.00000000e+00  0.00000000e+00  0.00000000e+00  4.69564869e-06]","[[-0.00069812  0.00579169]
 [ 0.00013007 -0.01484709]]",[],0.0,0.0
1787212449.9645731,0.4516284062690189,-0.9666252947198645,0.17976494981437877,"[ 2.77274064e-05 -3.80102036e-06  0.00000000e+00  0.00000000e+00
  0.00000000e+00 -3.05956139e-06 -3.80102036e-06  2.02445889e-05
  0.00000000e+00  0.00000000e+00  0.00000000e+00  4.23721497e-06
  0.00000000e+00  0.00000000e+00  0.00000000e+00  0.00000000e+00
  0.00000000e+00  0.00000000e+00  0.00000000e+00  0.00000000e+00
  0.00000000e+00  0.00000000e+00  0.00000000e+00  0.00000000e+00
  0.00000000e+00  0.00000000e+00  0.00000000e+00  0.00000000e+00
  0.00000000e+00  0.00000000e+00 -3.05956139e-06  4.23721497e-06
  0.00000000e+00  0.00000000e+00  0.00000000e+00  4.69564869e-06]","[[-0.00069812  0.00579169]
 [ 0.00013007 -0.01484709]]",[],0.0,0.0
1787212450.025399,0.4516284062690189,-0.9666252947198645,0.17976494981437877,"[ 2.77274064e-05 -3.80102036e-06  0.00000000e+00  0.00000000e+00
  0.00000000e+00 -3.05956139e-06 -3.80102036e-06  2.02445889e-05
  0.00000000e+00  0.00000000e+00  0.00000000e+00  4.23721497e-06
  0.00000000e+00  0.00000000e+00  0.00000000e+00  0.00000000e+00
  0.00000000e+00  0.00000000e+00  0.00000000e+00  0.00000000e+00
  0.00000000e+00  0.00000000e+00  0.00000000e+00  0.00000000e+00
  0.00000000e+00  0.00000000e+00  0.00000000e+00  0.00000000e+00
  0.00000000e+00  0.00000000e+00 -3.05956139e-06  4.23721497e-06
  0.00000000e+00  0.00000000e+00  0.00000000e+00  4.69564869e-06]","[[-0.00069812  0.00579169]
 [ 0.00013007 -0.01484709]]",[],0.0,0.0
1787212450.0628805,0.4516284062690189,-0.9666252947198645,0.17976494981437877,"[ 2.77274064e-05 -3.80102036e-06  0.00000000e+00  0.00000000e+00
  0.00000000e+00 -3.05956139e-06 -3.80102036e-06  2.02445889e-05
  0.00000000e+00  0.00000000e+00  0.00000000e+00  4.23721497e-06
  0.00000000e+00  0.00000000e+00  0.00000000e+00  0.00000000e+00
  0.00000000e+00  0.00000000e+00  0.00000000e+00  0.00000000e+00
  0.00000000e+00  0.00000000e+00  0.00000000e+00  0.00000000e+00
  0.00000000e+00  0.00000000e+00  0.00000000e+00  0.00000000e+00
  0.00000000e+00  0.00000000e+00 -3.05956139e-06  4.23721497e-06
  0.00000000e+00  0.00000000e+00  0.00000000e+00  4.69564869e-06]","[[-0.00069812  0.00579169]
 [ 0.00013007 -0.01484709]]",[],0.0,0.0
1787212450.1098988,0.4516284062690189,-0.9666252947198645,0.17976494981437877,"[ 2.77274064e-05 -3.80102036e-06  0.00000000e+00  0.00000000e+00
  0.00000000e+00 -3.05956139e-06 -3.80102036e-06  2.02445889e-05
  0.00000000e+00  0.00000000e+00  0.00000000e+00  4.23721497e-06
  0.00000000e+00  0.00000000e+00  0.00000000e+00  0.00000000e+00
  0.00000000e+00  0.00000000e+00  0.00000000e+00  0.00000000e+00
  0.00000000e+00  0.00000000e+00  0.00000000e+00  0.00000000e+00
  0.00000000e+00  0.00000000e+00  0.00000000e+00  0.00000000e+00
  0.00000000e+00  0.00000000e+00 -3.05956139e-06  4.23721497e-06
  0.00000000e+00  0.00000000e+00  0.00000000e+00  4.69564869e-06]","[[-0.00069812  0.00579169]
 [ 0.00013007 -0.01484709]]",[],0.0,0.0
1787212450.1672938,0.4516284062690189,-0.9666252947198645,0.17976494981437877,"[ 2.77274064e-05 -3.80102036e-06  0.00000000e+00  0.00000000e+00
  0.00000000e+00 -3.05956139e-06 -3.80102036e-06  2.02445889e-05
  0.00000000e+00  0.00000000e+00  0.00000000e+00  4.23721497e-06
  0.00000000e+00  0.00000000e+00  0.00000000e+00  0.00000000e+00
  0.00000000e+00  0.00000000e+00  0.00000000e+00  0.00000000e+00
  0.00000000e+00  0.00000000e+00  0.00000000e+00  0.00000000e+00
  0.00000000e+00  0.00000000e+00  0.00000000e+00  0.00000000e+00
  0.00000000e+00  0.00000000e+00 -3.05956139e-06  4.23721497e-06
  0.00000000e+00  0.00000000e+00  0.00000000e+00  4.69564869e-06]","[[-0.00069812  0.00579169]
 [ 0.00013007 -0.01484709]]",[],0.0,0.0
1787212450.2499022,0.4516284062690189,-0.9666252947198645,0.17976494981437877,"[ 2.77274064e-05 -3.80102036e-06  0.00000000e+00  0.00000000e+00
  0.00000000e+00 -3.05956139e-06 -3.80102036e-06  2.02445889e-05
  0.00000000e+00  0.00000000e+00  0.00000000e+00  4.23721497e-06
  0.00000000e+00  0.00000000e+00  0.00000000e+00  0.00000000e+00
  0.00000000e+00  0.00000000e+00  0.00000000e+00  0.00000000e+00
  0.00000000e+00  0.00000000e+00  0.00000000e+00  0.00000000e+00
  0.00000000e+00  0.00000000e+00  0.00000000e+00  0.00000000e+00
  0.00000000e+00  0.00000000e+00 -3.05956139e-06  4.23721497e-06
  0.00000000e+00  0.00000000e+00  0.00000000e+00  4.69564869e-06]","[[-0.00069812  0.00579169]
 [ 0.00013007 -0.01484709]]",[],0.0,0.0
1787212450.2620668,0.4516284062690189,-0.9666252947198645,0.17976494981437877,"[ 2.77274064e-05 -3.80102036e-06  0.00000000e+00  0.00000000e+00
  0.00000000e+00 -3.05956139e-06 -3.80102036e-06  2.02445889e-05
  0.00000000e+00  0.00000000e+00  0.00000000e+00  4.23721497e-06
  0.00000000e+00  0.00000000e+00  0.00000000e+00  0.00000000e+00
  0.00000000e+00  0.00000000e+00  0.00000000e+00  0.00000000e+00
  0.00000000e+00  0.00000000e+00  0.00000000e+00  0.00000000e+00
  0.00000000e+00  0.00000000e+00  0.00000000e+00  0.00000000e+00
  0.00000000e+00  0.00000000e+00 -3.05956139e-06  4.23721497e-06
  0.00000000e+00  0.00000000e+00  0.00000000e+00  4.69564869e-06]","[[-0.00069812  0.00579169]
 [ 0.00013007 -0.01484709]]",[],0.0,0.0
1787212450.3153434,0.4516284062690189,-0.9666252947198645,0.17976494981437877,"[ 2.77274064e-05 -3.80102036e-06  0.00000000e+00  0.00000000e+00
  0.00000000e+00 -3.05956139e-06 -3.80102036e-06  2.02445889e-05
  0.00000000e+00  0.00000000e+00  0.00000000e+00  4.23721497e-06
  0.00000000e+00  0.00000000e+00  0.00000000e+00  0.00000000e+00
  0.00000000e+00  0.00000000e+00  0.00000000e+00  0.00000000e+00
  0.00000000e+00  0.00000000e+00  0.00000000e+00  0.00000000e+00
  0.00000000e+00  0.00000000e+00  0.00000000e+00  0.00000000e+00
  0.00000000e+00  0.00000000e+00 -3.05956139e-06  4.23721497e-06
  0.00000000e+00  0.00000000e+00  0.00000000e+00  4.69564869e-06]","[[-0.00069812  0.00579169]
 [ 0.00013007 -0.01484709]]",[],0.0,0.0
1787212450.3594897,0.4516284062690189,-0.9666252947198645,0.17976494981437877,"[ 2.77274064e-05 -3.80102036e-06  0.00000000e+00  0.00000000e+00
  0.00000000e+00 -3.05956139e-06 -3.80102036e-06  2.02445889e-05
  0.00000000e+00  0.00000000e+00  0.00000000e+00  4.23721497e-06
  0.00000000e+00  0.00000000e+00  0.00000000e+00  0.00000000e+00
  0.00000000e+00  0.00000000e+00  0.00000000e+00  0.00000000e+00
  0.00000000e+00  0.00000000e+00  0.00000000e+00  0.00000000e+00
  0.00000000e+00  0.00000000e+00  0.00000000e+00  0.00000000e+00
  0.00000000e+00  0.00000000e+00 -3.05956139e-06  4.23721497e-06
  0.00000000e+00  0.00000000e+00  0.00000000e+00  4.69564869e-06]","[[-0.00069812  0.00579169]
 [ 0.00013007 -0.01484709]]",[],0.0,0.0
1787212450.4282377,0.4516284062690189,-0.9666252947198645,0.17976494981437877,"[ 2.77274064e-05 -3.80102036e-06  0.00000000e+00  0.00000000e+00
  0.00000000e+00 -3.05956139e-06 -3.80102036e-06  2.02445889e-05
  0.00000000e+00  0.00000000e+00  0.00000000e+00  4.23721497e-06
  0.00000000e+00  0.00000000e+00  0.00000000e+00  0.00000000e+00
  0.00000000e+00  0.00000000e+00  0.00000000e+00  0.00000000e+00
  0.00000000e+00  0.00000000e+00  0.00000000e+00  0.00000000e+00
  0.00000000e+00  0.00000000e+00  0.00000000e+00  0.00000000e+00
  0.00000000e+00  0.00000000e+00 -3.05956139e-06  4.23721497e-06
  0.00000000e+00  0.00000000e+00  0.00000000e+00  4.69564869e-06]","[[-0.00069812  0.00579169]
 [ 0.00013007 -0.01484709]]",[],0.0,0.0
1787212450.4583018,0.41774274105528514,-0.9652905089975159,0.16178124273205308,"[ 1.45664372e-05 -1.19105113e-06  0.00000000e+00  0.00000000e+00
  0.00000000e+00 -1.40607555e-06 -1.19105113e-06  9.71661106e-06
  0.00000000e+00  0.00000000e+00  0.00000000e+00  1.62153714e-06
  0.00000000e+00  0.00000000e+00  0.00000000e+00  0.00000000e+00
  0.00000000e+00  0.00000000e+00  0.00000000e+00  0.00000000e+00
  0.00000000e+00  0.00000000e+00  0.00000000e+00  0.00000000e+00
  0.00000000e+00  0.00000000e+00  0.00000000e+00  0.00000000e+00
  0.00000000e+00  0.00000000e+00 -1.40607555e-06  1.62153714e-06
  0.00000000e+00  0.00000000e+00  0.00000000e+00  3.47910686e-06]","[[-3.58365884e-04  3.48172997e-03]
 [ 1.79870503e-06 -6.65404958e-03]]",[],0.0,0.0
1787212450.5166087,0.41774274105528514,-0.9652905089975159,0.16178124273205308,"[ 1.45664372e-05 -1.19105113e-06  0.00000000e+00  0.00000000e+00
  0.00000000e+00 -1.40607555e-06 -1.19105113e-06  9.71661106e-06
  0.00000000e+00  0.00000000e+00  0.00000000e+00  1.62153714e-06
  0.00000000e+00  0.00000000e+00  0.00000000e+00  0.00000000e+00
  0.00000000e+00  0.00000000e+00  0.00000000e+00  0.00000000e+00
  0.00000000e+00  0.00000000e+00  0.00000000e+00  0.00000000e+00
  0.00000000e+00  0.00000000e+00  0.00000000e+00  0.00000000e+00
  0.00000000e+00  0.00000000e+00 -1.40607555e-06  1.62153714e-06
  0.00000000e+00  0.00000000e+00  0.00000000e+00  3.47910686e-06]","[[-3.58365884e-04  3.48172997e-03]
 [ 1.79870503e-06 -6.65404958e-03]]",[],0.0,0.0
1787212450.590755,0.41774274105528514,-0.9652905089975159,0.16178124273205308,"[ 1.45664372e-05 -1.19105113e-06  0.00000000e+00  0.00000000e+00
  0.00000000e+00 -1.40607555e-06 -1.19105113e-06  9.71661106e-06
  0.00000000e+00  0.00000000e+00  0.00000000e+00  1.62153714e-06
  0.00000000e+00  0.00000000e+00  0.00000000e+00  0.00000000e+00
  0.00000000e+00  0.00000000e+00  0.00000000e+00  0.00000000e+00
  0.00000000e+00  0.00000000e+00  0.00000000e+00  0.00000000e+00
  0.00000000e+00  0.00000000e+00  0.00000000e+00  0.00000000e+00
  0.00000000e+00  0.00000000e+00 -1.40607555e-06  1.62153714e-06
  0.00000000e+00  0.00000000e+00  0.00000000e+00  3.47910686e-06]","[[-3.58365884e-04  3.48172997e-03]
 [ 1.79870503e-06 -6.65404958e-03]]",[],0.0,0.0
1787212450.6101358,0.41774274105528514,-0.9652905089975159,0.16178124273205308,"[ 1.45664372e-05 -1.19105113e-06  0.00000000e+00  0.00000000e+00
  0.00000000e+00 -1.40607555e-06 -1.19105113e-06  9.71661106e-06
  0.00000000e+00  0.00000000e+00  0.00000000e+00  1.62153714e-06
  0.00000000e+00  0.00000000e+00  0.00000000e+00  0.00000000e+00
  0.00000000e+00  0.00000000e+00  0.00000000e+00  0.00000000e+00
  0.00000000e+00  0.00000000e+00  0.00000000e+00  0.00000000e+00
  0.00000000e+00  0.00000000e+00  0.00000000e+00  0.00000000e+00
  0.00000000e+00  0.00000000e+00 -1.40607555e-06  1.62153714e-06
  0.00000000e+00  0.00000000e+00  0.00000000e+00  3.47910686e-06]","[[-3.58365884e-04  3.48172997e-03]
 [ 1.79870503e-06 -6.65404958e-03]]",[],0.0,0.0
1787212450.6789982,0.41774274105528514,-0.9652905089975159,0.16178124273205308,"[ 1.45664372e-05 -1.19105113e-06  0.00000000e+00  0.00000000e+00
  0.00000000e+00 -1.40607555e-06 -1.19105113e-06  9.71661106e-06
  0.00000000e+00  0.00000000e+00  0.00000000e+00  1.62153714e-06
  0.00000000e+00  0.00000000e+00  0.00000000e+00  0.00000000e+00
  0.00000000e+00  0.00000000e+00  0.00000000e+00  0.00000000e+00
  0.00000000e+00  0.00000000e+00  0.00000000e+00  0.00000000e+00
  0.00000000e+00  0.00000000e+00  0.00000000e+00  0.00000000e+00
  0.00000000e+00  0.00000000e+00 -1.40607555e-06  1.62153714e-06
  0.00000000e+00  0.00000000e+00  0.00000000e+00  3.47910686e-06]","[[-3.58365884e-04  3.48172997e-03]
 [ 1.79870503e-06 -6.65404958e-03]]",[],0.0,0.0
1787212450.84829,0.41774274105528514,-0.9652905089975159,0.16178124273205308,"[ 1.45664372e-05 -1.19105113e-06  0.00000000e+00  0.00000000e+00
  0.00000000e+00 -1.40607555e-06 -1.19105113e-06  9.71661106e-06
  0.00000000e+00  0.00000000e+00  0.00000000e+00  1.62153714e-06
  0.00000000e+00  0.00000000e+00  0.00000000e+00  0.00000000e+00
  0.00000000e+00  0.00000000e+00  0.00000000e+00  0.00000000e+00
  0.00000000e+00  0.00000000e+00  0.00000000e+00  0.00000000e+00
  0.00000000e+00  0.00000000e+00  0.00000000e+00  0.00000000e+00
  0.00000000e+00  0.00000000e+00 -1.40607555e-06  1.62153714e-06
  0.00000000e+00  0.00000000e+00  0.00000000e+00  3.47910686e-06]","[[-3.58365884e-04  3.48172997e-03]
 [ 1.79870503e-06 -6.65404958e-03]]",[],0.0,0.0
1787212450.8623738,0.41774274105528514,-0.9652905089975159,0.16178124273205308,"[ 1.45664372e-05 -1.19105113e-06  0.00000000e+00  0.00000000e+00
  0.00000000e+00 -1.40607555e-06 -1.19105113e-06  9.71661106e-06
  0.00000000e+00  0.00000000e+00  0.00000000e+00  1.62153714e-06
  0.00000000e+00  0.00000000e+00  0.00000000e+00  0.00000000e+00
  0.00000000e+00  0.00000000e+00  0.00000000e+00  0.00000000e+00
  0.00000000e+00  0.00000000e+00  0.00000000e+00  0.00000000e+00
  0.00000000e+00  0.00000000e+00  0.00000000e+00  0.00000000e+00
  0.00000000e+00  0.00000000e+00 -1.40607555e-06  1.62153714e-06
  0.00000000e+00  0.00000000e+00  0.00000000e+00  3.47910686e-06]","[[-3.58365884e-04  3.48172997e-03]
 [ 1.79870503e-06 -6.65404958e-03]]",[],0.0,0.0
1787212450.9104936,0.41774274105528514,-0.9652905089975159,0.16178124273205308,"[ 1.45664372e-05 -1.19105113e-06  0.00000000e+00  0.00000000e+00
  0.00000000e+00 -1.40607555e-06 -1.19105113e-06  9.71661106e-06
  0.00000000e+00  0.00000000e+00  0.00000000e+00  1.62153714e-06
  0.00000000e+00  0.00000000e+00  0.00000000e+00  0.00000000e+00
  0.00000000e+00  0.00000000e+00  0.00000000e+00  0.00000000e+00
  0.00000000e+00  0.00000000e+00  0.00000000e+00  0.00000000e+00
  0.00000000e+00  0.00000000e+00  0.00000000e+00  0.00000000e+00
  0.00000000e+00  0.00000000e+00 -1.40607555e-06  1.62153714e-06
  0.00000000e+00  0.00000000e+00  0.00000000e+00  3.47910686e-06]","[[-3.58365884e-04  3.48172997e-03]
 [ 1.79870503e-06 -6.65404958e-03]]",[],0.0,0.0
1787212450.9613197,0.41774274105528514,-0.9652905089975159,0.16178124273205308,"[ 1.45664372e-05 -1.19105113e-06  0.00000000e+00  0.00000000e+00
  0.00000000e+00 -1.40607555e-06 -1.19105113e-06  9.71661106e-06
  0.00000000e+00  0.00000000e+00  0.00000000e+00  1.62153714e-06
  0.00000000e+00  0.00000000e+00  0.00000000e+00  0.00000000e+00
  0.00000000e+00  0.00000000e+00  0.00000000e+00  0.00000000e+00
  0.00000000e+00  0.00000000e+00  0.00000000e+00  0.00000000e+00
  0.00000000e+00  0.00000000e+00  0.00000000e+00  0.00000000e+00
  0.00000000e+00  0.00000000e+00 -1.40607555e-06  1.62153714e-06
  0.00000000e+00  0.00000000e+00  0.00000000e+00  3.47910686e-06]","[[-3.58365884e-04  3.48172997e-03]
 [ 1.79870503e-06 -6.65404958e-03]]",[],0.0,0.0
1787212451.0184827,0.41774274105528514,-0.9652905089975159,0.16178124273205308,"[ 1.45664372e-05 -1.19105113e-06  0.00000000e+00  0.00000000e+00
  0.00000000e+00 -1.40607555e-06 -1.19105113e-06  9.71661106e-06
  0.00000000e+00  0.00000000e+00  0.00000000e+00  1.62153714e-06
  0.00000000e+00  0.00000000e+00  0.00000000e+00  0.00000000e+00
  0.00000000e+00  0.00000000e+00  0.00000000e+00  0.00000000e+00
  0.00000000e+00  0.00000000e+00  0.00000000e+00  0.00000000e+00
  0.00000000e+00  0.00000000e+00  0.00000000e+00  0.00000000e+00
  0.00000000e+00  0.00000000e+00 -1.40607555e-06  1.62153714e-06
  0.00000000e+00  0.00000000e+00  0.00000000e+00  3.47910686e-06]","[[-3.58365884e-04  3.48172997e-03]
 [ 1.79870503e-06 -6.65404958e-03]]",[],0.0,0.0
1787212451.0590315,0.41774274105528514,-0.9652905089975159,0.16178124273205308,"[ 1.45664372e-05 -1.19105113e-06  0.00000000e+00  0.00000000e+00
  0.00000000e+00 -1.40607555e-06 -1.19105113e-06  9.71661106e-06
  0.00000000e+00  0.00000000e+00  0.00000000e+00  1.62153714e-06
  0.00000000e+00  0.00000000e+00  0.00000000e+00  0.00000000e+00
  0.00000000e+00  0.00000000e+00  0.00000000e+00  0.00000000e+00
  0.00000000e+00  0.00000000e+00  0.00000000e+00  0.00000000e+00
  0.00000000e+00  0.00000000e+00  0.00000000e+00  0.00000000e+00
  0.00000000e+00  0.00000000e+00 -1.40607555e-06  1.62153714e-06
  0.00000000e+00  0.00000000e+00  0.00000000e+00  3.47910686e-06]","[[-3.58365884e-04  3.48172997e-03]
 [ 1.79870503e-06 -6.65404958e-03]]",[],0.0,0.0
1787212451.114445,0.41774274105528514,-0.9652905089975159,0.16178124273205308,"[ 1.45664372e-05 -1.19105113e-06  0.00000000e+00  0.00000000e+00
  0.00000000e+00 -1.40607555e-06 -1.19105113e-06  9.71661106e-06
  0.00000000e+00  0.00000000e+00  0.00000000e+00  1.62153714e-06
  0.00000000e+00  0.00000000e+00  0.00000000e+00  0.00000000e+00
  0.00000000e+00  0.00000000e+00  0.00000000e+00  0.00000000e+00
  0.00000000e+00  0.00000000e+00  0.00000000e+00  0.00000000e+00
  0.00000000e+00  0.00000000e+00  0.00000000e+00  0.00000000e+00
  0.00000000e+00  0.00000000e+00 -1.40607555e-06  1.62153714e-06
  0.00000000e+00  0.00000000e+00  0.00000000e+00  3.47910686e-06]","[[-3.58365884e-04  3.48172997e-03]
 [ 1.79870503e-06 -6.65404958e-03]]",[],0.0,0.0
1787212451.1659153,0.41774274105528514,-0.9652905089975159,0.16178124273205308,"[ 1.45664372e-05 -1.19105113e-06  0.00000000e+00  0.00000000e+00
  0.00000000e+00 -1.40607555e-06 -1.19105113e-06  9.71661106e-06
  0.00000000e+00  0.00000000e+00  0.00000000e+00  1.62153714e-06
  0.00000000e+00  0.00000000e+00  0.00000000e+00  0.00000000e+00
  0.00000000e+00  0.00000000e+00  0.00000000e+00  0.00000000e+00
  0.00000000e+00  0.00000000e+00  0.00000000e+00  0.00000000e+00
  0.00000000e+00  0.00000000e+00  0.00000000e+00  0.00000000e+00
  0.00000000e+00  0.00000000e+00 -1.40607555e-06  1.62153714e-06
  0.00000000e+00  0.00000000e+00  0.00000000e+00  3.47910686e-06]","[[-3.58365884e-04  3.48172997e-03]
 [ 1.79870503e-06 -6.65404958e-03]]",[],0.0,0.0
1787212451.2147088,0.40026124532254154,-0.9650917607511644,0.1485585342372486,"[ 9.94063454e-06 -5.32486492e-07  0.00000000e+00  0.00000000e+00
  0.00000000e+00 -9.15617491e-07 -5.32486492e-07  6.38104168e-06
  0.00000000e+00  0.00000000e+00  0.00000000e+00  1.10070939e-06
  0.00000000e+00  0.00000000e+00  0.00000000e+00  0.00000000e+00
  0.00000000e+00  0.00000000e+00  0.00000000e+00  0.00000000e+00
  0.00000000e+00  0.00000000e+00  0.00000000e+00  0.00000000e+00
  0.00000000e+00  0.00000000e+00  0.00000000e+00  0.00000000e+00
  0.00000000e+00  0.00000000e+00 -9.15617491e-07  1.10070939e-06
  0.00000000e+00  0.00000000e+00  0.00000000e+00  3.12795513e-06]","[[-2.45415166e-04  2.17986876e-03]
 [-4.81765013e-06 -4.39639702e-03]]",[],0.0,0.0
1787212451.2622352,0.40026124532254154,-0.9650917607511644,0.1485585342372486,"[ 9.94063454e-06 -5.32486492e-07  0.00000000e+00  0.00000000e+00
  0.00000000e+00 -9.15617491e-07 -5.32486492e-07  6.38104168e-06
  0.00000000e+00  0.00000000e+00  0.00000000e+00  1.10070939e-06
  0.00000000e+00  0.00000000e+00  0.00000000e+00  0.00000000e+00
  0.00000000e+00  0.00000000e+00  0.00000000e+00  0.00000000e+00
  0.00000000e+00  0.00000000e+00  0.00000000e+00  0.00000000e+00
  0.00000000e+00  0.00000000e+00  0.00000000e+00  0.00000000e+00
  0.00000000e+00  0.00000000e+00 -9.15617491e-07  1.10070939e-06
  0.00000000e+00  0.00000000e+00  0.00000000e+00  3.12795513e-06]","[[-2.45415166e-04  2.17986876e-03]
 [-4.81765013e-06 -4.39639702e-03]]",[],0.0,0.0
1787212451.3144717,0.40026124532254154,-0.9650917607511644,0.1485585342372486,"[ 9.94063454e-06 -5.32486492e-07  0.00000000e+00  0.00000000e+00
  0.00000000e+00 -9.15617491e-07 -5.32486492e-07  6.38104168e-06
  0.00000000e+00  0.00000000e+00  0.00000000e+00  1.10070939e-06
  0.00000000e+00  0.00000000e+00  0.00000000e+00  0.00000000e+00
  0.00000000e+00  0.00000000e+00  0.00000000e+00  0.00000000e+00
  0.00000000e+00  0.00000000e+00  0.00000000e+00  0.00000000e+00
  0.00000000e+00  0.00000000e+00  0.00000000e+00  0.00000000e+00
  0.00000000e+00  0.00000000e+00 -9.15617491e-07  1.10070939e-06
  0.00000000e+00  0.00000000e+00  0.00000000e+00  3.12795513e-06]","[[-2.45415166e-04  2.17986876e-03]
 [-4.81765013e-06 -4.39639702e-03]]",[],0.0,0.0
1787212451.3602772,0.40026124532254154,-0.9650917607511644,0.1485585342372486,"[ 9.94063454e-06 -5.32486492e-07  0.00000000e+00  0.00000000e+00
  0.00000000e+00 -9.15617491e-07 -5.32486492e-07  6.38104168e-06
  0.00000000e+00  0.00000000e+00  0.00000000e+00  1.10070939e-06
  0.00000000e+00  0.00000000e+00  0.00000000e+00  0.00000000e+00
  0.00000000e+00  0.00000000e+00  0.00000000e+00  0.00000000e+00
  0.00000000e+00  0.00000000e+00  0.00000000e+00  0.00000000e+00
  0.00000000e+00  0.00000000e+00  0.00000000e+00  0.00000000e+00
  0.00000000e+00  0.00000000e+00 -9.15617491e-07  1.10070939e-06
  0.00000000e+00  0.00000000e+00  0.00000000e+00  3.12795513e-06]","[[-2.45415166e-04  2.17986876e-03]
 [-4.81765013e-06 -4.39639702e-03]]",[],0.0,0.0
1787212451.4091694,0.40026124532254154,-0.9650917607511644,0.1485585342372486,"[ 9.94063454e-06 -5.32486492e-07  0.00000000e+00  0.00000000e+00
  0.00000000e+00 -9.15617491e-07 -5.32486492e-07  6.38104168e-06
  0.00000000e+00  0.00000000e+00  0.00000000e+00  1.10070939e-06
  0.00000000e+00  0.00000000e+00  0.00000000e+00  0.00000000e+00
  0.00000000e+00  0.00000000e+00  0.00000000e+00  0.00000000e+00
  0.00000000e+00  0.00000000e+00  0.00000000e+00  0.00000000e+00
  0.00000000e+00  0.00000000e+00  0.00000000e+00  0.00000000e+00
  0.00000000e+00  0.00000000e+00 -9.15617491e-07  1.10070939e-06
  0.00000000e+00  0.00000000e+00  0.00000000e+00  3.12795513e-06]","[[-2.45415166e-04  2.17986876e-03]
 [-4.81765013e-06 -4.39639702e-03]]",[],0.0,0.0
1787212451.4632778,0.40026124532254154,-0.9650917607511644,0.1485585342372486,"[ 9.94063454e-06 -5.32486492e-07  0.00000000e+00  0.00000000e+00
  0.00000000e+00 -9.15617491e-07 -5.32486492e-07  6.38104168e-06
  0.00000000e+00  0.00000000e+00  0.00000000e+00  1.10070939e-06
  0.00000000e+00  0.00000000e+00  0.00000000e+00  0.00000000e+00
  0.00000000e+00  0.00000000e+00  0.00000000e+00  0.00000000e+00
  0.00000000e+00  0.00000000e+00  0.00000000e+00  0.00000000e+00
  0.00000000e+00  0.00000000e+00  0.00000000e+00  0.00000000e+00
  0.00000000e+00  0.00000000e+00 -9.15617491e-07  1.10070939e-06
  0.00000000e+00  0.00000000e+00  0.00000000e+00  3.12795513e-06]","[[-2.45415166e-04  2.17986876e-03]
 [-4.81765013e-06 -4.39639702e-03]]",[],0.0,0.0
1787212451.5122523,0.40026124532254154,-0.9650917607511644,0.1485585342372486,"[ 9.94063454e-06 -5.32486492e-07  0.00000000e+00  0.00000000e+00
  0.00000000e+00 -9.15617491e-07 -5.32486492e-07  6.38104168e-06
  0.00000000e+00  0.00000000e+00  0.00000000e+00  1.10070939e-06
  0.00000000e+00  0.00000000e+00  0.00000000e+00  0.00000000e+00
  0.00000000e+00  0.00000000e+00  0.00000000e+00  0.00000000e+00
  0.00000000e+00  0.00000000e+00  0.00000000e+00  0.00000000e+00
  0.00000000e+00  0.00000000e+00  0.00000000e+00  0.00000000e+00
  0.00000000e+00  0.00000000e+00 -9.15617491e-07  1.10070939e-06
  0.00000000e+00  0.00000000e+00  0.00000000e+00  3.12795513e-06]","[[-2.45415166e-04  2.17986876e-03]
 [-4.81765013e-06 -4.39639702e-03]]",[],0.0,0.0
1787212451.5594676,0.40026124532254154,-0.9650917607511644,0.1485585342372486,"[ 9.94063454e-06 -5.32486492e-07  0.00000000e+00  0.00000000e+00
  0.00000000e+00 -9.15617491e-07 -5.32486492e-07  6.38104168e-06
  0.00000000e+00  0.00000000e+00  0.00000000e+00  1.10070939e-06
  0.00000000e+00  0.00000000e+00  0.00000000e+00  0.00000000e+00
  0.00000000e+00  0.00000000e+00  0.00000000e+00  0.00000000e+00
  0.00000000e+00  0.00000000e+00  0.00000000e+00  0.00000000e+00
  0.00000000e+00  0.00000000e+00  0.00000000e+00  0.00000000e+00
  0.00000000e+00  0.00000000e+00 -9.15617491e-07  1.10070939e-06
  0.00000000e+00  0.00000000e+00  0.00000000e+00  3.12795513e-06]","[[-2.45415166e-04  2.17986876e-03]
 [-4.81765013e-06 -4.39639702e-03]]",[],0.0,0.0
1787212451.6101117,0.40026124532254154,-0.9650917607511644,0.1485585342372486,"[ 9.94063454e-06 -5.32486492e-07  0.00000000e+00  0.00000000e+00
  0.00000000e+00 -9.15617491e-07 -5.32486492e-07  6.38104168e-06
  0.00000000e+00  0.00000000e+00  0.00000000e+00  1.10070939e-06
  0.00000000e+00  0.00000000e+00  0.00000000e+00  0.00000000e+00
  0.00000000e+00  0.00000000e+00  0.00000000e+00  0.00000000e+00
  0.00000000e+00  0.00000000e+00  0.00000000e+00  0.00000000e+00
  0.00000000e+00  0.00000000e+00  0.00000000e+00  0.00000000e+00
  0.00000000e+00  0.00000000e+00 -9.15617491e-07  1.10070939e-06
  0.00000000e+00  0.00000000e+00  0.00000000e+00  3.12795513e-06]","[[-2.45415166e-04  2.17986876e-03]
 [-4.81765013e-06 -4.39639702e-03]]",[],0.0,0.0
1787212451.6593626,0.40026124532254154,-0.9650917607511644,0.1485585342372486,"[ 9.94063454e-06 -5.32486492e-07  0.00000000e+00  0.00000000e+00
  0.00000000e+00 -9.15617491e-07 -5.32486492e-07  6.38104168e-06
  0.00000000e+00  0.00000000e+00  0.00000000e+00  1.10070939e-06
  0.00000000e+00  0.00000000e+00  0.00000000e+00  0.00000000e+00
  0.00000000e+00  0.00000000e+00  0.00000000e+00  0.00000000e+00
  0.00000000e+00  0.00000000e+00  0.00000000e+00  0.00000000e+00
  0.00000000e+00  0.00000000e+00  0.00000000e+00  0.00000000e+00
  0.00000000e+00  0.00000000e+00 -9.15617491e-07  1.10070939e-06
  0.00000000e+00  0.00000000e+00  0.00000000e+00  3.12795513e-06]","[[-2.45415166e-04  2.17986876e-03]
 [-4.81765013e-06 -4.39639702e-03]]",[],0.0,0.0
1787212451.7113438,0.40026124532254154,-0.9650917607511644,0.1485585342372486,"[ 9.94063454e-06 -5.32486492e-07  0.00000000e+00  0.00000000e+00
  0.00000000e+00 -9.15617491e-07 -5.32486492e-07  6.38104168e-06
  0.00000000e+00  0.00000000e+00  0.00000000e+00  1.10070939e-06
  0.00000000e+00  0.00000000e+00  0.00000000e+00  0.00000000e+00
  0.00000000e+00  0.00000000e+00  0.00000000e+00  0.00000000e+00
  0.00000000e+00  0.00000000e+00  0.00000000e+00  0.00000000e+00
  0.00000000e+00  0.00000000e+00  0.00000000e+00  0.00000000e+00
  0.00000000e+00  0.00000000e+00 -9.15617491e-07  1.10070939e-06
  0.00000000e+00  0.00000000e+00  0.00000000e+00  3.12795513e-06]","[[-2.45415166e-04  2.17986876e-03]
 [-4.81765013e-06 -4.39639702e-03]]",[],0.0,0.0
1787212451.758987,0.40026124532254154,-0.9650917607511644,0.1485585342372486,"[ 9.94063454e-06 -5.32486492e-07  0.00000000e+00  0.00000000e+00
  0.00000000e+00 -9.15617491e-07 -5.32486492e-07  6.38104168e-06
  0.00000000e+00  0.00000000e+00  0.00000000e+00  1.10070939e-06
  0.00000000e+00  0.00000000e+00  0.00000000e+00  0.00000000e+00
  0.00000000e+00  0.00000000e+00  0.00000000e+00  0.00000000e+00
  0.00000000e+00  0.00000000e+00  0.00000000e+00  0.00000000e+00
  0.00000000e+00  0.00000000e+00  0.00000000e+00  0.00000000e+00
  0.00000000e+00  0.00000000e+00 -9.15617491e-07  1.10070939e-06
  0.00000000e+00  0.00000000e+00  0.00000000e+00  3.12795513e-06]","[[-2.45415166e-04  2.17986876e-03]
 [-4.81765013e-06 -4.39639702e-03]]",[],0.0,0.0
1787212451.8106115,0.40026124532254154,-0.9650917607511644,0.1485585342372486,"[ 9.94063454e-06 -5.32486492e-07  0.00000000e+00  0.00000000e+00
  0.00000000e+00 -9.15617491e-07 -5.32486492e-07  6.38104168e-06
  0.00000000e+00  0.00000000e+00  0.00000000e+00  1.10070939e-06
  0.00000000e+00  0.00000000e+00  0.00000000e+00  0.00000000e+00
  0.00000000e+00  0.00000000e+00  0.00000000e+00  0.00000000e+00
  0.00000000e+00  0.00000000e+00  0.00000000e+00  0.00000000e+00
  0.00000000e+00  0.00000000e+00  0.00000000e+00  0.00000000e+00
  0.00000000e+00  0.00000000e+00 -9.15617491e-07  1.10070939e-06
  0.00000000e+00  0.00000000e+00  0.00000000e+00  3.12795513e-06]","[[-2.45415166e-04  2.17986876e-03]
 [-4.81765013e-06 -4.39639702e-03]]",[],0.0,0.0
1787212451.8612552,0.40026124532254154,-0.9650917607511644,0.1485585342372486,"[ 9.94063454e-06 -5.32486492e-07  0.00000000e+00  0.00000000e+00
  0.00000000e+00 -9.15617491e-07 -5.32486492e-07  6.38104168e-06
  0.00000000e+00  0.00000000e+00  0.00000000e+00  1.10070939e-06
  0.00000000e+00  0.00000000e+00  0.00000000e+00  0.00000000e+00
  0.00000000e+00  0.00000000e+00  0.00000000e+00  0.00000000e+00
  0.00000000e+00  0.00000000e+00  0.00000000e+00  0.00000000e+00
  0.00000000e+00  0.00000000e+00  0.00000000e+00  0.00000000e+00
  0.00000000e+00  0.00000000e+00 -9.15617491e-07  1.10070939e-06
  0.00000000e+00  0.00000000e+00  0.00000000e+00  3.12795513e-06]","[[-2.45415166e-04  2.17986876e-03]
 [-4.81765013e-06 -4.39639702e-03]]",[],0.0,0.0
1787212451.9095335,0.40026124532254154,-0.9650917607511644,0.1485585342372486,"[ 9.94063454e-06 -5.32486492e-07  0.00000000e+00  0.00000000e+00
  0.00000000e+00 -9.15617491e-07 -5.32486492e-07  6.38104168e-06
  0.00000000e+00  0.00000000e+00  0.00000000e+00  1.10070939e-06
  0.00000000e+00  0.00000000e+00  0.00000000e+00  0.00000000e+00
  0.00000000e+00  0.00000000e+00  0.00000000e+00  0.00000000e+00
  0.00000000e+00  0.00000000e+00  0.00000000e+00  0.00000000e+00
  0.00000000e+00  0.00000000e+00  0.00000000e+00  0.00000000e+00
  0.00000000e+00  0.00000000e+00 -9.15617491e-07  1.10070939e-06
  0.00000000e+00  0.00000000e+00  0.00000000e+00  3.12795513e-06]","[[-2.45415166e-04  2.17986876e-03]
 [-4.81765013e-06 -4.39639702e-03]]",[],0.0,0.0
1787212451.9649699,0.40026124532254154,-0.9650917607511644,0.1485585342372486,"[ 9.94063454e-06 -5.32486492e-07  0.00000000e+00  0.00000000e+00
  0.00000000e+00 -9.15617491e-07 -5.32486492e-07  6.38104168e-06
  0.00000000e+00  0.00000000e+00  0.00000000e+00  1.10070939e-06
  0.00000000e+00  0.00000000e+00  0.00000000e+00  0.00000000e+00
  0.00000000e+00  0.00000000e+00  0.00000000e+00  0.00000000e+00
  0.00000000e+00  0.00000000e+00  0.00000000e+00  0.00000000e+00
  0.00000000e+00  0.00000000e+00  0.00000000e+00  0.00000000e+00
  0.00000000e+00  0.00000000e+00 -9.15617491e-07  1.10070939e-06
  0.00000000e+00  0.00000000e+00  0.00000000e+00  3.12795513e-06]","[[-2.45415166e-04  2.17986876e-03]
 [-4.81765013e-06 -4.39639702e-03]]",[],0.0,0.0
1787212452.0089197,0.40026124532254154,-0.9650917607511644,0.1485585342372486,"[ 9.94063454e-06 -5.32486492e-07  0.00000000e+00  0.00000000e+00
  0.00000000e+00 -9.15617491e-07 -5.32486492e-07  6.38104168e-06
  0.00000000e+00  0.00000000e+00  0.00000000e+00  1.10070939e-06
  0.00000000e+00  0.00000000e+00  0.00000000e+00  0.00000000e+00
  0.00000000e+00  0.00000000e+00  0.00000000e+00  0.00000000e+00
  0.00000000e+00  0.00000000e+00  0.00000000e+00  0.00000000e+00
  0.00000000e+00  0.00000000e+00  0.00000000e+00  0.00000000e+00
  0.00000000e+00  0.00000000e+00 -9.15617491e-07  1.10070939e-06
  0.00000000e+00  0.00000000e+00  0.00000000e+00  3.12795513e-06]","[[-2.45415166e-04  2.17986876e-03]
 [-4.81765013e-06 -4.39639702e-03]]",[],0.0,0.0
1787212452.060063,0.37416879034349626,-0.9638227318729621,0.12917629933491706,"[ 7.60148090e-06 -3.68155528e-07  0.00000000e+00  0.00000000e+00
  0.00000000e+00 -6.43401473e-07 -3.68155528e-07  4.77826036e-06
  0.00000000e+00  0.00000000e+00  0.00000000e+00  7.22652921e-07
  0.00000000e+00  0.00000000e+00  0.00000000e+00  0.00000000e+00
  0.00000000e+00  0.00000000e+00  0.00000000e+00  0.00000000e+00
  0.00000000e+00  0.00000000e+00  0.00000000e+00  0.00000000e+00
  0.00000000e+00  0.00000000e+00  0.00000000e+00  0.00000000e+00
  0.00000000e+00  0.00000000e+00 -6.43401473e-07  7.22652921e-07
  0.00000000e+00  0.00000000e+00  0.00000000e+00  3.11548381e-06]","[[-1.89099385e-04  1.39927440e-03]
 [ 1.77191515e-06 -3.10859450e-03]]",[],0.0,0.0
1787212452.115415,0.37416879034349626,-0.9638227318729621,0.12917629933491706,"[ 7.60148090e-06 -3.68155528e-07  0.00000000e+00  0.00000000e+00
  0.00000000e+00 -6.43401473e-07 -3.68155528e-07  4.77826036e-06
  0.00000000e+00  0.00000000e+00  0.00000000e+00  7.22652921e-07
  0.00000000e+00  0.00000000e+00  0.00000000e+00  0.00000000e+00
  0.00000000e+00  0.00000000e+00  0.00000000e+00  0.00000000e+00
  0.00000000e+00  0.00000000e+00  0.00000000e+00  0.00000000e+00
  0.00000000e+00  0.00000000e+00  0.00000000e+00  0.00000000e+00
  0.00000000e+00  0.00000000e+00 -6.43401473e-07  7.22652921e-07
  0.00000000e+00  0.00000000e+00  0.00000000e+00  3.11548381e-06]","[[-1.89099385e-04  1.39927440e-03]
 [ 1.77191515e-06 -3.10859450e-03]]",[],0.0,0.0
1787212452.1636364,0.37416879034349626,-0.9638227318729621,0.12917629933491706,"[ 7.60148090e-06 -3.68155528e-07  0.00000000e+00  0.00000000e+00
  0.00000000e+00 -6.43401473e-07 -3.68155528e-07  4.77826036e-06
  0.00000000e+00  0.00000000e+00  0.00000000e+00  7.22652921e-07
  0.00000000e+00  0.00000000e+00  0.00000000e+00  0.00000000e+00
  0.00000000e+00  0.00000000e+00  0.00000000e+00  0.00000000e+00
  0.00000000e+00  0.00000000e+00  0.00000000e+00  0.00000000e+00
  0.00000000e+00  0.00000000e+00  0.00000000e+00  0.00000000e+00
  0.00000000e+00  0.00000000e+00 -6.43401473e-07  7.22652921e-07
  0.00000000e+00  0.00000000e+00  0.00000000e+00  3.11548381e-06]","[[-1.89099385e-04  1.39927440e-03]
 [ 1.77191515e-06 -3.10859450e-03]]",[],0.0,0.0
1787212452.2483902,0.37416879034349626,-0.9638227318729621,0.12917629933491706,"[ 7.60148090e-06 -3.68155528e-07  0.00000000e+00  0.00000000e+00
  0.00000000e+00 -6.43401473e-07 -3.68155528e-07  4.77826036e-06
  0.00000000e+00  0.00000000e+00  0.00000000e+00  7.22652921e-07
  0.00000000e+00  0.00000000e+00  0.00000000e+00  0.00000000e+00
  0.00000000e+00  0.00000000e+00  0.00000000e+00  0.00000000e+00
  0.00000000e+00  0.00000000e+00  0.00000000e+00  0.00000000e+00
  0.00000000e+00  0.00000000e+00  0.00000000e+00  0.00000000e+00
  0.00000000e+00  0.00000000e+00 -6.43401473e-07  7.22652921e-07
  0.00000000e+00  0.00000000e+00  0.00000000e+00  3.11548381e-06]","[[-1.89099385e-04  1.39927440e-03]
 [ 1.77191515e-06 -3.10859450e-03]]",[],0.0,0.0
1787212452.2743297,0.37416879034349626,-0.9638227318729621,0.12917629933491706,"[ 7.60148090e-06 -3.68155528e-07  0.00000000e+00  0.00000000e+00
  0.00000000e+00 -6.43401473e-07 -3.68155528e-07  4.77826036e-06
  0.00000000e+00  0.00000000e+00  0.00000000e+00  7.22652921e-07
  0.00000000e+00  0.00000000e+00  0.00000000e+00  0.00000000e+00
  0.00000000e+00  0.00000000e+00  0.00000000e+00  0.00000000e+00
  0.00000000e+00  0.00000000e+00  0.00000000e+00  0.00000000e+00
  0.00000000e+00  0.00000000e+00  0.00000000e+00  0.00000000e+00
  0.00000000e+00  0.00000000e+00 -6.43401473e-07  7.22652921e-07
  0.00000000e+00  0.00000000e+00  0.00000000e+00  3.11548381e-06]","[[-1.89099385e-04  1.39927440e-03]
 [ 1.77191515e-06 -3.10859450e-03]]",[],0.0,0.0
1787212452.309263,0.37416879034349626,-0.9638227318729621,0.12917629933491706,"[ 7.60148090e-06 -3.68155528e-07  0.00000000e+00  0.00000000e+00
  0.00000000e+00 -6.43401473e-07 -3.68155528e-07  4.77826036e-06
  0.00000000e+00  0.00000000e+00  0.00000000e+00  7.22652921e-07
  0.00000000e+00  0.00000000e+00  0.00000000e+00  0.00000000e+00
  0.00000000e+00  0.00000000e+00  0.00000000e+00  0.00000000e+00
  0.00000000e+00  0.00000000e+00  0.00000000e+00  0.00000000e+00
  0.00000000e+00  0.00000000e+00  0.00000000e+00  0.00000000e+00
  0.00000000e+00  0.00000000e+00 -6.43401473e-07  7.22652921e-07
  0.00000000e+00  0.00000000e+00  0.00000000e+00  3.11548381e-06]","[[-1.89099385e-04  1.39927440e-03]
 [ 1.77191515e-06 -3.10859450e-03]]",[],0.0,0.0
1787212452.3621187,0.37416879034349626,-0.9638227318729621,0.12917629933491706,"[ 7.60148090e-06 -3.68155528e-07  0.00000000e+00  0.00000000e+00
  0.00000000e+00 -6.43401473e-07 -3.68155528e-07  4.77826036e-06
  0.00000000e+00  0.00000000e+00  0.00000000e+00  7.22652921e-07
  0.00000000e+00  0.00000000e+00  0.00000000e+00  0.00000000e+00
  0.00000000e+00  0.00000000e+00  0.00000000e+00  0.00000000e+00
  0.00000000e+00  0.00000000e+00  0.00000000e+00  0.00000000e+00
  0.00000000e+00  0.00000000e+00  0.00000000e+00  0.00000000e+00
  0.00000000e+00  0.00000000e+00 -6.43401473e-07  7.22652921e-07
  0.00000000e+00  0.00000000e+00  0.00000000e+00  3.11548381e-06]","[[-1.89099385e-04  1.39927440e-03]
 [ 1.77191515e-06 -3.10859450e-03]]",[],0.0,0.0
1787212452.414616,0.37416879034349626,-0.9638227318729621,0.12917629933491706,"[ 7.60148090e-06 -3.68155528e-07  0.00000000e+00  0.00000000e+00
  0.00000000e+00 -6.43401473e-07 -3.68155528e-07  4.77826036e-06
  0.00000000e+00  0.00000000e+00  0.00000000e+00  7.22652921e-07
  0.00000000e+00  0.00000000e+00  0.00000000e+00  0.00000000e+00
  0.00000000e+00  0.00000000e+00  0.00000000e+00  0.00000000e+00
  0.00000000e+00  0.00000000e+00  0.00000000e+00  0.00000000e+00
  0.00000000e+00  0.00000000e+00  0.00000000e+00  0.00000000e+00
  0.00000000e+00  0.00000000e+00 -6.43401473e-07  7.22652921e-07
  0.00000000e+00  0.00000000e+00  0.00000000e+00  3.11548381e-06]","[[-1.89099385e-04  1.39927440e-03]
 [ 1.77191515e-06 -3.10859450e-03]]",[],0.0,0.0
1787212452.459035,0.37416879034349626,-0.9638227318729621,0.12917629933491706,"[ 7.60148090e-06 -3.68155528e-07  0.00000000e+00  0.00000000e+00
  0.00000000e+00 -6.43401473e-07 -3.68155528e-07  4.77826036e-06
  0.00000000e+00  0.00000000e+00  0.00000000e+00  7.22652921e-07
  0.00000000e+00  0.00000000e+00  0.00000000e+00  0.00000000e+00
  0.00000000e+00  0.00000000e+00  0.00000000e+00  0.00000000e+00
  0.00000000e+00  0.00000000e+00  0.00000000e+00  0.00000000e+00
  0.00000000e+00  0.00000000e+00  0.00000000e+00  0.00000000e+00
  0.00000000e+00  0.00000000e+00 -6.43401473e-07  7.22652921e-07
  0.00000000e+00  0.00000000e+00  0.00000000e+00  3.11548381e-06]","[[-1.89099385e-04  1.39927440e-03]
 [ 1.77191515e-06 -3.10859450e-03]]",[],0.0,0.0
1787212452.5102465,0.37416879034349626,-0.9638227318729621,0.12917629933491706,"[ 7.60148090e-06 -3.68155528e-07  0.00000000e+00  0.00000000e+00
  0.00000000e+00 -6.43401473e-07 -3.68155528e-07  4.77826036e-06
  0.00000000e+00  0.00000000e+00  0.00000000e+00  7.22652921e-07
  0.00000000e+00  0.00000000e+00  0.00000000e+00  0.00000000e+00
  0.00000000e+00  0.00000000e+00  0.00000000e+00  0.00000000e+00
  0.00000000e+00  0.00000000e+00  0.00000000e+00  0.00000000e+00
  0.00000000e+00  0.00000000e+00  0.00000000e+00  0.00000000e+00
  0.00000000e+00  0.00000000e+00 -6.43401473e-07  7.22652921e-07
  0.00000000e+00  0.00000000e+00  0.00000000e+00  3.11548381e-06]","[[-1.89099385e-04  1.39927440e-03]
 [ 1.77191515e-06 -3.10859450e-03]]",[],0.0,0.0
1787212452.5586185,0.37416879034349626,-0.9638227318729621,0.12917629933491706,"[ 7.60148090e-06 -3.68155528e-07  0.00000000e+00  0.00000000e+00
  0.00000000e+00 -6.43401473e-07 -3.68155528e-07  4.77826036e-06
  0.00000000e+00  0.00000000e+00  0.00000000e+00  7.22652921e-07
  0.00000000e+00  0.00000000e+00  0.00000000e+00  0.00000000e+00
  0.00000000e+00  0.00000000e+00  0.00000000e+00  0.00000000e+00
  0.00000000e+00  0.00000000e+00  0.00000000e+00  0.00000000e+00
  0.00000000e+00  0.00000000e+00  0.00000000e+00  0.00000000e+00
  0.00000000e+00  0.00000000e+00 -6.43401473e-07  7.22652921e-07
  0.00000000e+00  0.00000000e+00  0.00000000e+00  3.11548381e-06]","[[-1.89099385e-04  1.39927440e-03]
 [ 1.77191515e-06 -3.10859450e-03]]",[],0.0,0.0
1787212452.6091642,0.37416879034349626,-0.9638227318729621,0.12917629933491706,"[ 7.60148090e-06 -3.68155528e-07  0.00000000e+00  0.00000000e+00
  0.00000000e+00 -6.43401473e-07 -3.68155528e-07  4.77826036e-06
  0.00000000e+00  0.00000000e+00  0.00000000e+00  7.22652921e-07
  0.00000000e+00  0.00000000e+00  0.00000000e+00  0.00000000e+00
  0.00000000e+00  0.00000000e+00  0.00000000e+00  0.00000000e+00
  0.00000000e+00  0.00000000e+00  0.00000000e+00  0.00000000e+00
  0.00000000e+00  0.00000000e+00  0.00000000e+00  0.00000000e+00
  0.00000000e+00  0.00000000e+00 -6.43401473e-07  7.22652921e-07
  0.00000000e+00  0.00000000e+00  0.00000000e+00  3.11548381e-06]","[[-1.89099385e-04  1.39927440e-03]
 [ 1.77191515e-06 -3.10859450e-03]]",[],0.0,0.0
1787212452.669847,0.37416879034349626,-0.9638227318729621,0.12917629933491706,"[ 7.60148090e-06 -3.68155528e-07  0.00000000e+00  0.00000000e+00
  0.00000000e+00 -6.43401473e-07 -3.68155528e-07  4.77826036e-06
  0.00000000e+00  0.00000000e+00  0.00000000e+00  7.22652921e-07
  0.00000000e+00  0.00000000e+00  0.00000000e+00  0.00000000e+00
  0.00000000e+00  0.00000000e+00  0.00000000e+00  0.00000000e+00
  0.00000000e+00  0.00000000e+00  0.00000000e+00  0.00000000e+00
  0.00000000e+00  0.00000000e+00  0.00000000e+00  0.00000000e+00
  0.00000000e+00  0.00000000e+00 -6.43401473e-07  7.22652921e-07
  0.00000000e+00  0.00000000e+00  0.00000000e+00  3.11548381e-06]","[[-1.89099385e-04  1.39927440e-03]
 [ 1.77191515e-06 -3.10859450e-03]]",[],0.0,0.0
1787212452.7085795,0.37416879034349626,-0.9638227318729621,0.12917629933491706,"[ 7.60148090e-06 -3.68155528e-07  0.00000000e+00  0.00000000e+00
  0.00000000e+00 -6.43401473e-07 -3.68155528e-07  4.77826036e-06
  0.00000000e+00  0.00000000e+00  0.00000000e+00  7.22652921e-07
  0.00000000e+00  0.00000000e+00  0.00000000e+00  0.00000000e+00
  0.00000000e+00  0.00000000e+00  0.00000000e+00  0.00000000e+00
  0.00000000e+00  0.00000000e+00  0.00000000e+00  0.00000000e+00
  0.00000000e+00  0.00000000e+00  0.00000000e+00  0.00000000e+00
  0.00000000e+00  0.00000000e+00 -6.43401473e-07  7.22652921e-07
  0.00000000e+00  0.00000000e+00  0.00000000e+00  3.11548381e-06]","[[-1.89099385e-04  1.39927440e-03]
 [ 1.77191515e-06 -3.10859450e-03]]",[],0.0,0.0
1787212452.767546,0.37416879034349626,-0.9638227318729621,0.12917629933491706,"[ 7.60148090e-06 -3.68155528e-07  0.00000000e+00  0.00000000e+00
  0.00000000e+00 -6.43401473e-07 -3.68155528e-07  4.77826036e-06
  0.00000000e+00  0.00000000e+00  0.00000000e+00  7.22652921e-07
  0.00000000e+00  0.00000000e+00  0.00000000e+00  0.00000000e+00
  0.00000000e+00  0.00000000e+00  0.00000000e+00  0.00000000e+00
  0.00000000e+00  0.00000000e+00  0.00000000e+00  0.00000000e+00
  0.00000000e+00  0.00000000e+00  0.00000000e+00  0.00000000e+00
  0.00000000e+00  0.00000000e+00 -6.43401473e-07  7.22652921e-07
  0.00000000e+00  0.00000000e+00  0.00000000e+00  3.11548381e-06]","[[-1.89099385e-04  1.39927440e-03]
 [ 1.77191515e-06 -3.10859450e-03]]",[],0.0,0.0
1787212452.8102393,0.37416879034349626,-0.9638227318729621,0.12917629933491706,"[ 7.60148090e-06 -3.68155528e-07  0.00000000e+00  0.00000000e+00
  0.00000000e+00 -6.43401473e-07 -3.68155528e-07  4.77826036e-06
  0.00000000e+00  0.00000000e+00  0.00000000e+00  7.22652921e-07
  0.00000000e+00  0.00000000e+00  0.00000000e+00  0.00000000e+00
  0.00000000e+00  0.00000000e+00  0.00000000e+00  0.00000000e+00
  0.00000000e+00  0.00000000e+00  0.00000000e+00  0.00000000e+00
  0.00000000e+00  0.00000000e+00  0.00000000e+00  0.00000000e+00
  0.00000000e+00  0.00000000e+00 -6.43401473e-07  7.22652921e-07
  0.00000000e+00  0.00000000e+00  0.00000000e+00  3.11548381e-06]","[[-1.89099385e-04  1.39927440e-03]
 [ 1.77191515e-06 -3.10859450e-03]]",[],0.0,0.0
1787212452.859669,0.37416879034349626,-0.9638227318729621,0.12917629933491706,"[ 7.60148090e-06 -3.68155528e-07  0.00000000e+00  0.00000000e+00
  0.00000000e+00 -6.43401473e-07 -3.68155528e-07  4.77826036e-06
  0.00000000e+00  0.00000000e+00  0.00000000e+00  7.22652921e-07
  0.00000000e+00  0.00000000e+00  0.00000000e+00  0.00000000e+00
  0.00000000e+00  0.00000000e+00  0.00000000e+00  0.00000000e+00
  0.00000000e+00  0.00000000e+00  0.00000000e+00  0.00000000e+00
  0.00000000e+00  0.00000000e+00  0.00000000e+00  0.00000000e+00
  0.00000000e+00  0.00000000e+00 -6.43401473e-07  7.22652921e-07
  0.00000000e+00  0.00000000e+00  0.00000000e+00  3.11548381e-06]","[[-1.89099385e-04  1.39927440e-03]
 [ 1.77191515e-06 -3.10859450e-03]]",[],0.0,0.0
1787212452.90946,0.37416879034349626,-0.9638227318729621,0.12917629933491706,"[ 7.60148090e-06 -3.68155528e-07  0.00000000e+00  0.00000000e+00
  0.00000000e+00 -6.43401473e-07 -3.68155528e-07  4.77826036e-06
  0.00000000e+00  0.00000000e+00  0.00000000e+00  7.22652921e-07
  0.00000000e+00  0.00000000e+00  0.00000000e+00  0.00000000e+00
  0.00000000e+00  0.00000000e+00  0.00000000e+00  0.00000000e+00
  0.00000000e+00  0.00000000e+00  0.00000000e+00  0.00000000e+00
  0.00000000e+00  0.00000000e+00  0.00000000e+00  0.00000000e+00
  0.00000000e+00  0.00000000e+00 -6.43401473e-07  7.22652921e-07
  0.00000000e+00  0.00000000e+00  0.00000000e+00  3.11548381e-06]","[[-1.89099385e-04  1.39927440e-03]
 [ 1.77191515e-06 -3.10859450e-03]]",[],0.0,0.0
1787212452.9637825,0.3595682557727193,-0.965200429954618,0.10973526127493695,"[ 6.19291452e-06 -2.55318505e-07  0.00000000e+00  0.00000000e+00
  0.00000000e+00 -4.51166954e-07 -2.55318505e-07  3.81836524e-06
  0.00000000e+00  0.00000000e+00  0.00000000e+00  6.44594283e-07
  0.00000000e+00  0.00000000e+00  0.00000000e+00  0.00000000e+00
  0.00000000e+00  0.00000000e+00  0.00000000e+00  0.00000000e+00
  0.00000000e+00  0.00000000e+00  0.00000000e+00  0.00000000e+00
  0.00000000e+00  0.00000000e+00  0.00000000e+00  0.00000000e+00
  0.00000000e+00  0.00000000e+00 -4.51166954e-07  6.44594283e-07
  0.00000000e+00  0.00000000e+00  0.00000000e+00  3.07031193e-06]","[[-1.53738829e-04  1.07455770e-03]
 [-1.66153816e-06 -2.68753232e-03]]",[],0.0,0.0
1787212453.0130806,0.3595682557727193,-0.965200429954618,0.10973526127493695,"[ 6.19291452e-06 -2.55318505e-07  0.00000000e+00  0.00000000e+00
  0.00000000e+00 -4.51166954e-07 -2.55318505e-07  3.81836524e-06
  0.00000000e+00  0.00000000e+00  0.00000000e+00  6.44594283e-07
  0.00000000e+00  0.00000000e+00  0.00000000e+00  0.00000000e+00
  0.00000000e+00  0.00000000e+00  0.00000000e+00  0.00000000e+00
  0.00000000e+00  0.00000000e+00  0.00000000e+00  0.00000000e+00
  0.00000000e+00  0.00000000e+00  0.00000000e+00  0.00000000e+00
  0.00000000e+00  0.00000000e+00 -4.51166954e-07  6.44594283e-07
  0.00000000e+00  0.00000000e+00  0.00000000e+00  3.07031193e-06]","[[-1.53738829e-04  1.07455770e-03]
 [-1.66153816e-06 -2.68753232e-03]]",[],0.0,0.0
1787212453.0645254,0.3595682557727193,-0.965200429954618,0.10973526127493695,"[ 6.19291452e-06 -2.55318505e-07  0.00000000e+00  0.00000000e+00
  0.00000000e+00 -4.51166954e-07 -2.55318505e-07  3.81836524e-06
  0.00000000e+00  0.00000000e+00  0.00000000e+00  6.44594283e-07
  0.00000000e+00  0.00000000e+00  0.00000000e+00  0.00000000e+00
  0.00000000e+00  0.00000000e+00  0.00000000e+00  0.00000000e+00
  0.00000000e+00  0.00000000e+00  0.00000000e+00  0.00000000e+00
  0.00000000e+00  0.00000000e+00  0.00000000e+00  0.00000000e+00
  0.00000000e+00  0.00000000e+00 -4.51166954e-07  6.44594283e-07
  0.00000000e+00  0.00000000e+00  0.00000000e+00  3.07031193e-06]","[[-1.53738829e-04  1.07455770e-03]
 [-1.66153816e-06 -2.68753232e-03]]",[],0.0,0.0
1787212453.1087942,0.3595682557727193,-0.965200429954618,0.10973526127493695,"[ 6.19291452e-06 -2.55318505e-07  0.00000000e+00  0.00000000e+00
  0.00000000e+00 -4.51166954e-07 -2.55318505e-07  3.81836524e-06
  0.00000000e+00  0.00000000e+00  0.00000000e+00  6.44594283e-07
  0.00000000e+00  0.00000000e+00  0.00000000e+00  0.00000000e+00
  0.00000000e+00  0.00000000e+00  0.00000000e+00  0.00000000e+00
  0.00000000e+00  0.00000000e+00  0.00000000e+00  0.00000000e+00
  0.00000000e+00  0.00000000e+00  0.00000000e+00  0.00000000e+00
  0.00000000e+00  0.00000000e+00 -4.51166954e-07  6.44594283e-07
  0.00000000e+00  0.00000000e+00  0.00000000e+00  3.07031193e-06]","[[-1.53738829e-04  1.07455770e-03]
 [-1.66153816e-06 -2.68753232e-03]]",[],0.0,0.0
1787212453.1613438,0.3595682557727193,-0.965200429954618,0.10973526127493695,"[ 6.19291452e-06 -2.55318505e-07  0.00000000e+00  0.00000000e+00
  0.00000000e+00 -4.51166954e-07 -2.55318505e-07  3.81836524e-06
  0.00000000e+00  0.00000000e+00  0.00000000e+00  6.44594283e-07
  0.00000000e+00  0.00000000e+00  0.00000000e+00  0.00000000e+00
  0.00000000e+00  0.00000000e+00  0.00000000e+00  0.00000000e+00
  0.00000000e+00  0.00000000e+00  0.00000000e+00  0.00000000e+00
  0.00000000e+00  0.00000000e+00  0.00000000e+00  0.00000000e+00
  0.00000000e+00  0.00000000e+00 -4.51166954e-07  6.44594283e-07
  0.00000000e+00  0.00000000e+00  0.00000000e+00  3.07031193e-06]","[[-1.53738829e-04  1.07455770e-03]
 [-1.66153816e-06 -2.68753232e-03]]",[],0.0,0.0
1787212453.2205694,0.3595682557727193,-0.965200429954618,0.10973526127493695,"[ 6.19291452e-06 -2.55318505e-07  0.00000000e+00  0.00000000e+00
  0.00000000e+00 -4.51166954e-07 -2.55318505e-07  3.81836524e-06
  0.00000000e+00  0.00000000e+00  0.00000000e+00  6.44594283e-07
  0.00000000e+00  0.00000000e+00  0.00000000e+00  0.00000000e+00
  0.00000000e+00  0.00000000e+00  0.00000000e+00  0.00000000e+00
  0.00000000e+00  0.00000000e+00  0.00000000e+00  0.00000000e+00
  0.00000000e+00  0.00000000e+00  0.00000000e+00  0.00000000e+00
  0.00000000e+00  0.00000000e+00 -4.51166954e-07  6.44594283e-07
  0.00000000e+00  0.00000000e+00  0.00000000e+00  3.07031193e-06]","[[-1.53738829e-04  1.07455770e-03]
 [-1.66153816e-06 -2.68753232e-03]]",[],0.0,0.0
1787212453.261448,0.3595682557727193,-0.965200429954618,0.10973526127493695,"[ 6.19291452e-06 -2.55318505e-07  0.00000000e+00  0.00000000e+00
  0.00000000e+00 -4.51166954e-07 -2.55318505e-07  3.81836524e-06
  0.00000000e+00  0.00000000e+00  0.00000000e+00  6.44594283e-07
  0.00000000e+00  0.00000000e+00  0.00000000e+00  0.00000000e+00
  0.00000000e+00  0.00000000e+00  0.00000000e+00  0.00000000e+00
  0.00000000e+00  0.00000000e+00  0.00000000e+00  0.00000000e+00
  0.00000000e+00  0.00000000e+00  0.00000000e+00  0.00000000e+00
  0.00000000e+00  0.00000000e+00 -4.51166954e-07  6.44594283e-07
  0.00000000e+00  0.00000000e+00  0.00000000e+00  3.07031193e-06]","[[-1.53738829e-04  1.07455770e-03]
 [-1.66153816e-06 -2.68753232e-03]]",[],0.0,0.0
1787212453.3121393,0.3595682557727193,-0.965200429954618,0.10973526127493695,"[ 6.19291452e-06 -2.55318505e-07  0.00000000e+00  0.00000000e+00
  0.00000000e+00 -4.51166954e-07 -2.55318505e-07  3.81836524e-06
  0.00000000e+00  0.00000000e+00  0.00000000e+00  6.44594283e-07
  0.00000000e+00  0.00000000e+00  0.00000000e+00  0.00000000e+00
  0.00000000e+00  0.00000000e+00  0.00000000e+00  0.00000000e+00
  0.00000000e+00  0.00000000e+00  0.00000000e+00  0.00000000e+00
  0.00000000e+00  0.00000000e+00  0.00000000e+00  0.00000000e+00
  0.00000000e+00  0.00000000e+00 -4.51166954e-07  6.44594283e-07
  0.00000000e+00  0.00000000e+00  0.00000000e+00  3.07031193e-06]","[[-1.53738829e-04  1.07455770e-03]
 [-1.66153816e-06 -2.68753232e-03]]",[],0.0,0.0
1787212453.3584387,0.3595682557727193,-0.965200429954618,0.10973526127493695,"[ 6.19291452e-06 -2.55318505e-07  0.00000000e+00  0.00000000e+00
  0.00000000e+00 -4.51166954e-07 -2.55318505e-07  3.81836524e-06
  0.00000000e+00  0.00000000e+00  0.00000000e+00  6.44594283e-07
  0.00000000e+00  0.00000000e+00  0.00000000e+00  0.00000000e+00
  0.00000000e+00  0.00000000e+00  0.00000000e+00  0.00000000e+00
  0.00000000e+00  0.00000000e+00  0.00000000e+00  0.00000000e+00
  0.00000000e+00  0.00000000e+00  0.00000000e+00  0.00000000e+00
  0.00000000e+00  0.00000000e+00 -4.51166954e-07  6.44594283e-07
  0.00000000e+00  0.00000000e+00  0.00000000e+00  3.07031193e-06]","[[-1.53738829e-04  1.07455770e-03]
 [-1.66153816e-06 -2.68753232e-03]]",[],0.0,0.0
1787212453.4182055,0.3595682557727193,-0.965200429954618,0.10973526127493695,"[ 6.19291452e-06 -2.55318505e-07  0.00000000e+00  0.00000000e+00
  0.00000000e+00 -4.51166954e-07 -2.55318505e-07  3.81836524e-06
  0.00000000e+00  0.00000000e+00  0.00000000e+00  6.44594283e-07
  0.00000000e+00  0.00000000e+00  0.00000000e+00  0.00000000e+00
  0.00000000e+00  0.00000000e+00  0.00000000e+00  0.00000000e+00
  0.00000000e+00  0.00000000e+00  0.00000000e+00  0.00000000e+00
  0.00000000e+00  0.00000000e+00  0.00000000e+00  0.00000000e+00
  0.00000000e+00  0.00000000e+00 -4.51166954e-07  6.44594283e-07
  0.00000000e+00  0.00000000e+00  0.00000000e+00  3.07031193e-06]","[[-1.53738829e-04  1.07455770e-03]
 [-1.66153816e-06 -2.68753232e-03]]",[],0.0,0.0
1787212453.4609392,0.3595682557727193,-0.965200429954618,0.10973526127493695,"[ 6.19291452e-06 -2.55318505e-07  0.00000000e+00  0.00000000e+00
  0.00000000e+00 -4.51166954e-07 -2.55318505e-07  3.81836524e-06
  0.00000000e+00  0.00000000e+00  0.00000000e+00  6.44594283e-07
  0.00000000e+00  0.00000000e+00  0.00000000e+00  0.00000000e+00
  0.00000000e+00  0.00000000e+00  0.00000000e+00  0.00000000e+00
  0.00000000e+00  0.00000000e+00  0.00000000e+00  0.00000000e+00
  0.00000000e+00  0.00000000e+00  0.00000000e+00  0.00000000e+00
  0.00000000e+00  0.00000000e+00 -4.51166954e-07  6.44594283e-07
  0.00000000e+00  0.00000000e+00  0.00000000e+00  3.07031193e-06]","[[-1.53738829e-04  1.07455770e-03]
 [-1.66153816e-06 -2.68753232e-03]]",[],0.0,0.0
1787212453.5186493,0.3595682557727193,-0.965200429954618,0.10973526127493695,"[ 6.19291452e-06 -2.55318505e-07  0.00000000e+00  0.00000000e+00
  0.00000000e+00 -4.51166954e-07 -2.55318505e-07  3.81836524e-06
  0.00000000e+00  0.00000000e+00  0.00000000e+00  6.44594283e-07
  0.00000000e+00  0.00000000e+00  0.00000000e+00  0.00000000e+00
  0.00000000e+00  0.00000000e+00  0.00000000e+00  0.00000000e+00
  0.00000000e+00  0.00000000e+00  0.00000000e+00  0.00000000e+00
  0.00000000e+00  0.00000000e+00  0.00000000e+00  0.00000000e+00
  0.00000000e+00  0.00000000e+00 -4.51166954e-07  6.44594283e-07
  0.00000000e+00  0.00000000e+00  0.00000000e+00  3.07031193e-06]","[[-1.53738829e-04  1.07455770e-03]
 [-1.66153816e-06 -2.68753232e-03]]",[],0.0,0.0
1787212453.5586102,0.3595682557727193,-0.965200429954618,0.10973526127493695,"[ 6.19291452e-06 -2.55318505e-07  0.00000000e+00  0.00000000e+00
  0.00000000e+00 -4.51166954e-07 -2.55318505e-07  3.81836524e-06
  0.00000000e+00  0.00000000e+00  0.00000000e+00  6.44594283e-07
  0.00000000e+00  0.00000000e+00  0.00000000e+00  0.00000000e+00
  0.00000000e+00  0.00000000e+00  0.00000000e+00  0.00000000e+00
  0.00000000e+00  0.00000000e+00  0.00000000e+00  0.00000000e+00
  0.00000000e+00  0.00000000e+00  0.00000000e+00  0.00000000e+00
  0.00000000e+00  0.00000000e+00 -4.51166954e-07  6.44594283e-07
  0.00000000e+00  0.00000000e+00  0.00000000e+00  3.07031193e-06]","[[-1.53738829e-04  1.07455770e-03]
 [-1.66153816e-06 -2.68753232e-03]]",[],0.0,0.0
1787212453.6159317,0.3595682557727193,-0.965200429954618,0.10973526127493695,"[ 6.19291452e-06 -2.55318505e-07  0.00000000e+00  0.00000000e+00
  0.00000000e+00 -4.51166954e-07 -2.55318505e-07  3.81836524e-06
  0.00000000e+00  0.00000000e+00  0.00000000e+00  6.44594283e-07
  0.00000000e+00  0.00000000e+00  0.00000000e+00  0.00000000e+00
  0.00000000e+00  0.00000000e+00  0.00000000e+00  0.00000000e+00
  0.00000000e+00  0.00000000e+00  0.00000000e+00  0.00000000e+00
  0.00000000e+00  0.00000000e+00  0.00000000e+00  0.00000000e+00
  0.00000000e+00  0.00000000e+00 -4.51166954e-07  6.44594283e-07
  0.00000000e+00  0.00000000e+00  0.00000000e+00  3.07031193e-06]","[[-1.53738829e-04  1.07455770e-03]
 [-1.66153816e-06 -2.68753232e-03]]",[],0.0,0.0
1787212453.6589887,0.3595682557727193,-0.965200429954618,0.10973526127493695,"[ 6.19291452e-06 -2.55318505e-07  0.00000000e+00  0.00000000e+00
  0.00000000e+00 -4.51166954e-07 -2.55318505e-07  3.81836524e-06
  0.00000000e+00  0.00000000e+00  0.00000000e+00  6.44594283e-07
  0.00000000e+00  0.00000000e+00  0.00000000e+00  0.00000000e+00
  0.00000000e+00  0.00000000e+00  0.00000000e+00  0.00000000e+00
  0.00000000e+00  0.00000000e+00  0.00000000e+00  0.00000000e+00
  0.00000000e+00  0.00000000e+00  0.00000000e+00  0.00000000e+00
  0.00000000e+00  0.00000000e+00 -4.51166954e-07  6.44594283e-07
  0.00000000e+00  0.00000000e+00  0.00000000e+00  3.07031193e-06]","[[-1.53738829e-04  1.07455770e-03]
 [-1.66153816e-06 -2.68753232e-03]]",[],0.0,0.0
1787212453.7192693,0.3595682557727193,-0.965200429954618,0.10973526127493695,"[ 6.19291452e-06 -2.55318505e-07  0.00000000e+00  0.00000000e+00
  0.00000000e+00 -4.51166954e-07 -2.55318505e-07  3.81836524e-06
  0.00000000e+00  0.00000000e+00  0.00000000e+00  6.44594283e-07
  0.00000000e+00  0.00000000e+00  0.00000000e+00  0.00000000e+00
  0.00000000e+00  0.00000000e+00  0.00000000e+00  0.00000000e+00
  0.00000000e+00  0.00000000e+00  0.00000000e+00  0.00000000e+00
  0.00000000e+00  0.00000000e+00  0.00000000e+00  0.00000000e+00
  0.00000000e+00  0.00000000e+00 -4.51166954e-07  6.44594283e-07
  0.00000000e+00  0.00000000e+00  0.00000000e+00  3.07031193e-06]","[[-1.53738829e-04  1.07455770e-03]
 [-1.66153816e-06 -2.68753232e-03]]",[],0.0,0.0
1787212453.7591848,0.3595682557727193,-0.965200429954618,0.10973526127493695,"[ 6.19291452e-06 -2.55318505e-07  0.00000000e+00  0.00000000e+00
  0.00000000e+00 -4.51166954e-07 -2.55318505e-07  3.81836524e-06
  0.00000000e+00  0.00000000e+00  0.00000000e+00  6.44594283e-07
  0.00000000e+00  0.00000000e+00  0.00000000e+00  0.00000000e+00
  0.00000000e+00  0.00000000e+00  0.00000000e+00  0.00000000e+00
  0.00000000e+00  0.00000000e+00  0.00000000e+00  0.00000000e+00
  0.00000000e+00  0.00000000e+00  0.00000000e+00  0.00000000e+00
  0.00000000e+00  0.00000000e+00 -4.51166954e-07  6.44594283e-07
  0.00000000e+00  0.00000000e+00  0.00000000e+00  3.07031193e-06]","[[-1.53738829e-04  1.07455770e-03]
 [-1.66153816e-06 -2.68753232e-03]]",[],0.0,0.0
1787212453.8086772,0.3595682557727193,-0.965200429954618,0.10973526127493695,"[ 6.19291452e-06 -2.55318505e-07  0.00000000e+00  0.00000000e+00
  0.00000000e+00 -4.51166954e-07 -2.55318505e-07  3.81836524e-06
  0.00000000e+00  0.00000000e+00  0.00000000e+00  6.44594283e-07
  0.00000000e+00  0.00000000e+00  0.00000000e+00  0.00000000e+00
  0.00000000e+00  0.00000000e+00  0.00000000e+00  0.00000000e+00
  0.00000000e+00  0.00000000e+00  0.00000000e+00  0.00000000e+00
  0.00000000e+00  0.00000000e+00  0.00000000e+00  0.00000000e+00
  0.00000000e+00  0.00000000e+00 -4.51166954e-07  6.44594283e-07
  0.00000000e+00  0.00000000e+00  0.00000000e+00  3.07031193e-06]","[[-1.53738829e-04  1.07455770e-03]
 [-1.66153816e-06 -2.68753232e-03]]",[],0.0,0.0
1787212453.8615503,0.35016897945801745,-0.9653867698439987,0.09954036669065047,"[ 5.32079080e-06 -1.97913721e-07  0.00000000e+00  0.00000000e+00
  0.00000000e+00 -3.58547186e-07 -1.97913721e-07  3.19147892e-06
  0.00000000e+00  0.00000000e+00  0.00000000e+00  5.50937109e-07
  0.00000000e+00  0.00000000e+00  0.00000000e+00  0.00000000e+00
  0.00000000e+00  0.00000000e+00  0.00000000e+00  0.00000000e+00
  0.00000000e+00  0.00000000e+00  0.00000000e+00  0.00000000e+00
  0.00000000e+00  0.00000000e+00  0.00000000e+00  0.00000000e+00
  0.00000000e+00  0.00000000e+00 -3.58547186e-07  5.50937109e-07
  0.00000000e+00  0.00000000e+00  0.00000000e+00  3.12832540e-06]","[[-1.32805605e-04  7.35286799e-04]
 [ 2.49988755e-06 -2.17096934e-03]]",[],0.0,0.0
1787212453.9096146,0.35016897945801745,-0.9653867698439987,0.09954036669065047,"[ 5.32079080e-06 -1.97913721e-07  0.00000000e+00  0.00000000e+00
  0.00000000e+00 -3.58547186e-07 -1.97913721e-07  3.19147892e-06
  0.00000000e+00  0.00000000e+00  0.00000000e+00  5.50937109e-07
  0.00000000e+00  0.00000000e+00  0.00000000e+00  0.00000000e+00
  0.00000000e+00  0.00000000e+00  0.00000000e+00  0.00000000e+00
  0.00000000e+00  0.00000000e+00  0.00000000e+00  0.00000000e+00
  0.00000000e+00  0.00000000e+00  0.00000000e+00  0.00000000e+00
  0.00000000e+00  0.00000000e+00 -3.58547186e-07  5.50937109e-07
  0.00000000e+00  0.00000000e+00  0.00000000e+00  3.12832540e-06]","[[-1.32805605e-04  7.35286799e-04]
 [ 2.49988755e-06 -2.17096934e-03]]",[],0.0,0.0
1787212453.9595516,0.35016897945801745,-0.9653867698439987,0.09954036669065047,"[ 5.32079080e-06 -1.97913721e-07  0.00000000e+00  0.00000000e+00
  0.00000000e+00 -3.58547186e-07 -1.97913721e-07  3.19147892e-06
  0.00000000e+00  0.00000000e+00  0.00000000e+00  5.50937109e-07
  0.00000000e+00  0.00000000e+00  0.00000000e+00  0.00000000e+00
  0.00000000e+00  0.00000000e+00  0.00000000e+00  0.00000000e+00
  0.00000000e+00  0.00000000e+00  0.00000000e+00  0.00000000e+00
  0.00000000e+00  0.00000000e+00  0.00000000e+00  0.00000000e+00
  0.00000000e+00  0.00000000e+00 -3.58547186e-07  5.50937109e-07
  0.00000000e+00  0.00000000e+00  0.00000000e+00  3.12832540e-06]","[[-1.32805605e-04  7.35286799e-04]
 [ 2.49988755e-06 -2.17096934e-03]]",[],0.0,0.0
1787212454.008581,0.35016897945801745,-0.9653867698439987,0.09954036669065047,"[ 5.32079080e-06 -1.97913721e-07  0.00000000e+00  0.00000000e+00
  0.00000000e+00 -3.58547186e-07 -1.97913721e-07  3.19147892e-06
  0.00000000e+00  0.00000000e+00  0.00000000e+00  5.50937109e-07
  0.00000000e+00  0.00000000e+00  0.00000000e+00  0.00000000e+00
  0.00000000e+00  0.00000000e+00  0.00000000e+00  0.00000000e+00
  0.00000000e+00  0.00000000e+00  0.00000000e+00  0.00000000e+00
  0.00000000e+00  0.00000000e+00  0.00000000e+00  0.00000000e+00
  0.00000000e+00  0.00000000e+00 -3.58547186e-07  5.50937109e-07
  0.00000000e+00  0.00000000e+00  0.00000000e+00  3.12832540e-06]","[[-1.32805605e-04  7.35286799e-04]
 [ 2.49988755e-06 -2.17096934e-03]]",[],0.0,0.0
1787212454.0598688,0.35016897945801745,-0.9653867698439987,0.09954036669065047,"[ 5.32079080e-06 -1.97913721e-07  0.00000000e+00  0.00000000e+00
  0.00000000e+00 -3.58547186e-07 -1.97913721e-07  3.19147892e-06
  0.00000000e+00  0.00000000e+00  0.00000000e+00  5.50937109e-07
  0.00000000e+00  0.00000000e+00  0.00000000e+00  0.00000000e+00
  0.00000000e+00  0.00000000e+00  0.00000000e+00  0.00000000e+00
  0.00000000e+00  0.00000000e+00  0.00000000e+00  0.00000000e+00
  0.00000000e+00  0.00000000e+00  0.00000000e+00  0.00000000e+00
  0.00000000e+00  0.00000000e+00 -3.58547186e-07  5.50937109e-07
  0.00000000e+00  0.00000000e+00  0.00000000e+00  3.12832540e-06]","[[-1.32805605e-04  7.35286799e-04]
 [ 2.49988755e-06 -2.17096934e-03]]",[],0.0,0.0
1787212454.1335375,0.35016897945801745,-0.9653867698439987,0.09954036669065047,"[ 5.32079080e-06 -1.97913721e-07  0.00000000e+00  0.00000000e+00
  0.00000000e+00 -3.58547186e-07 -1.97913721e-07  3.19147892e-06
  0.00000000e+00  0.00000000e+00  0.00000000e+00  5.50937109e-07
  0.00000000e+00  0.00000000e+00  0.00000000e+00  0.00000000e+00
  0.00000000e+00  0.00000000e+00  0.00000000e+00  0.00000000e+00
  0.00000000e+00  0.00000000e+00  0.00000000e+00  0.00000000e+00
  0.00000000e+00  0.00000000e+00  0.00000000e+00  0.00000000e+00
  0.00000000e+00  0.00000000e+00 -3.58547186e-07  5.50937109e-07
  0.00000000e+00  0.00000000e+00  0.00000000e+00  3.12832540e-06]","[[-1.32805605e-04  7.35286799e-04]
 [ 2.49988755e-06 -2.17096934e-03]]",[],0.0,0.0
1787212454.1592798,0.35016897945801745,-0.9653867698439987,0.09954036669065047,"[ 5.32079080e-06 -1.97913721e-07  0.00000000e+00  0.00000000e+00
  0.00000000e+00 -3.58547186e-07 -1.97913721e-07  3.19147892e-06
  0.00000000e+00  0.00000000e+00  0.00000000e+00  5.50937109e-07
  0.00000000e+00  0.00000000e+00  0.00000000e+00  0.00000000e+00
  0.00000000e+00  0.00000000e+00  0.00000000e+00  0.00000000e+00
  0.00000000e+00  0.00000000e+00  0.00000000e+00  0.00000000e+00
  0.00000000e+00  0.00000000e+00  0.00000000e+00  0.00000000e+00
  0.00000000e+00  0.00000000e+00 -3.58547186e-07  5.50937109e-07
  0.00000000e+00  0.00000000e+00  0.00000000e+00  3.12832540e-06]","[[-1.32805605e-04  7.35286799e-04]
 [ 2.49988755e-06 -2.17096934e-03]]",[],0.0,0.0
1787212454.2113533,0.35016897945801745,-0.9653867698439987,0.09954036669065047,"[ 5.32079080e-06 -1.97913721e-07  0.00000000e+00  0.00000000e+00
  0.00000000e+00 -3.58547186e-07 -1.97913721e-07  3.19147892e-06
  0.00000000e+00  0.00000000e+00  0.00000000e+00  5.50937109e-07
  0.00000000e+00  0.00000000e+00  0.00000000e+00  0.00000000e+00
  0.00000000e+00  0.00000000e+00  0.00000000e+00  0.00000000e+00
  0.00000000e+00  0.00000000e+00  0.00000000e+00  0.00000000e+00
  0.00000000e+00  0.00000000e+00  0.00000000e+00  0.00000000e+00
  0.00000000e+00  0.00000000e+00 -3.58547186e-07  5.50937109e-07
  0.00000000e+00  0.00000000e+00  0.00000000e+00  3.12832540e-06]","[[-1.32805605e-04  7.35286799e-04]
 [ 2.49988755e-06 -2.17096934e-03]]",[],0.0,0.0
1787212454.262475,0.35016897945801745,-0.9653867698439987,0.09954036669065047,"[ 5.32079080e-06 -1.97913721e-07  0.00000000e+00  0.00000000e+00
  0.00000000e+00 -3.58547186e-07 -1.97913721e-07  3.19147892e-06
  0.00000000e+00  0.00000000e+00  0.00000000e+00  5.50937109e-07
  0.00000000e+00  0.00000000e+00  0.00000000e+00  0.00000000e+00
  0.00000000e+00  0.00000000e+00  0.00000000e+00  0.00000000e+00
  0.00000000e+00  0.00000000e+00  0.00000000e+00  0.00000000e+00
  0.00000000e+00  0.00000000e+00  0.00000000e+00  0.00000000e+00
  0.00000000e+00  0.00000000e+00 -3.58547186e-07  5.50937109e-07
  0.00000000e+00  0.00000000e+00  0.00000000e+00  3.12832540e-06]","[[-1.32805605e-04  7.35286799e-04]
 [ 2.49988755e-06 -2.17096934e-03]]",[],0.0,0.0
1787212454.316531,0.35016897945801745,-0.9653867698439987,0.09954036669065047,"[ 5.32079080e-06 -1.97913721e-07  0.00000000e+00  0.00000000e+00
  0.00000000e+00 -3.58547186e-07 -1.97913721e-07  3.19147892e-06
  0.00000000e+00  0.00000000e+00  0.00000000e+00  5.50937109e-07
  0.00000000e+00  0.00000000e+00  0.00000000e+00  0.00000000e+00
  0.00000000e+00  0.00000000e+00  0.00000000e+00  0.00000000e+00
  0.00000000e+00  0.00000000e+00  0.00000000e+00  0.00000000e+00
  0.00000000e+00  0.00000000e+00  0.00000000e+00  0.00000000e+00
  0.00000000e+00  0.00000000e+00 -3.58547186e-07  5.50937109e-07
  0.00000000e+00  0.00000000e+00  0.00000000e+00  3.12832540e-06]","[[-1.32805605e-04  7.35286799e-04]
 [ 2.49988755e-06 -2.17096934e-03]]",[],0.0,0.0
1787212454.3701935,0.35016897945801745,-0.9653867698439987,0.09954036669065047,"[ 5.32079080e-06 -1.97913721e-07  0.00000000e+00  0.00000000e+00
  0.00000000e+00 -3.58547186e-07 -1.97913721e-07  3.19147892e-06
  0.00000000e+00  0.00000000e+00  0.00000000e+00  5.50937109e-07
  0.00000000e+00  0.00000000e+00  0.00000000e+00  0.00000000e+00
  0.00000000e+00  0.00000000e+00  0.00000000e+00  0.00000000e+00
  0.00000000e+00  0.00000000e+00  0.00000000e+00  0.00000000e+00
  0.00000000e+00  0.00000000e+00  0.00000000e+00  0.00000000e+00
  0.00000000e+00  0.00000000e+00 -3.58547186e-07  5.50937109e-07
  0.00000000e+00  0.00000000e+00  0.00000000e+00  3.12832540e-06]","[[-1.32805605e-04  7.35286799e-04]
 [ 2.49988755e-06 -2.17096934e-03]]",[],0.0,0.0
1787212454.452904,0.35016897945801745,-0.9653867698439987,0.09954036669065047,"[ 5.32079080e-06 -1.97913721e-07  0.00000000e+00  0.00000000e+00
  0.00000000e+00 -3.58547186e-07 -1.97913721e-07  3.19147892e-06
  0.00000000e+00  0.00000000e+00  0.00000000e+00  5.50937109e-07
  0.00000000e+00  0.00000000e+00  0.00000000e+00  0.00000000e+00
  0.00000000e+00  0.00000000e+00  0.00000000e+00  0.00000000e+00
  0.00000000e+00  0.00000000e+00  0.00000000e+00  0.00000000e+00
  0.00000000e+00  0.00000000e+00  0.00000000e+00  0.00000000e+00
  0.00000000e+00  0.00000000e+00 -3.58547186e-07  5.50937109e-07
  0.00000000e+00  0.00000000e+00  0.00000000e+00  3.12832540e-06]","[[-1.32805605e-04  7.35286799e-04]
 [ 2.49988755e-06 -2.17096934e-03]]",[],0.0,0.0
1787212454.4626331,0.35016897945801745,-0.9653867698439987,0.09954036669065047,"[ 5.32079080e-06 -1.97913721e-07  0.00000000e+00  0.00000000e+00
  0.00000000e+00 -3.58547186e-07 -1.97913721e-07  3.19147892e-06
  0.00000000e+00  0.00000000e+00  0.00000000e+00  5.50937109e-07
  0.00000000e+00  0.00000000e+00  0.00000000e+00  0.00000000e+00
  0.00000000e+00  0.00000000e+00  0.00000000e+00  0.00000000e+00
  0.00000000e+00  0.00000000e+00  0.00000000e+00  0.00000000e+00
  0.00000000e+00  0.00000000e+00  0.00000000e+00  0.00000000e+00
  0.00000000e+00  0.00000000e+00 -3.58547186e-07  5.50937109e-07
  0.00000000e+00  0.00000000e+00  0.00000000e+00  3.12832540e-06]","[[-1.32805605e-04  7.35286799e-04]
 [ 2.49988755e-06 -2.17096934e-03]]",[],0.0,0.0
1787212454.5151162,0.35016897945801745,-0.9653867698439987,0.09954036669065047,"[ 5.32079080e-06 -1.97913721e-07  0.00000000e+00  0.00000000e+00
  0.00000000e+00 -3.58547186e-07 -1.97913721e-07  3.19147892e-06
  0.00000000e+00  0.00000000e+00  0.00000000e+00  5.50937109e-07
  0.00000000e+00  0.00000000e+00  0.00000000e+00  0.00000000e+00
  0.00000000e+00  0.00000000e+00  0.00000000e+00  0.00000000e+00
  0.00000000e+00  0.00000000e+00  0.00000000e+00  0.00000000e+00
  0.00000000e+00  0.00000000e+00  0.00000000e+00  0.00000000e+00
  0.00000000e+00  0.00000000e+00 -3.58547186e-07  5.50937109e-07
  0.00000000e+00  0.00000000e+00  0.00000000e+00  3.12832540e-06]","[[-1.32805605e-04  7.35286799e-04]
 [ 2.49988755e-06 -2.17096934e-03]]",[],0.0,0.0
1787212454.5604255,0.35016897945801745,-0.9653867698439987,0.09954036669065047,"[ 5.32079080e-06 -1.97913721e-07  0.00000000e+00  0.00000000e+00
  0.00000000e+00 -3.58547186e-07 -1.97913721e-07  3.19147892e-06
  0.00000000e+00  0.00000000e+00  0.00000000e+00  5.50937109e-07
  0.00000000e+00  0.00000000e+00  0.00000000e+00  0.00000000e+00
  0.00000000e+00  0.00000000e+00  0.00000000e+00  0.00000000e+00
  0.00000000e+00  0.00000000e+00  0.00000000e+00  0.00000000e+00
  0.00000000e+00  0.00000000e+00  0.00000000e+00  0.00000000e+00
  0.00000000e+00  0.00000000e+00 -3.58547186e-07  5.50937109e-07
  0.00000000e+00  0.00000000e+00  0.00000000e+00  3.12832540e-06]","[[-1.32805605e-04  7.35286799e-04]
 [ 2.49988755e-06 -2.17096934e-03]]",[],0.0,0.0
1787212454.6145995,0.35016897945801745,-0.9653867698439987,0.09954036669065047,"[ 5.32079080e-06 -1.97913721e-07  0.00000000e+00  0.00000000e+00
  0.00000000e+00 -3.58547186e-07 -1.97913721e-07  3.19147892e-06
  0.00000000e+00  0.00000000e+00  0.00000000e+00  5.50937109e-07
  0.00000000e+00  0.00000000e+00  0.00000000e+00  0.00000000e+00
  0.00000000e+00  0.00000000e+00  0.00000000e+00  0.00000000e+00
  0.00000000e+00  0.00000000e+00  0.00000000e+00  0.00000000e+00
  0.00000000e+00  0.00000000e+00  0.00000000e+00  0.00000000e+00
  0.00000000e+00  0.00000000e+00 -3.58547186e-07  5.50937109e-07
  0.00000000e+00  0.00000000e+00  0.00000000e+00  3.12832540e-06]","[[-1.32805605e-04  7.35286799e-04]
 [ 2.49988755e-06 -2.17096934e-03]]",[],0.0,0.0
1787212454.6631992,0.35016897945801745,-0.9653867698439987,0.09954036669065047,"[ 5.32079080e-06 -1.97913721e-07  0.00000000e+00  0.00000000e+00
  0.00000000e+00 -3.58547186e-07 -1.97913721e-07  3.19147892e-06
  0.00000000e+00  0.00000000e+00  0.00000000e+00  5.50937109e-07
  0.00000000e+00  0.00000000e+00  0.00000000e+00  0.00000000e+00
  0.00000000e+00  0.00000000e+00  0.00000000e+00  0.00000000e+00
  0.00000000e+00  0.00000000e+00  0.00000000e+00  0.00000000e+00
  0.00000000e+00  0.00000000e+00  0.00000000e+00  0.00000000e+00
  0.00000000e+00  0.00000000e+00 -3.58547186e-07  5.50937109e-07
  0.00000000e+00  0.00000000e+00  0.00000000e+00  3.12832540e-06]","[[-1.32805605e-04  7.35286799e-04]
 [ 2.49988755e-06 -2.17096934e-03]]",[],0.0,0.0
1787212454.7153535,0.34116762905775283,-0.9661065533959954,0.08745076946633601,"[ 4.69516695e-06 -1.61263451e-07  0.00000000e+00  0.00000000e+00
  0.00000000e+00 -3.62357449e-07 -1.61263451e-07  2.72964137e-06
  0.00000000e+00  0.00000000e+00  0.00000000e+00  4.43456705e-07
  0.00000000e+00  0.00000000e+00  0.00000000e+00  0.00000000e+00
  0.00000000e+00  0.00000000e+00  0.00000000e+00  0.00000000e+00
  0.00000000e+00  0.00000000e+00  0.00000000e+00  0.00000000e+00
  0.00000000e+00  0.00000000e+00  0.00000000e+00  0.00000000e+00
  0.00000000e+00  0.00000000e+00 -3.62357449e-07  4.43456705e-07
  0.00000000e+00  0.00000000e+00  0.00000000e+00  3.04998666e-06]","[[-1.32805605e-04  7.35286799e-04]
 [ 2.49988755e-06 -2.17096934e-03]]",[],0.0,0.0
1787212454.7585056,0.34116762905775283,-0.9661065533959954,0.08745076946633601,"[ 4.69516695e-06 -1.61263451e-07  0.00000000e+00  0.00000000e+00
  0.00000000e+00 -3.62357449e-07 -1.61263451e-07  2.72964137e-06
  0.00000000e+00  0.00000000e+00  0.00000000e+00  4.43456705e-07
  0.00000000e+00  0.00000000e+00  0.00000000e+00  0.00000000e+00
  0.00000000e+00  0.00000000e+00  0.00000000e+00  0.00000000e+00
  0.00000000e+00  0.00000000e+00  0.00000000e+00  0.00000000e+00
  0.00000000e+00  0.00000000e+00  0.00000000e+00  0.00000000e+00
  0.00000000e+00  0.00000000e+00 -3.62357449e-07  4.43456705e-07
  0.00000000e+00  0.00000000e+00  0.00000000e+00  3.04998666e-06]","[[-1.16818264e-04  8.54788531e-04]
 [-7.03413923e-07 -2.17069354e-03]]",[],0.0,0.0
1787212454.8099635,0.34116762905775283,-0.9661065533959954,0.08745076946633601,"[ 4.69516695e-06 -1.61263451e-07  0.00000000e+00  0.00000000e+00
  0.00000000e+00 -3.62357449e-07 -1.61263451e-07  2.72964137e-06
  0.00000000e+00  0.00000000e+00  0.00000000e+00  4.43456705e-07
  0.00000000e+00  0.00000000e+00  0.00000000e+00  0.00000000e+00
  0.00000000e+00  0.00000000e+00  0.00000000e+00  0.00000000e+00
  0.00000000e+00  0.00000000e+00  0.00000000e+00  0.00000000e+00
  0.00000000e+00  0.00000000e+00  0.00000000e+00  0.00000000e+00
  0.00000000e+00  0.00000000e+00 -3.62357449e-07  4.43456705e-07
  0.00000000e+00  0.00000000e+00  0.00000000e+00  3.04998666e-06]","[[-1.16818264e-04  8.54788531e-04]
 [-7.03413923e-07 -2.17069354e-03]]",[],0.0,0.0
1787212454.8623924,0.34116762905775283,-0.9661065533959954,0.08745076946633601,"[ 4.69516695e-06 -1.61263451e-07  0.00000000e+00  0.00000000e+00
  0.00000000e+00 -3.62357449e-07 -1.61263451e-07  2.72964137e-06
  0.00000000e+00  0.00000000e+00  0.00000000e+00  4.43456705e-07
  0.00000000e+00  0.00000000e+00  0.00000000e+00  0.00000000e+00
  0.00000000e+00  0.00000000e+00  0.00000000e+00  0.00000000e+00
  0.00000000e+00  0.00000000e+00  0.00000000e+00  0.00000000e+00
  0.00000000e+00  0.00000000e+00  0.00000000e+00  0.00000000e+00
  0.00000000e+00  0.00000000e+00 -3.62357449e-07  4.43456705e-07
  0.00000000e+00  0.00000000e+00  0.00000000e+00  3.04998666e-06]","[[-1.16818264e-04  8.54788531e-04]
 [-7.03413923e-07 -2.17069354e-03]]",[],0.0,0.0
1787212454.9219453,0.34116762905775283,-0.9661065533959954,0.08745076946633601,"[ 4.69516695e-06 -1.61263451e-07  0.00000000e+00  0.00000000e+00
  0.00000000e+00 -3.62357449e-07 -1.61263451e-07  2.72964137e-06
  0.00000000e+00  0.00000000e+00  0.00000000e+00  4.43456705e-07
  0.00000000e+00  0.00000000e+00  0.00000000e+00  0.00000000e+00
  0.00000000e+00  0.00000000e+00  0.00000000e+00  0.00000000e+00
  0.00000000e+00  0.00000000e+00  0.00000000e+00  0.00000000e+00
  0.00000000e+00  0.00000000e+00  0.00000000e+00  0.00000000e+00
  0.00000000e+00  0.00000000e+00 -3.62357449e-07  4.43456705e-07
  0.00000000e+00  0.00000000e+00  0.00000000e+00  3.04998666e-06]","[[-1.16818264e-04  8.54788531e-04]
 [-7.03413923e-07 -2.17069354e-03]]",[],0.0,0.0
1787212454.9865477,0.34116762905775283,-0.9661065533959954,0.08745076946633601,"[ 4.69516695e-06 -1.61263451e-07  0.00000000e+00  0.00000000e+00
  0.00000000e+00 -3.62357449e-07 -1.61263451e-07  2.72964137e-06
  0.00000000e+00  0.00000000e+00  0.00000000e+00  4.43456705e-07
  0.00000000e+00  0.00000000e+00  0.00000000e+00  0.00000000e+00
  0.00000000e+00  0.00000000e+00  0.00000000e+00  0.00000000e+00
  0.00000000e+00  0.00000000e+00  0.00000000e+00  0.00000000e+00
  0.00000000e+00  0.00000000e+00  0.00000000e+00  0.00000000e+00
  0.00000000e+00  0.00000000e+00 -3.62357449e-07  4.43456705e-07
  0.00000000e+00  0.00000000e+00  0.00000000e+00  3.04998666e-06]","[[-1.16818264e-04  8.54788531e-04]
 [-7.03413923e-07 -2.17069354e-03]]",[],0.0,0.0
1787212455.0150034,0.34116762905775283,-0.9661065533959954,0.08745076946633601,"[ 4.69516695e-06 -1.61263451e-07  0.00000000e+00  0.00000000e+00
  0.00000000e+00 -3.62357449e-07 -1.61263451e-07  2.72964137e-06
  0.00000000e+00  0.00000000e+00  0.00000000e+00  4.43456705e-07
  0.00000000e+00  0.00000000e+00  0.00000000e+00  0.00000000e+00
  0.00000000e+00  0.00000000e+00  0.00000000e+00  0.00000000e+00
  0.00000000e+00  0.00000000e+00  0.00000000e+00  0.00000000e+00
  0.00000000e+00  0.00000000e+00  0.00000000e+00  0.00000000e+00
  0.00000000e+00  0.00000000e+00 -3.62357449e-07  4.43456705e-07
  0.00000000e+00  0.00000000e+00  0.00000000e+00  3.04998666e-06]","[[-1.16818264e-04  8.54788531e-04]
 [-7.03413923e-07 -2.17069354e-03]]",[],0.0,0.0
1787212455.0629563,0.34116762905775283,-0.9661065533959954,0.08745076946633601,"[ 4.69516695e-06 -1.61263451e-07  0.00000000e+00  0.00000000e+00
  0.00000000e+00 -3.62357449e-07 -1.61263451e-07  2.72964137e-06
  0.00000000e+00  0.00000000e+00  0.00000000e+00  4.43456705e-07
  0.00000000e+00  0.00000000e+00  0.00000000e+00  0.00000000e+00
  0.00000000e+00  0.00000000e+00  0.00000000e+00  0.00000000e+00
  0.00000000e+00  0.00000000e+00  0.00000000e+00  0.00000000e+00
  0.00000000e+00  0.00000000e+00  0.00000000e+00  0.00000000e+00
  0.00000000e+00  0.00000000e+00 -3.62357449e-07  4.43456705e-07
  0.00000000e+00  0.00000000e+00  0.00000000e+00  3.04998666e-06]","[[-1.16818264e-04  8.54788531e-04]
 [-7.03413923e-07 -2.17069354e-03]]",[],0.0,0.0
1787212455.1124647,0.34116762905775283,-0.9661065533959954,0.08745076946633601,"[ 4.69516695e-06 -1.61263451e-07  0.00000000e+00  0.00000000e+00
  0.00000000e+00 -3.62357449e-07 -1.61263451e-07  2.72964137e-06
  0.00000000e+00  0.00000000e+00  0.00000000e+00  4.43456705e-07
  0.00000000e+00  0.00000000e+00  0.00000000e+00  0.00000000e+00
  0.00000000e+00  0.00000000e+00  0.00000000e+00  0.00000000e+00
  0.00000000e+00  0.00000000e+00  0.00000000e+00  0.00000000e+00
  0.00000000e+00  0.00000000e+00  0.00000000e+00  0.00000000e+00
  0.00000000e+00  0.00000000e+00 -3.62357449e-07  4.43456705e-07
  0.00000000e+00  0.00000000e+00  0.00000000e+00  3.04998666e-06]","[[-1.16818264e-04  8.54788531e-04]
 [-7.03413923e-07 -2.17069354e-03]]",[],0.0,0.0
1787212455.1594992,0.34116762905775283,-0.9661065533959954,0.08745076946633601,"[ 4.69516695e-06 -1.61263451e-07  0.00000000e+00  0.00000000e+00
  0.00000000e+00 -3.62357449e-07 -1.61263451e-07  2.72964137e-06
  0.00000000e+00  0.00000000e+00  0.00000000e+00  4.43456705e-07
  0.00000000e+00  0.00000000e+00  0.00000000e+00  0.00000000e+00
  0.00000000e+00  0.00000000e+00  0.00000000e+00  0.00000000e+00
  0.00000000e+00  0.00000000e+00  0.00000000e+00  0.00000000e+00
  0.00000000e+00  0.00000000e+00  0.00000000e+00  0.00000000e+00
  0.00000000e+00  0.00000000e+00 -3.62357449e-07  4.43456705e-07
  0.00000000e+00  0.00000000e+00  0.00000000e+00  3.04998666e-06]","[[-1.16818264e-04  8.54788531e-04]
 [-7.03413923e-07 -2.17069354e-03]]",[],0.0,0.0
1787212455.21603,0.34116762905775283,-0.9661065533959954,0.08745076946633601,"[ 4.69516695e-06 -1.61263451e-07  0.00000000e+00  0.00000000e+00
  0.00000000e+00 -3.62357449e-07 -1.61263451e-07  2.72964137e-06
  0.00000000e+00  0.00000000e+00  0.00000000e+00  4.43456705e-07
  0.00000000e+00  0.00000000e+00  0.00000000e+00  0.00000000e+00
  0.00000000e+00  0.00000000e+00  0.00000000e+00  0.00000000e+00
  0.00000000e+00  0.00000000e+00  0.00000000e+00  0.00000000e+00
  0.00000000e+00  0.00000000e+00  0.00000000e+00  0.00000000e+00
  0.00000000e+00  0.00000000e+00 -3.62357449e-07  4.43456705e-07
  0.00000000e+00  0.00000000e+00  0.00000000e+00  3.04998666e-06]","[[-1.16818264e-04  8.54788531e-04]
 [-7.03413923e-07 -2.17069354e-03]]",[],0.0,0.0
1787212455.2947388,0.34116762905775283,-0.9661065533959954,0.08745076946633601,"[ 4.69516695e-06 -1.61263451e-07  0.00000000e+00  0.00000000e+00
  0.00000000e+00 -3.62357449e-07 -1.61263451e-07  2.72964137e-06
  0.00000000e+00  0.00000000e+00  0.00000000e+00  4.43456705e-07
  0.00000000e+00  0.00000000e+00  0.00000000e+00  0.00000000e+00
  0.00000000e+00  0.00000000e+00  0.00000000e+00  0.00000000e+00
  0.00000000e+00  0.00000000e+00  0.00000000e+00  0.00000000e+00
  0.00000000e+00  0.00000000e+00  0.00000000e+00  0.00000000e+00
  0.00000000e+00  0.00000000e+00 -3.62357449e-07  4.43456705e-07
  0.00000000e+00  0.00000000e+00  0.00000000e+00  3.04998666e-06]","[[-1.16818264e-04  8.54788531e-04]
 [-7.03413923e-07 -2.17069354e-03]]",[],0.0,0.0
1787212455.3118665,0.34116762905775283,-0.9661065533959954,0.08745076946633601,"[ 4.69516695e-06 -1.61263451e-07  0.00000000e+00  0.00000000e+00
  0.00000000e+00 -3.62357449e-07 -1.61263451e-07  2.72964137e-06
  0.00000000e+00  0.00000000e+00  0.00000000e+00  4.43456705e-07
  0.00000000e+00  0.00000000e+00  0.00000000e+00  0.00000000e+00
  0.00000000e+00  0.00000000e+00  0.00000000e+00  0.00000000e+00
  0.00000000e+00  0.00000000e+00  0.00000000e+00  0.00000000e+00
  0.00000000e+00  0.00000000e+00  0.00000000e+00  0.00000000e+00
  0.00000000e+00  0.00000000e+00 -3.62357449e-07  4.43456705e-07
  0.00000000e+00  0.00000000e+00  0.00000000e+00  3.04998666e-06]","[[-1.16818264e-04  8.54788531e-04]
 [-7.03413923e-07 -2.17069354e-03]]",[],0.0,0.0
1787212455.363242,0.34116762905775283,-0.9661065533959954,0.08745076946633601,"[ 4.69516695e-06 -1.61263451e-07  0.00000000e+00  0.00000000e+00
  0.00000000e+00 -3.62357449e-07 -1.61263451e-07  2.72964137e-06
  0.00000000e+00  0.00000000e+00  0.00000000e+00  4.43456705e-07
  0.00000000e+00  0.00000000e+00  0.00000000e+00  0.00000000e+00
  0.00000000e+00  0.00000000e+00  0.00000000e+00  0.00000000e+00
  0.00000000e+00  0.00000000e+00  0.00000000e+00  0.00000000e+00
  0.00000000e+00  0.00000000e+00  0.00000000e+00  0.00000000e+00
  0.00000000e+00  0.00000000e+00 -3.62357449e-07  4.43456705e-07
  0.00000000e+00  0.00000000e+00  0.00000000e+00  3.04998666e-06]","[[-1.16818264e-04  8.54788531e-04]
 [-7.03413923e-07 -2.17069354e-03]]",[],0.0,0.0
1787212455.4120798,0.34116762905775283,-0.9661065533959954,0.08745076946633601,"[ 4.69516695e-06 -1.61263451e-07  0.00000000e+00  0.00000000e+00
  0.00000000e+00 -3.62357449e-07 -1.61263451e-07  2.72964137e-06
  0.00000000e+00  0.00000000e+00  0.00000000e+00  4.43456705e-07
  0.00000000e+00  0.00000000e+00  0.00000000e+00  0.00000000e+00
  0.00000000e+00  0.00000000e+00  0.00000000e+00  0.00000000e+00
  0.00000000e+00  0.00000000e+00  0.00000000e+00  0.00000000e+00
  0.00000000e+00  0.00000000e+00  0.00000000e+00  0.00000000e+00
  0.00000000e+00  0.00000000e+00 -3.62357449e-07  4.43456705e-07
  0.00000000e+00  0.00000000e+00  0.00000000e+00  3.04998666e-06]","[[-1.16818264e-04  8.54788531e-04]
 [-7.03413923e-07 -2.17069354e-03]]",[],0.0,0.0
1787212455.468758,0.34116762905775283,-0.9661065533959954,0.08745076946633601,"[ 4.69516695e-06 -1.61263451e-07  0.00000000e+00  0.00000000e+00
  0.00000000e+00 -3.62357449e-07 -1.61263451e-07  2.72964137e-06
  0.00000000e+00  0.00000000e+00  0.00000000e+00  4.43456705e-07
  0.00000000e+00  0.00000000e+00  0.00000000e+00  0.00000000e+00
  0.00000000e+00  0.00000000e+00  0.00000000e+00  0.00000000e+00
  0.00000000e+00  0.00000000e+00  0.00000000e+00  0.00000000e+00
  0.00000000e+00  0.00000000e+00  0.00000000e+00  0.00000000e+00
  0.00000000e+00  0.00000000e+00 -3.62357449e-07  4.43456705e-07
  0.00000000e+00  0.00000000e+00  0.00000000e+00  3.04998666e-06]","[[-1.16818264e-04  8.54788531e-04]
 [-7.03413923e-07 -2.17069354e-03]]",[],0.0,0.0
1787212455.5091586,0.34116762905775283,-0.9661065533959954,0.08745076946633601,"[ 4.69516695e-06 -1.61263451e-07  0.00000000e+00  0.00000000e+00
  0.00000000e+00 -3.62357449e-07 -1.61263451e-07  2.72964137e-06
  0.00000000e+00  0.00000000e+00  0.00000000e+00  4.43456705e-07
  0.00000000e+00  0.00000000e+00  0.00000000e+00  0.00000000e+00
  0.00000000e+00  0.00000000e+00  0.00000000e+00  0.00000000e+00
  0.00000000e+00  0.00000000e+00  0.00000000e+00  0.00000000e+00
  0.00000000e+00  0.00000000e+00  0.00000000e+00  0.00000000e+00
  0.00000000e+00  0.00000000e+00 -3.62357449e-07  4.43456705e-07
  0.00000000e+00  0.00000000e+00  0.00000000e+00  3.04998666e-06]","[[-1.16818264e-04  8.54788531e-04]
 [-7.03413923e-07 -2.17069354e-03]]",[],0.0,0.0
1787212455.558492,0.34116762905775283,-0.9661065533959954,0.08745076946633601,"[ 4.69516695e-06 -1.61263451e-07  0.00000000e+00  0.00000000e+00
  0.00000000e+00 -3.62357449e-07 -1.61263451e-07  2.72964137e-06
  0.00000000e+00  0.00000000e+00  0.00000000e+00  4.43456705e-07
  0.00000000e+00  0.00000000e+00  0.00000000e+00  0.00000000e+00
  0.00000000e+00  0.00000000e+00  0.00000000e+00  0.00000000e+00
  0.00000000e+00  0.00000000e+00  0.00000000e+00  0.00000000e+00
  0.00000000e+00  0.00000000e+00  0.00000000e+00  0.00000000e+00
  0.00000000e+00  0.00000000e+00 -3.62357449e-07  4.43456705e-07
  0.00000000e+00  0.00000000e+00  0.00000000e+00  3.04998666e-06]","[[-1.16818264e-04  8.54788531e-04]
 [-7.03413923e-07 -2.17069354e-03]]",[],0.0,0.0
1787212455.6106052,0.33227556112027656,-0.9677379442805025,0.07304797680339849,"[ 4.24752607e-06 -1.43693029e-07  0.00000000e+00  0.00000000e+00
  0.00000000e+00 -3.11929689e-07 -1.43693029e-07  2.38816948e-06
  0.00000000e+00  0.00000000e+00  0.00000000e+00  4.23451055e-07
  0.00000000e+00  0.00000000e+00  0.00000000e+00  0.00000000e+00
  0.00000000e+00  0.00000000e+00  0.00000000e+00  0.00000000e+00
  0.00000000e+00  0.00000000e+00  0.00000000e+00  0.00000000e+00
  0.00000000e+00  0.00000000e+00  0.00000000e+00  0.00000000e+00
  0.00000000e+00  0.00000000e+00 -3.11929689e-07  4.23451055e-07
  0.00000000e+00  0.00000000e+00  0.00000000e+00  3.07272108e-06]","[[-1.05963134e-04  6.38018273e-04]
 [ 1.22929385e-06 -1.63792748e-03]]",[],0.0,0.0
1787212455.6667843,0.33227556112027656,-0.9677379442805025,0.07304797680339849,"[ 4.24752607e-06 -1.43693029e-07  0.00000000e+00  0.00000000e+00
  0.00000000e+00 -3.11929689e-07 -1.43693029e-07  2.38816948e-06
  0.00000000e+00  0.00000000e+00  0.00000000e+00  4.23451055e-07
  0.00000000e+00  0.00000000e+00  0.00000000e+00  0.00000000e+00
  0.00000000e+00  0.00000000e+00  0.00000000e+00  0.00000000e+00
  0.00000000e+00  0.00000000e+00  0.00000000e+00  0.00000000e+00
  0.00000000e+00  0.00000000e+00  0.00000000e+00  0.00000000e+00
  0.00000000e+00  0.00000000e+00 -3.11929689e-07  4.23451055e-07
  0.00000000e+00  0.00000000e+00  0.00000000e+00  3.07272108e-06]","[[-1.05963134e-04  6.38018273e-04]
 [ 1.22929385e-06 -1.63792748e-03]]",[],0.0,0.0
1787212455.708818,0.33227556112027656,-0.9677379442805025,0.07304797680339849,"[ 4.24752607e-06 -1.43693029e-07  0.00000000e+00  0.00000000e+00
  0.00000000e+00 -3.11929689e-07 -1.43693029e-07  2.38816948e-06
  0.00000000e+00  0.00000000e+00  0.00000000e+00  4.23451055e-07
  0.00000000e+00  0.00000000e+00  0.00000000e+00  0.00000000e+00
  0.00000000e+00  0.00000000e+00  0.00000000e+00  0.00000000e+00
  0.00000000e+00  0.00000000e+00  0.00000000e+00  0.00000000e+00
  0.00000000e+00  0.00000000e+00  0.00000000e+00  0.00000000e+00
  0.00000000e+00  0.00000000e+00 -3.11929689e-07  4.23451055e-07
  0.00000000e+00  0.00000000e+00  0.00000000e+00  3.07272108e-06]","[[-1.05963134e-04  6.38018273e-04]
 [ 1.22929385e-06 -1.63792748e-03]]",[],0.0,0.0
1787212455.7627223,0.33227556112027656,-0.9677379442805025,0.07304797680339849,"[ 4.24752607e-06 -1.43693029e-07  0.00000000e+00  0.00000000e+00
  0.00000000e+00 -3.11929689e-07 -1.43693029e-07  2.38816948e-06
  0.00000000e+00  0.00000000e+00  0.00000000e+00  4.23451055e-07
  0.00000000e+00  0.00000000e+00  0.00000000e+00  0.00000000e+00
  0.00000000e+00  0.00000000e+00  0.00000000e+00  0.00000000e+00
  0.00000000e+00  0.00000000e+00  0.00000000e+00  0.00000000e+00
  0.00000000e+00  0.00000000e+00  0.00000000e+00  0.00000000e+00
  0.00000000e+00  0.00000000e+00 -3.11929689e-07  4.23451055e-07
  0.00000000e+00  0.00000000e+00  0.00000000e+00  3.07272108e-06]","[[-1.05963134e-04  6.38018273e-04]
 [ 1.22929385e-06 -1.63792748e-03]]",[],0.0,0.0
1787212455.810644,0.33227556112027656,-0.9677379442805025,0.07304797680339849,"[ 4.24752607e-06 -1.43693029e-07  0.00000000e+00  0.00000000e+00
  0.00000000e+00 -3.11929689e-07 -1.43693029e-07  2.38816948e-06
  0.00000000e+00  0.00000000e+00  0.00000000e+00  4.23451055e-07
  0.00000000e+00  0.00000000e+00  0.00000000e+00  0.00000000e+00
  0.00000000e+00  0.00000000e+00  0.00000000e+00  0.00000000e+00
  0.00000000e+00  0.00000000e+00  0.00000000e+00  0.00000000e+00
  0.00000000e+00  0.00000000e+00  0.00000000e+00  0.00000000e+00
  0.00000000e+00  0.00000000e+00 -3.11929689e-07  4.23451055e-07
  0.00000000e+00  0.00000000e+00  0.00000000e+00  3.07272108e-06]","[[-1.05963134e-04  6.38018273e-04]
 [ 1.22929385e-06 -1.63792748e-03]]",[],0.0,0.0
1787212455.859746,0.33227556112027656,-0.9677379442805025,0.07304797680339849,"[ 4.24752607e-06 -1.43693029e-07  0.00000000e+00  0.00000000e+00
  0.00000000e+00 -3.11929689e-07 -1.43693029e-07  2.38816948e-06
  0.00000000e+00  0.00000000e+00  0.00000000e+00  4.23451055e-07
  0.00000000e+00  0.00000000e+00  0.00000000e+00  0.00000000e+00
  0.00000000e+00  0.00000000e+00  0.00000000e+00  0.00000000e+00
  0.00000000e+00  0.00000000e+00  0.00000000e+00  0.00000000e+00
  0.00000000e+00  0.00000000e+00  0.00000000e+00  0.00000000e+00
  0.00000000e+00  0.00000000e+00 -3.11929689e-07  4.23451055e-07
  0.00000000e+00  0.00000000e+00  0.00000000e+00  3.07272108e-06]","[[-1.05963134e-04  6.38018273e-04]
 [ 1.22929385e-06 -1.63792748e-03]]",[],0.0,0.0
1787212455.9088178,0.33227556112027656,-0.9677379442805025,0.07304797680339849,"[ 4.24752607e-06 -1.43693029e-07  0.00000000e+00  0.00000000e+00
  0.00000000e+00 -3.11929689e-07 -1.43693029e-07  2.38816948e-06
  0.00000000e+00  0.00000000e+00  0.00000000e+00  4.23451055e-07
  0.00000000e+00  0.00000000e+00  0.00000000e+00  0.00000000e+00
  0.00000000e+00  0.00000000e+00  0.00000000e+00  0.00000000e+00
  0.00000000e+00  0.00000000e+00  0.00000000e+00  0.00000000e+00
  0.00000000e+00  0.00000000e+00  0.00000000e+00  0.00000000e+00
  0.00000000e+00  0.00000000e+00 -3.11929689e-07  4.23451055e-07
  0.00000000e+00  0.00000000e+00  0.00000000e+00  3.07272108e-06]","[[-1.05963134e-04  6.38018273e-04]
 [ 1.22929385e-06 -1.63792748e-03]]",[],0.0,0.0
1787212455.9586875,0.33227556112027656,-0.9677379442805025,0.07304797680339849,"[ 4.24752607e-06 -1.43693029e-07  0.00000000e+00  0.00000000e+00
  0.00000000e+00 -3.11929689e-07 -1.43693029e-07  2.38816948e-06
  0.00000000e+00  0.00000000e+00  0.00000000e+00  4.23451055e-07
  0.00000000e+00  0.00000000e+00  0.00000000e+00  0.00000000e+00
  0.00000000e+00  0.00000000e+00  0.00000000e+00  0.00000000e+00
  0.00000000e+00  0.00000000e+00  0.00000000e+00  0.00000000e+00
  0.00000000e+00  0.00000000e+00  0.00000000e+00  0.00000000e+00
  0.00000000e+00  0.00000000e+00 -3.11929689e-07  4.23451055e-07
  0.00000000e+00  0.00000000e+00  0.00000000e+00  3.07272108e-06]","[[-1.05963134e-04  6.38018273e-04]
 [ 1.22929385e-06 -1.63792748e-03]]",[],0.0,0.0
1787212456.0167997,0.33227556112027656,-0.9677379442805025,0.07304797680339849,"[ 4.24752607e-06 -1.43693029e-07  0.00000000e+00  0.00000000e+00
  0.00000000e+00 -3.11929689e-07 -1.43693029e-07  2.38816948e-06
  0.00000000e+00  0.00000000e+00  0.00000000e+00  4.23451055e-07
  0.00000000e+00  0.00000000e+00  0.00000000e+00  0.00000000e+00
  0.00000000e+00  0.00000000e+00  0.00000000e+00  0.00000000e+00
  0.00000000e+00  0.00000000e+00  0.00000000e+00  0.00000000e+00
  0.00000000e+00  0.00000000e+00  0.00000000e+00  0.00000000e+00
  0.00000000e+00  0.00000000e+00 -3.11929689e-07  4.23451055e-07
  0.00000000e+00  0.00000000e+00  0.00000000e+00  3.07272108e-06]","[[-1.05963134e-04  6.38018273e-04]
 [ 1.22929385e-06 -1.63792748e-03]]",[],0.0,0.0
1787212456.0601661,0.33227556112027656,-0.9677379442805025,0.07304797680339849,"[ 4.24752607e-06 -1.43693029e-07  0.00000000e+00  0.00000000e+00
  0.00000000e+00 -3.11929689e-07 -1.43693029e-07  2.38816948e-06
  0.00000000e+00  0.00000000e+00  0.00000000e+00  4.23451055e-07
  0.00000000e+00  0.00000000e+00  0.00000000e+00  0.00000000e+00
  0.00000000e+00  0.00000000e+00  0.00000000e+00  0.00000000e+00
  0.00000000e+00  0.00000000e+00  0.00000000e+00  0.00000000e+00
  0.00000000e+00  0.00000000e+00  0.00000000e+00  0.00000000e+00
  0.00000000e+00  0.00000000e+00 -3.11929689e-07  4.23451055e-07
  0.00000000e+00  0.00000000e+00  0.00000000e+00  3.07272108e-06]","[[-1.05963134e-04  6.38018273e-04]
 [ 1.22929385e-06 -1.63792748e-03]]",[],0.0,0.0
1787212456.1290288,0.33227556112027656,-0.9677379442805025,0.07304797680339849,"[ 4.24752607e-06 -1.43693029e-07  0.00000000e+00  0.00000000e+00
  0.00000000e+00 -3.11929689e-07 -1.43693029e-07  2.38816948e-06
  0.00000000e+00  0.00000000e+00  0.00000000e+00  4.23451055e-07
  0.00000000e+00  0.00000000e+00  0.00000000e+00  0.00000000e+00
  0.00000000e+00  0.00000000e+00  0.00000000e+00  0.00000000e+00
  0.00000000e+00  0.00000000e+00  0.00000000e+00  0.00000000e+00
  0.00000000e+00  0.00000000e+00  0.00000000e+00  0.00000000e+00
  0.00000000e+00  0.00000000e+00 -3.11929689e-07  4.23451055e-07
  0.00000000e+00  0.00000000e+00  0.00000000e+00  3.07272108e-06]","[[-1.05963134e-04  6.38018273e-04]
 [ 1.22929385e-06 -1.63792748e-03]]",[],0.0,0.0
1787212456.1586783,0.33227556112027656,-0.9677379442805025,0.07304797680339849,"[ 4.24752607e-06 -1.43693029e-07  0.00000000e+00  0.00000000e+00
  0.00000000e+00 -3.11929689e-07 -1.43693029e-07  2.38816948e-06
  0.00000000e+00  0.00000000e+00  0.00000000e+00  4.23451055e-07
  0.00000000e+00  0.00000000e+00  0.00000000e+00  0.00000000e+00
  0.00000000e+00  0.00000000e+00  0.00000000e+00  0.00000000e+00
  0.00000000e+00  0.00000000e+00  0.00000000e+00  0.00000000e+00
  0.00000000e+00  0.00000000e+00  0.00000000e+00  0.00000000e+00
  0.00000000e+00  0.00000000e+00 -3.11929689e-07  4.23451055e-07
  0.00000000e+00  0.00000000e+00  0.00000000e+00  3.07272108e-06]","[[-1.05963134e-04  6.38018273e-04]
 [ 1.22929385e-06 -1.63792748e-03]]",[],0.0,0.0
1787212456.230994,0.33227556112027656,-0.9677379442805025,0.07304797680339849,"[ 4.24752607e-06 -1.43693029e-07  0.00000000e+00  0.00000000e+00
  0.00000000e+00 -3.11929689e-07 -1.43693029e-07  2.38816948e-06
  0.00000000e+00  0.00000000e+00  0.00000000e+00  4.23451055e-07
  0.00000000e+00  0.00000000e+00  0.00000000e+00  0.00000000e+00
  0.00000000e+00  0.00000000e+00  0.00000000e+00  0.00000000e+00
  0.00000000e+00  0.00000000e+00  0.00000000e+00  0.00000000e+00
  0.00000000e+00  0.00000000e+00  0.00000000e+00  0.00000000e+00
  0.00000000e+00  0.00000000e+00 -3.11929689e-07  4.23451055e-07
  0.00000000e+00  0.00000000e+00  0.00000000e+00  3.07272108e-06]","[[-1.05963134e-04  6.38018273e-04]
 [ 1.22929385e-06 -1.63792748e-03]]",[],0.0,0.0
1787212456.2753093,0.33227556112027656,-0.9677379442805025,0.07304797680339849,"[ 4.24752607e-06 -1.43693029e-07  0.00000000e+00  0.00000000e+00
  0.00000000e+00 -3.11929689e-07 -1.43693029e-07  2.38816948e-06
  0.00000000e+00  0.00000000e+00  0.00000000e+00  4.23451055e-07
  0.00000000e+00  0.00000000e+00  0.00000000e+00  0.00000000e+00
  0.00000000e+00  0.00000000e+00  0.00000000e+00  0.00000000e+00
  0.00000000e+00  0.00000000e+00  0.00000000e+00  0.00000000e+00
  0.00000000e+00  0.00000000e+00  0.00000000e+00  0.00000000e+00
  0.00000000e+00  0.00000000e+00 -3.11929689e-07  4.23451055e-07
  0.00000000e+00  0.00000000e+00  0.00000000e+00  3.07272108e-06]","[[-1.05963134e-04  6.38018273e-04]
 [ 1.22929385e-06 -1.63792748e-03]]",[],0.0,0.0
1787212456.3122787,0.33227556112027656,-0.9677379442805025,0.07304797680339849,"[ 4.24752607e-06 -1.43693029e-07  0.00000000e+00  0.00000000e+00
  0.00000000e+00 -3.11929689e-07 -1.43693029e-07  2.38816948e-06
  0.00000000e+00  0.00000000e+00  0.00000000e+00  4.23451055e-07
  0.00000000e+00  0.00000000e+00  0.00000000e+00  0.00000000e+00
  0.00000000e+00  0.00000000e+00  0.00000000e+00  0.00000000e+00
  0.00000000e+00  0.00000000e+00  0.00000000e+00  0.00000000e+00
  0.00000000e+00  0.00000000e+00  0.00000000e+00  0.00000000e+00
  0.00000000e+00  0.00000000e+00 -3.11929689e-07  4.23451055e-07
  0.00000000e+00  0.00000000e+00  0.00000000e+00  3.07272108e-06]","[[-1.05963134e-04  6.38018273e-04]
 [ 1.22929385e-06 -1.63792748e-03]]",[],0.0,0.0
1787212456.361725,0.33227556112027656,-0.9677379442805025,0.07304797680339849,"[ 4.24752607e-06 -1.43693029e-07  0.00000000e+00  0.00000000e+00
  0.00000000e+00 -3.11929689e-07 -1.43693029e-07  2.38816948e-06
  0.00000000e+00  0.00000000e+00  0.00000000e+00  4.23451055e-07
  0.00000000e+00  0.00000000e+00  0.00000000e+00  0.00000000e+00
  0.00000000e+00  0.00000000e+00  0.00000000e+00  0.00000000e+00
  0.00000000e+00  0.00000000e+00  0.00000000e+00  0.00000000e+00
  0.00000000e+00  0.00000000e+00  0.00000000e+00  0.00000000e+00
  0.00000000e+00  0.00000000e+00 -3.11929689e-07  4.23451055e-07
  0.00000000e+00  0.00000000e+00  0.00000000e+00  3.07272108e-06]","[[-1.05963134e-04  6.38018273e-04]
 [ 1.22929385e-06 -1.63792748e-03]]",[],0.0,0.0
1787212456.409676,0.32369888180199635,-0.9681109080336154,0.06450394791078741,"[ 3.91128723e-06 -1.34000582e-07  0.00000000e+00  0.00000000e+00
  0.00000000e+00 -1.76604638e-07 -1.34000582e-07  2.13010880e-06
  0.00000000e+00  0.00000000e+00  0.00000000e+00  3.42870205e-07
  0.00000000e+00  0.00000000e+00  0.00000000e+00  0.00000000e+00
  0.00000000e+00  0.00000000e+00  0.00000000e+00  0.00000000e+00
  0.00000000e+00  0.00000000e+00  0.00000000e+00  0.00000000e+00
  0.00000000e+00  0.00000000e+00  0.00000000e+00  0.00000000e+00
  0.00000000e+00  0.00000000e+00 -1.76604638e-07  3.42870205e-07
  0.00000000e+00  0.00000000e+00  0.00000000e+00  3.09048259e-06]","[[-9.76691798e-05  3.83993803e-04]
 [ 2.02973856e-06 -1.41605636e-03]]",[],0.0,0.0
1787212456.4765186,0.32369888180199635,-0.9681109080336154,0.06450394791078741,"[ 3.91128723e-06 -1.34000582e-07  0.00000000e+00  0.00000000e+00
  0.00000000e+00 -1.76604638e-07 -1.34000582e-07  2.13010880e-06
  0.00000000e+00  0.00000000e+00  0.00000000e+00  3.42870205e-07
  0.00000000e+00  0.00000000e+00  0.00000000e+00  0.00000000e+00
  0.00000000e+00  0.00000000e+00  0.00000000e+00  0.00000000e+00
  0.00000000e+00  0.00000000e+00  0.00000000e+00  0.00000000e+00
  0.00000000e+00  0.00000000e+00  0.00000000e+00  0.00000000e+00
  0.00000000e+00  0.00000000e+00 -1.76604638e-07  3.42870205e-07
  0.00000000e+00  0.00000000e+00  0.00000000e+00  3.09048259e-06]","[[-9.76691798e-05  3.83993803e-04]
 [ 2.02973856e-06 -1.41605636e-03]]",[],0.0,0.0
1787212456.508571,0.32369888180199635,-0.9681109080336154,0.06450394791078741,"[ 3.91128723e-06 -1.34000582e-07  0.00000000e+00  0.00000000e+00
  0.00000000e+00 -1.76604638e-07 -1.34000582e-07  2.13010880e-06
  0.00000000e+00  0.00000000e+00  0.00000000e+00  3.42870205e-07
  0.00000000e+00  0.00000000e+00  0.00000000e+00  0.00000000e+00
  0.00000000e+00  0.00000000e+00  0.00000000e+00  0.00000000e+00
  0.00000000e+00  0.00000000e+00  0.00000000e+00  0.00000000e+00
  0.00000000e+00  0.00000000e+00  0.00000000e+00  0.00000000e+00
  0.00000000e+00  0.00000000e+00 -1.76604638e-07  3.42870205e-07
  0.00000000e+00  0.00000000e+00  0.00000000e+00  3.09048259e-06]","[[-9.76691798e-05  3.83993803e-04]
 [ 2.02973856e-06 -1.41605636e-03]]",[],0.0,0.0
1787212456.5586038,0.32369888180199635,-0.9681109080336154,0.06450394791078741,"[ 3.91128723e-06 -1.34000582e-07  0.00000000e+00  0.00000000e+00
  0.00000000e+00 -1.76604638e-07 -1.34000582e-07  2.13010880e-06
  0.00000000e+00  0.00000000e+00  0.00000000e+00  3.42870205e-07
  0.00000000e+00  0.00000000e+00  0.00000000e+00  0.00000000e+00
  0.00000000e+00  0.00000000e+00  0.00000000e+00  0.00000000e+00
  0.00000000e+00  0.00000000e+00  0.00000000e+00  0.00000000e+00
  0.00000000e+00  0.00000000e+00  0.00000000e+00  0.00000000e+00
  0.00000000e+00  0.00000000e+00 -1.76604638e-07  3.42870205e-07
  0.00000000e+00  0.00000000e+00  0.00000000e+00  3.09048259e-06]","[[-9.76691798e-05  3.83993803e-04]
 [ 2.02973856e-06 -1.41605636e-03]]",[],0.0,0.0
1787212456.61323,0.32369888180199635,-0.9681109080336154,0.06450394791078741,"[ 3.91128723e-06 -1.34000582e-07  0.00000000e+00  0.00000000e+00
  0.00000000e+00 -1.76604638e-07 -1.34000582e-07  2.13010880e-06
  0.00000000e+00  0.00000000e+00  0.00000000e+00  3.42870205e-07
  0.00000000e+00  0.00000000e+00  0.00000000e+00  0.00000000e+00
  0.00000000e+00  0.00000000e+00  0.00000000e+00  0.00000000e+00
  0.00000000e+00  0.00000000e+00  0.00000000e+00  0.00000000e+00
  0.00000000e+00  0.00000000e+00  0.00000000e+00  0.00000000e+00
  0.00000000e+00  0.00000000e+00 -1.76604638e-07  3.42870205e-07
  0.00000000e+00  0.00000000e+00  0.00000000e+00  3.09048259e-06]","[[-9.76691798e-05  3.83993803e-04]
 [ 2.02973856e-06 -1.41605636e-03]]",[],0.0,0.0
1787212456.6609766,0.32369888180199635,-0.9681109080336154,0.06450394791078741,"[ 3.91128723e-06 -1.34000582e-07  0.00000000e+00  0.00000000e+00
  0.00000000e+00 -1.76604638e-07 -1.34000582e-07  2.13010880e-06
  0.00000000e+00  0.00000000e+00  0.00000000e+00  3.42870205e-07
  0.00000000e+00  0.00000000e+00  0.00000000e+00  0.00000000e+00
  0.00000000e+00  0.00000000e+00  0.00000000e+00  0.00000000e+00
  0.00000000e+00  0.00000000e+00  0.00000000e+00  0.00000000e+00
  0.00000000e+00  0.00000000e+00  0.00000000e+00  0.00000000e+00
  0.00000000e+00  0.00000000e+00 -1.76604638e-07  3.42870205e-07
  0.00000000e+00  0.00000000e+00  0.00000000e+00  3.09048259e-06]","[[-9.76691798e-05  3.83993803e-04]
 [ 2.02973856e-06 -1.41605636e-03]]",[],0.0,0.0
1787212456.710124,0.32369888180199635,-0.9681109080336154,0.06450394791078741,"[ 3.91128723e-06 -1.34000582e-07  0.00000000e+00  0.00000000e+00
  0.00000000e+00 -1.76604638e-07 -1.34000582e-07  2.13010880e-06
  0.00000000e+00  0.00000000e+00  0.00000000e+00  3.42870205e-07
  0.00000000e+00  0.00000000e+00  0.00000000e+00  0.00000000e+00
  0.00000000e+00  0.00000000e+00  0.00000000e+00  0.00000000e+00
  0.00000000e+00  0.00000000e+00  0.00000000e+00  0.00000000e+00
  0.00000000e+00  0.00000000e+00  0.00000000e+00  0.00000000e+00
  0.00000000e+00  0.00000000e+00 -1.76604638e-07  3.42870205e-07
  0.00000000e+00  0.00000000e+00  0.00000000e+00  3.09048259e-06]","[[-9.76691798e-05  3.83993803e-04]
 [ 2.02973856e-06 -1.41605636e-03]]",[],0.0,0.0
1787212456.7592063,0.32369888180199635,-0.9681109080336154,0.06450394791078741,"[ 3.91128723e-06 -1.34000582e-07  0.00000000e+00  0.00000000e+00
  0.00000000e+00 -1.76604638e-07 -1.34000582e-07  2.13010880e-06
  0.00000000e+00  0.00000000e+00  0.00000000e+00  3.42870205e-07
  0.00000000e+00  0.00000000e+00  0.00000000e+00  0.00000000e+00
  0.00000000e+00  0.00000000e+00  0.00000000e+00  0.00000000e+00
  0.00000000e+00  0.00000000e+00  0.00000000e+00  0.00000000e+00
  0.00000000e+00  0.00000000e+00  0.00000000e+00  0.00000000e+00
  0.00000000e+00  0.00000000e+00 -1.76604638e-07  3.42870205e-07
  0.00000000e+00  0.00000000e+00  0.00000000e+00  3.09048259e-06]","[[-9.76691798e-05  3.83993803e-04]
 [ 2.02973856e-06 -1.41605636e-03]]",[],0.0,0.0
1787212456.815001,0.32369888180199635,-0.9681109080336154,0.06450394791078741,"[ 3.91128723e-06 -1.34000582e-07  0.00000000e+00  0.00000000e+00
  0.00000000e+00 -1.76604638e-07 -1.34000582e-07  2.13010880e-06
  0.00000000e+00  0.00000000e+00  0.00000000e+00  3.42870205e-07
  0.00000000e+00  0.00000000e+00  0.00000000e+00  0.00000000e+00
  0.00000000e+00  0.00000000e+00  0.00000000e+00  0.00000000e+00
  0.00000000e+00  0.00000000e+00  0.00000000e+00  0.00000000e+00
  0.00000000e+00  0.00000000e+00  0.00000000e+00  0.00000000e+00
  0.00000000e+00  0.00000000e+00 -1.76604638e-07  3.42870205e-07
  0.00000000e+00  0.00000000e+00  0.00000000e+00  3.09048259e-06]","[[-9.76691798e-05  3.83993803e-04]
 [ 2.02973856e-06 -1.41605636e-03]]",[],0.0,0.0
1787212456.8604074,0.32369888180199635,-0.9681109080336154,0.06450394791078741,"[ 3.91128723e-06 -1.34000582e-07  0.00000000e+00  0.00000000e+00
  0.00000000e+00 -1.76604638e-07 -1.34000582e-07  2.13010880e-06
  0.00000000e+00  0.00000000e+00  0.00000000e+00  3.42870205e-07
  0.00000000e+00  0.00000000e+00  0.00000000e+00  0.00000000e+00
  0.00000000e+00  0.00000000e+00  0.00000000e+00  0.00000000e+00
  0.00000000e+00  0.00000000e+00  0.00000000e+00  0.00000000e+00
  0.00000000e+00  0.00000000e+00  0.00000000e+00  0.00000000e+00
  0.00000000e+00  0.00000000e+00 -1.76604638e-07  3.42870205e-07
  0.00000000e+00  0.00000000e+00  0.00000000e+00  3.09048259e-06]","[[-9.76691798e-05  3.83993803e-04]
 [ 2.02973856e-06 -1.41605636e-03]]",[],0.0,0.0
1787212456.9089506,0.32369888180199635,-0.9681109080336154,0.06450394791078741,"[ 3.91128723e-06 -1.34000582e-07  0.00000000e+00  0.00000000e+00
  0.00000000e+00 -1.76604638e-07 -1.34000582e-07  2.13010880e-06
  0.00000000e+00  0.00000000e+00  0.00000000e+00  3.42870205e-07
  0.00000000e+00  0.00000000e+00  0.00000000e+00  0.00000000e+00
  0.00000000e+00  0.00000000e+00  0.00000000e+00  0.00000000e+00
  0.00000000e+00  0.00000000e+00  0.00000000e+00  0.00000000e+00
  0.00000000e+00  0.00000000e+00  0.00000000e+00  0.00000000e+00
  0.00000000e+00  0.00000000e+00 -1.76604638e-07  3.42870205e-07
  0.00000000e+00  0.00000000e+00  0.00000000e+00  3.09048259e-06]","[[-9.76691798e-05  3.83993803e-04]
 [ 2.02973856e-06 -1.41605636e-03]]",[],0.0,0.0
1787212456.9586565,0.32369888180199635,-0.9681109080336154,0.06450394791078741,"[ 3.91128723e-06 -1.34000582e-07  0.00000000e+00  0.00000000e+00
  0.00000000e+00 -1.76604638e-07 -1.34000582e-07  2.13010880e-06
  0.00000000e+00  0.00000000e+00  0.00000000e+00  3.42870205e-07
  0.00000000e+00  0.00000000e+00  0.00000000e+00  0.00000000e+00
  0.00000000e+00  0.00000000e+00  0.00000000e+00  0.00000000e+00
  0.00000000e+00  0.00000000e+00  0.00000000e+00  0.00000000e+00
  0.00000000e+00  0.00000000e+00  0.00000000e+00  0.00000000e+00
  0.00000000e+00  0.00000000e+00 -1.76604638e-07  3.42870205e-07
  0.00000000e+00  0.00000000e+00  0.00000000e+00  3.09048259e-06]","[[-9.76691798e-05  3.83993803e-04]
 [ 2.02973856e-06 -1.41605636e-03]]",[],0.0,0.0
1787212457.0090191,0.32369888180199635,-0.9681109080336154,0.06450394791078741,"[ 3.91128723e-06 -1.34000582e-07  0.00000000e+00  0.00000000e+00
  0.00000000e+00 -1.76604638e-07 -1.34000582e-07  2.13010880e-06
  0.00000000e+00  0.00000000e+00  0.00000000e+00  3.42870205e-07
  0.00000000e+00  0.00000000e+00  0.00000000e+00  0.00000000e+00
  0.00000000e+00  0.00000000e+00  0.00000000e+00  0.00000000e+00
  0.00000000e+00  0.00000000e+00  0.00000000e+00  0.00000000e+00
  0.00000000e+00  0.00000000e+00  0.00000000e+00  0.00000000e+00
  0.00000000e+00  0.00000000e+00 -1.76604638e-07  3.42870205e-07
  0.00000000e+00  0.00000000e+00  0.00000000e+00  3.09048259e-06]","[[-9.76691798e-05  3.83993803e-04]
 [ 2.02973856e-06 -1.41605636e-03]]",[],0.0,0.0
1787212457.0597177,0.32369888180199635,-0.9681109080336154,0.06450394791078741,"[ 3.91128723e-06 -1.34000582e-07  0.00000000e+00  0.00000000e+00
  0.00000000e+00 -1.76604638e-07 -1.34000582e-07  2.13010880e-06
  0.00000000e+00  0.00000000e+00  0.00000000e+00  3.42870205e-07
  0.00000000e+00  0.00000000e+00  0.00000000e+00  0.00000000e+00
  0.00000000e+00  0.00000000e+00  0.00000000e+00  0.00000000e+00
  0.00000000e+00  0.00000000e+00  0.00000000e+00  0.00000000e+00
  0.00000000e+00  0.00000000e+00  0.00000000e+00  0.00000000e+00
  0.00000000e+00  0.00000000e+00 -1.76604638e-07  3.42870205e-07
  0.00000000e+00  0.00000000e+00  0.00000000e+00  3.09048259e-06]","[[-9.76691798e-05  3.83993803e-04]
 [ 2.02973856e-06 -1.41605636e-03]]",[],0.0,0.0
1787212457.116342,0.32369888180199635,-0.9681109080336154,0.06450394791078741,"[ 3.91128723e-06 -1.34000582e-07  0.00000000e+00  0.00000000e+00
  0.00000000e+00 -1.76604638e-07 -1.34000582e-07  2.13010880e-06
  0.00000000e+00  0.00000000e+00  0.00000000e+00  3.42870205e-07
  0.00000000e+00  0.00000000e+00  0.00000000e+00  0.00000000e+00
  0.00000000e+00  0.00000000e+00  0.00000000e+00  0.00000000e+00
  0.00000000e+00  0.00000000e+00  0.00000000e+00  0.00000000e+00
  0.00000000e+00  0.00000000e+00  0.00000000e+00  0.00000000e+00
  0.00000000e+00  0.00000000e+00 -1.76604638e-07  3.42870205e-07
  0.00000000e+00  0.00000000e+00  0.00000000e+00  3.09048259e-06]","[[-9.76691798e-05  3.83993803e-04]
 [ 2.02973856e-06 -1.41605636e-03]]",[],0.0,0.0
1787212457.1664467,0.32369888180199635,-0.9681109080336154,0.06450394791078741,"[ 3.91128723e-06 -1.34000582e-07  0.00000000e+00  0.00000000e+00
  0.00000000e+00 -1.76604638e-07 -1.34000582e-07  2.13010880e-06
  0.00000000e+00  0.00000000e+00  0.00000000e+00  3.42870205e-07
  0.00000000e+00  0.00000000e+00  0.00000000e+00  0.00000000e+00
  0.00000000e+00  0.00000000e+00  0.00000000e+00  0.00000000e+00
  0.00000000e+00  0.00000000e+00  0.00000000e+00  0.00000000e+00
  0.00000000e+00  0.00000000e+00  0.00000000e+00  0.00000000e+00
  0.00000000e+00  0.00000000e+00 -1.76604638e-07  3.42870205e-07
  0.00000000e+00  0.00000000e+00  0.00000000e+00  3.09048259e-06]","[[-9.76691798e-05  3.83993803e-04]
 [ 2.02973856e-06 -1.41605636e-03]]",[],0.0,0.0
1787212457.2093194,0.32369888180199635,-0.9681109080336154,0.06450394791078741,"[ 3.91128723e-06 -1.34000582e-07  0.00000000e+00  0.00000000e+00
  0.00000000e+00 -1.76604638e-07 -1.34000582e-07  2.13010880e-06
  0.00000000e+00  0.00000000e+00  0.00000000e+00  3.42870205e-07
  0.00000000e+00  0.00000000e+00  0.00000000e+00  0.00000000e+00
  0.00000000e+00  0.00000000e+00  0.00000000e+00  0.00000000e+00
  0.00000000e+00  0.00000000e+00  0.00000000e+00  0.00000000e+00
  0.00000000e+00  0.00000000e+00  0.00000000e+00  0.00000000e+00
  0.00000000e+00  0.00000000e+00 -1.76604638e-07  3.42870205e-07
  0.00000000e+00  0.00000000e+00  0.00000000e+00  3.09048259e-06]","[[-9.76691798e-05  3.83993803e-04]
 [ 2.02973856e-06 -1.41605636e-03]]",[],0.0,0.0
1787212457.2639716,0.32369888180199635,-0.9681109080336154,0.06450394791078741,"[ 3.91128723e-06 -1.34000582e-07  0.00000000e+00  0.00000000e+00
  0.00000000e+00 -1.76604638e-07 -1.34000582e-07  2.13010880e-06
  0.00000000e+00  0.00000000e+00  0.00000000e+00  3.42870205e-07
  0.00000000e+00  0.00000000e+00  0.00000000e+00  0.00000000e+00
  0.00000000e+00  0.00000000e+00  0.00000000e+00  0.00000000e+00
  0.00000000e+00  0.00000000e+00  0.00000000e+00  0.00000000e+00
  0.00000000e+00  0.00000000e+00  0.00000000e+00  0.00000000e+00
  0.00000000e+00  0.00000000e+00 -1.76604638e-07  3.42870205e-07
  0.00000000e+00  0.00000000e+00  0.00000000e+00  3.09048259e-06]","[[-9.76691798e-05  3.83993803e-04]
 [ 2.02973856e-06 -1.41605636e-03]]",[],0.0,0.0
1787212457.3123324,0.31532145908400677,-0.969190391289383,0.058691781821011084,"[ 3.66266921e-06 -1.12985180e-07  0.00000000e+00  0.00000000e+00
  0.00000000e+00 -1.80387632e-07 -1.12985180e-07  1.91980886e-06
  0.00000000e+00  0.00000000e+00  0.00000000e+00  3.24564265e-07
  0.00000000e+00  0.00000000e+00  0.00000000e+00  0.00000000e+00
  0.00000000e+00  0.00000000e+00  0.00000000e+00  0.00000000e+00
  0.00000000e+00  0.00000000e+00  0.00000000e+00  0.00000000e+00
  0.00000000e+00  0.00000000e+00  0.00000000e+00  0.00000000e+00
  0.00000000e+00  0.00000000e+00 -1.80387632e-07  3.24564265e-07
  0.00000000e+00  0.00000000e+00  0.00000000e+00  2.98382210e-06]","[[-9.15165889e-05  3.76532212e-04]
 [ 2.13352251e-06 -1.44326652e-03]]",[],0.0,0.0
1787212457.361199,0.31532145908400677,-0.969190391289383,0.058691781821011084,"[ 3.66266921e-06 -1.12985180e-07  0.00000000e+00  0.00000000e+00
  0.00000000e+00 -1.80387632e-07 -1.12985180e-07  1.91980886e-06
  0.00000000e+00  0.00000000e+00  0.00000000e+00  3.24564265e-07
  0.00000000e+00  0.00000000e+00  0.00000000e+00  0.00000000e+00
  0.00000000e+00  0.00000000e+00  0.00000000e+00  0.00000000e+00
  0.00000000e+00  0.00000000e+00  0.00000000e+00  0.00000000e+00
  0.00000000e+00  0.00000000e+00  0.00000000e+00  0.00000000e+00
  0.00000000e+00  0.00000000e+00 -1.80387632e-07  3.24564265e-07
  0.00000000e+00  0.00000000e+00  0.00000000e+00  2.98382210e-06]","[[-9.15165889e-05  3.76532212e-04]
 [ 2.13352251e-06 -1.44326652e-03]]",[],0.0,0.0
1787212457.4189265,0.31532145908400677,-0.969190391289383,0.058691781821011084,"[ 3.66266921e-06 -1.12985180e-07  0.00000000e+00  0.00000000e+00
  0.00000000e+00 -1.80387632e-07 -1.12985180e-07  1.91980886e-06
  0.00000000e+00  0.00000000e+00  0.00000000e+00  3.24564265e-07
  0.00000000e+00  0.00000000e+00  0.00000000e+00  0.00000000e+00
  0.00000000e+00  0.00000000e+00  0.00000000e+00  0.00000000e+00
  0.00000000e+00  0.00000000e+00  0.00000000e+00  0.00000000e+00
  0.00000000e+00  0.00000000e+00  0.00000000e+00  0.00000000e+00
  0.00000000e+00  0.00000000e+00 -1.80387632e-07  3.24564265e-07
  0.00000000e+00  0.00000000e+00  0.00000000e+00  2.98382210e-06]","[[-9.15165889e-05  3.76532212e-04]
 [ 2.13352251e-06 -1.44326652e-03]]",[],0.0,0.0
1787212457.469972,0.31532145908400677,-0.969190391289383,0.058691781821011084,"[ 3.66266921e-06 -1.12985180e-07  0.00000000e+00  0.00000000e+00
  0.00000000e+00 -1.80387632e-07 -1.12985180e-07  1.91980886e-06
  0.00000000e+00  0.00000000e+00  0.00000000e+00  3.24564265e-07
  0.00000000e+00  0.00000000e+00  0.00000000e+00  0.00000000e+00
  0.00000000e+00  0.00000000e+00  0.00000000e+00  0.00000000e+00
  0.00000000e+00  0.00000000e+00  0.00000000e+00  0.00000000e+00
  0.00000000e+00  0.00000000e+00  0.00000000e+00  0.00000000e+00
  0.00000000e+00  0.00000000e+00 -1.80387632e-07  3.24564265e-07
  0.00000000e+00  0.00000000e+00  0.00000000e+00  2.98382210e-06]","[[-9.15165889e-05  3.76532212e-04]
 [ 2.13352251e-06 -1.44326652e-03]]",[],0.0,0.0
1787212457.51869,0.31532145908400677,-0.969190391289383,0.058691781821011084,"[ 3.66266921e-06 -1.12985180e-07  0.00000000e+00  0.00000000e+00
  0.00000000e+00 -1.80387632e-07 -1.12985180e-07  1.91980886e-06
  0.00000000e+00  0.00000000e+00  0.00000000e+00  3.24564265e-07
  0.00000000e+00  0.00000000e+00  0.00000000e+00  0.00000000e+00
  0.00000000e+00  0.00000000e+00  0.00000000e+00  0.00000000e+00
  0.00000000e+00  0.00000000e+00  0.00000000e+00  0.00000000e+00
  0.00000000e+00  0.00000000e+00  0.00000000e+00  0.00000000e+00
  0.00000000e+00  0.00000000e+00 -1.80387632e-07  3.24564265e-07
  0.00000000e+00  0.00000000e+00  0.00000000e+00  2.98382210e-06]","[[-9.15165889e-05  3.76532212e-04]
 [ 2.13352251e-06 -1.44326652e-03]]",[],0.0,0.0
1787212457.5600567,0.31532145908400677,-0.969190391289383,0.058691781821011084,"[ 3.66266921e-06 -1.12985180e-07  0.00000000e+00  0.00000000e+00
  0.00000000e+00 -1.80387632e-07 -1.12985180e-07  1.91980886e-06
  0.00000000e+00  0.00000000e+00  0.00000000e+00  3.24564265e-07
  0.00000000e+00  0.00000000e+00  0.00000000e+00  0.00000000e+00
  0.00000000e+00  0.00000000e+00  0.00000000e+00  0.00000000e+00
  0.00000000e+00  0.00000000e+00  0.00000000e+00  0.00000000e+00
  0.00000000e+00  0.00000000e+00  0.00000000e+00  0.00000000e+00
  0.00000000e+00  0.00000000e+00 -1.80387632e-07  3.24564265e-07
  0.00000000e+00  0.00000000e+00  0.00000000e+00  2.98382210e-06]","[[-9.15165889e-05  3.76532212e-04]
 [ 2.13352251e-06 -1.44326652e-03]]",[],0.0,0.0
