time,x,y,yaw,cov_prop,K_gain,innovation,v_ekf,omega_ekf
1787584075.739489,0.49251854838741044,-0.5869622358943859,0.16754204895711977,"[ 4.64322038e-05 -8.88133012e-08  0.00000000e+00  0.00000000e+00
  0.00000000e+00 -9.86944960e-07 -8.88133012e-08  4.97935972e-05
  0.00000000e+00  0.00000000e+00  0.00000000e+00  1.79613786e-06
  0.00000000e+00  0.00000000e+00  0.00000000e+00  0.00000000e+00
  0.00000000e+00  0.00000000e+00  0.00000000e+00  0.00000000e+00
  0.00000000e+00  0.00000000e+00  0.00000000e+00  0.00000000e+00
  0.00000000e+00  0.00000000e+00  0.00000000e+00  0.00000000e+00
  0.00000000e+00  0.00000000e+00 -9.86944960e-07  1.79613786e-06
  0.00000000e+00  0.00000000e+00  0.00000000e+00  3.28355229e-06]","[[-1.16079863e-03  1.53845243e-03]
 [ 9.39135037e-06 -2.91509743e-02]]",[],0.0,0.0
1787584076.3680432,0.49251854838741044,-0.5869622358943859,0.16754204895711977,"[ 4.64322038e-05 -8.88133012e-08  0.00000000e+00  0.00000000e+00
  0.00000000e+00 -9.86944960e-07 -8.88133012e-08  4.97935972e-05
  0.00000000e+00  0.00000000e+00  0.00000000e+00  1.79613786e-06
  0.00000000e+00  0.00000000e+00  0.00000000e+00  0.00000000e+00
  0.00000000e+00  0.00000000e+00  0.00000000e+00  0.00000000e+00
  0.00000000e+00  0.00000000e+00  0.00000000e+00  0.00000000e+00
  0.00000000e+00  0.00000000e+00  0.00000000e+00  0.00000000e+00
  0.00000000e+00  0.00000000e+00 -9.86944960e-07  1.79613786e-06
  0.00000000e+00  0.00000000e+00  0.00000000e+00  3.28355229e-06]","[[-1.16079863e-03  1.53845243e-03]
 [ 9.39135037e-06 -2.91509743e-02]]",[],0.0,0.0
1787584076.4036455,0.49251854838741044,-0.5869622358943859,0.16754204895711977,"[ 4.64322038e-05 -8.88133012e-08  0.00000000e+00  0.00000000e+00
  0.00000000e+00 -9.86944960e-07 -8.88133012e-08  4.97935972e-05
  0.00000000e+00  0.00000000e+00  0.00000000e+00  1.79613786e-06
  0.00000000e+00  0.00000000e+00  0.00000000e+00  0.00000000e+00
  0.00000000e+00  0.00000000e+00  0.00000000e+00  0.00000000e+00
  0.00000000e+00  0.00000000e+00  0.00000000e+00  0.00000000e+00
  0.00000000e+00  0.00000000e+00  0.00000000e+00  0.00000000e+00
  0.00000000e+00  0.00000000e+00 -9.86944960e-07  1.79613786e-06
  0.00000000e+00  0.00000000e+00  0.00000000e+00  3.28355229e-06]","[[-1.16079863e-03  1.53845243e-03]
 [ 9.39135037e-06 -2.91509743e-02]]",[],0.0,0.0
1787584076.42698,0.49251854838741044,-0.5869622358943859,0.16754204895711977,"[ 4.64322038e-05 -8.88133012e-08  0.00000000e+00  0.00000000e+00
  0.00000000e+00 -9.86944960e-07 -8.88133012e-08  4.97935972e-05
  0.00000000e+00  0.00000000e+00  0.00000000e+00  1.79613786e-06
  0.00000000e+00  0.00000000e+00  0.00000000e+00  0.00000000e+00
  0.00000000e+00  0.00000000e+00  0.00000000e+00  0.00000000e+00
  0.00000000e+00  0.00000000e+00  0.00000000e+00  0.00000000e+00
  0.00000000e+00  0.00000000e+00  0.00000000e+00  0.00000000e+00
  0.00000000e+00  0.00000000e+00 -9.86944960e-07  1.79613786e-06
  0.00000000e+00  0.00000000e+00  0.00000000e+00  3.28355229e-06]","[[-1.16079863e-03  1.53845243e-03]
 [ 9.39135037e-06 -2.91509743e-02]]",[],0.0,0.0
1787584077.2176445,0.49364359677344,-0.5954859623491608,0.16383956623099835,"[ 2.35844930e-05 -3.36867158e-07  0.00000000e+00  0.00000000e+00
  0.00000000e+00 -3.77950085e-07 -3.36867158e-07  2.42797879e-05
  0.00000000e+00  0.00000000e+00  0.00000000e+00  8.61433926e-07
  0.00000000e+00  0.00000000e+00  0.00000000e+00  0.00000000e+00
  0.00000000e+00  0.00000000e+00  0.00000000e+00  0.00000000e+00
  0.00000000e+00  0.00000000e+00  0.00000000e+00  0.00000000e+00
  0.00000000e+00  0.00000000e+00  0.00000000e+00  0.00000000e+00
  0.00000000e+00  0.00000000e+00 -3.77950085e-07  8.61433926e-07
  0.00000000e+00  0.00000000e+00  0.00000000e+00  2.66500440e-06]","[[-5.82571210e-04  2.55048655e-03]
 [-7.70061099e-05 -1.41317098e-02]]",[],0.0,0.0
1787584077.2266195,0.49364359677344,-0.5954859623491608,0.16383956623099835,"[ 2.35844930e-05 -3.36867158e-07  0.00000000e+00  0.00000000e+00
  0.00000000e+00 -3.77950085e-07 -3.36867158e-07  2.42797879e-05
  0.00000000e+00  0.00000000e+00  0.00000000e+00  8.61433926e-07
  0.00000000e+00  0.00000000e+00  0.00000000e+00  0.00000000e+00
  0.00000000e+00  0.00000000e+00  0.00000000e+00  0.00000000e+00
  0.00000000e+00  0.00000000e+00  0.00000000e+00  0.00000000e+00
  0.00000000e+00  0.00000000e+00  0.00000000e+00  0.00000000e+00
  0.00000000e+00  0.00000000e+00 -3.77950085e-07  8.61433926e-07
  0.00000000e+00  0.00000000e+00  0.00000000e+00  2.66500440e-06]","[[-5.82571210e-04  2.55048655e-03]
 [-7.70061099e-05 -1.41317098e-02]]",[],0.0,0.0
1787584077.9880695,0.49536106160763815,-0.596677294480119,0.16587196855282604,"[ 1.60123440e-05 -2.45903694e-07  0.00000000e+00  0.00000000e+00
  0.00000000e+00 -3.00782055e-07 -2.45903694e-07  1.61681889e-05
  0.00000000e+00  0.00000000e+00  0.00000000e+00  3.75157569e-07
  0.00000000e+00  0.00000000e+00  0.00000000e+00  0.00000000e+00
  0.00000000e+00  0.00000000e+00  0.00000000e+00  0.00000000e+00
  0.00000000e+00  0.00000000e+00  0.00000000e+00  0.00000000e+00
  0.00000000e+00  0.00000000e+00  0.00000000e+00  0.00000000e+00
  0.00000000e+00  0.00000000e+00 -3.00782055e-07  3.75157569e-07
  0.00000000e+00  0.00000000e+00  0.00000000e+00  2.71439936e-06]","[[-3.96438781e-04  1.66537497e-03]
 [-4.41510262e-05 -9.02080956e-03]]",[],0.0,0.0
1787584078.0307672,0.49536106160763815,-0.596677294480119,0.16587196855282604,"[ 1.60123440e-05 -2.45903694e-07  0.00000000e+00  0.00000000e+00
  0.00000000e+00 -3.00782055e-07 -2.45903694e-07  1.61681889e-05
  0.00000000e+00  0.00000000e+00  0.00000000e+00  3.75157569e-07
  0.00000000e+00  0.00000000e+00  0.00000000e+00  0.00000000e+00
  0.00000000e+00  0.00000000e+00  0.00000000e+00  0.00000000e+00
  0.00000000e+00  0.00000000e+00  0.00000000e+00  0.00000000e+00
  0.00000000e+00  0.00000000e+00  0.00000000e+00  0.00000000e+00
  0.00000000e+00  0.00000000e+00 -3.00782055e-07  3.75157569e-07
  0.00000000e+00  0.00000000e+00  0.00000000e+00  2.71439936e-06]","[[-3.96438781e-04  1.66537497e-03]
 [-4.41510262e-05 -9.02080956e-03]]",[],0.0,0.0
1787584078.7455525,0.49389391022968676,-0.6002775216597488,0.16603472146655918,"[ 1.21388218e-05 -2.79325908e-07  0.00000000e+00  0.00000000e+00
  0.00000000e+00 -1.34593733e-07 -2.79325908e-07  1.19993886e-05
  0.00000000e+00  0.00000000e+00  0.00000000e+00  3.74155058e-07
  0.00000000e+00  0.00000000e+00  0.00000000e+00  0.00000000e+00
  0.00000000e+00  0.00000000e+00  0.00000000e+00  0.00000000e+00
  0.00000000e+00  0.00000000e+00  0.00000000e+00  0.00000000e+00
  0.00000000e+00  0.00000000e+00  0.00000000e+00  0.00000000e+00
  0.00000000e+00  0.00000000e+00 -1.34593733e-07  3.74155058e-07
  0.00000000e+00  0.00000000e+00  0.00000000e+00  2.64089100e-06]","[[-2.99144466e-04  1.30182107e-03]
 [-3.72066612e-05 -6.85425150e-03]]",[],0.0,0.0
1787584078.7778053,0.4922242340845217,-0.6030333293291759,0.1647851815583965,"[ 9.76062385e-06 -2.27858842e-07  0.00000000e+00  0.00000000e+00
  0.00000000e+00 -9.13453484e-08 -2.27858842e-07  9.61664590e-06
  0.00000000e+00  0.00000000e+00  0.00000000e+00  2.56055991e-07
  0.00000000e+00  0.00000000e+00  0.00000000e+00  0.00000000e+00
  0.00000000e+00  0.00000000e+00  0.00000000e+00  0.00000000e+00
  0.00000000e+00  0.00000000e+00  0.00000000e+00  0.00000000e+00
  0.00000000e+00  0.00000000e+00  0.00000000e+00  0.00000000e+00
  0.00000000e+00  0.00000000e+00 -9.13453484e-08  2.56055991e-07
  0.00000000e+00  0.00000000e+00  0.00000000e+00  2.64218617e-06]","[[-2.40534821e-04  1.02026260e-03]
 [-2.96636038e-05 -5.42638775e-03]]",[],0.0,0.0
1787584078.8314054,0.4922242340845217,-0.6030333293291759,0.1647851815583965,"[ 9.76062385e-06 -2.27858842e-07  0.00000000e+00  0.00000000e+00
  0.00000000e+00 -9.13453484e-08 -2.27858842e-07  9.61664590e-06
  0.00000000e+00  0.00000000e+00  0.00000000e+00  2.56055991e-07
  0.00000000e+00  0.00000000e+00  0.00000000e+00  0.00000000e+00
  0.00000000e+00  0.00000000e+00  0.00000000e+00  0.00000000e+00
  0.00000000e+00  0.00000000e+00  0.00000000e+00  0.00000000e+00
  0.00000000e+00  0.00000000e+00  0.00000000e+00  0.00000000e+00
  0.00000000e+00  0.00000000e+00 -9.13453484e-08  2.56055991e-07
  0.00000000e+00  0.00000000e+00  0.00000000e+00  2.64218617e-06]","[[-2.40534821e-04  1.02026260e-03]
 [-2.96636038e-05 -5.42638775e-03]]",[],0.0,0.0
1787584078.8783934,0.4922242340845217,-0.6030333293291759,0.1647851815583965,"[ 9.76062385e-06 -2.27858842e-07  0.00000000e+00  0.00000000e+00
  0.00000000e+00 -9.13453484e-08 -2.27858842e-07  9.61664590e-06
  0.00000000e+00  0.00000000e+00  0.00000000e+00  2.56055991e-07
  0.00000000e+00  0.00000000e+00  0.00000000e+00  0.00000000e+00
  0.00000000e+00  0.00000000e+00  0.00000000e+00  0.00000000e+00
  0.00000000e+00  0.00000000e+00  0.00000000e+00  0.00000000e+00
  0.00000000e+00  0.00000000e+00  0.00000000e+00  0.00000000e+00
  0.00000000e+00  0.00000000e+00 -9.13453484e-08  2.56055991e-07
  0.00000000e+00  0.00000000e+00  0.00000000e+00  2.64218617e-06]","[[-2.40534821e-04  1.02026260e-03]
 [-2.96636038e-05 -5.42638775e-03]]",[],0.0,0.0
1787584079.4837542,0.4922242340845217,-0.6030333293291759,0.1647851815583965,"[ 9.76062385e-06 -2.27858842e-07  0.00000000e+00  0.00000000e+00
  0.00000000e+00 -9.13453484e-08 -2.27858842e-07  9.61664590e-06
  0.00000000e+00  0.00000000e+00  0.00000000e+00  2.56055991e-07
  0.00000000e+00  0.00000000e+00  0.00000000e+00  0.00000000e+00
  0.00000000e+00  0.00000000e+00  0.00000000e+00  0.00000000e+00
  0.00000000e+00  0.00000000e+00  0.00000000e+00  0.00000000e+00
  0.00000000e+00  0.00000000e+00  0.00000000e+00  0.00000000e+00
  0.00000000e+00  0.00000000e+00 -9.13453484e-08  2.56055991e-07
  0.00000000e+00  0.00000000e+00  0.00000000e+00  2.64218617e-06]","[[-2.40534821e-04  1.02026260e-03]
 [-2.96636038e-05 -5.42638775e-03]]",[],0.0,0.0
1787584079.527808,0.4922242340845217,-0.6030333293291759,0.1647851815583965,"[ 9.76062385e-06 -2.27858842e-07  0.00000000e+00  0.00000000e+00
  0.00000000e+00 -9.13453484e-08 -2.27858842e-07  9.61664590e-06
  0.00000000e+00  0.00000000e+00  0.00000000e+00  2.56055991e-07
  0.00000000e+00  0.00000000e+00  0.00000000e+00  0.00000000e+00
  0.00000000e+00  0.00000000e+00  0.00000000e+00  0.00000000e+00
  0.00000000e+00  0.00000000e+00  0.00000000e+00  0.00000000e+00
  0.00000000e+00  0.00000000e+00  0.00000000e+00  0.00000000e+00
  0.00000000e+00  0.00000000e+00 -9.13453484e-08  2.56055991e-07
  0.00000000e+00  0.00000000e+00  0.00000000e+00  2.64218617e-06]","[[-2.40534821e-04  1.02026260e-03]
 [-2.96636038e-05 -5.42638775e-03]]",[],0.0,0.0
1787584080.3089707,0.4930009972011033,-0.6038705100480468,0.15952809868034065,"[ 8.29516871e-06 -1.82232753e-07  0.00000000e+00  0.00000000e+00
  0.00000000e+00 -9.85307082e-08 -1.82232753e-07  8.06262218e-06
  0.00000000e+00  0.00000000e+00  0.00000000e+00  2.31016822e-07
  0.00000000e+00  0.00000000e+00  0.00000000e+00  0.00000000e+00
  0.00000000e+00  0.00000000e+00  0.00000000e+00  0.00000000e+00
  0.00000000e+00  0.00000000e+00  0.00000000e+00  0.00000000e+00
  0.00000000e+00  0.00000000e+00  0.00000000e+00  0.00000000e+00
  0.00000000e+00  0.00000000e+00 -9.85307082e-08  2.31016822e-07
  0.00000000e+00  0.00000000e+00  0.00000000e+00  2.69031083e-06]","[[-2.04688253e-04  8.69240728e-04]
 [-2.37724874e-05 -4.58930838e-03]]",[],0.0,0.0
1787584080.327282,0.4930009972011033,-0.6038705100480468,0.15952809868034065,"[ 8.29516871e-06 -1.82232753e-07  0.00000000e+00  0.00000000e+00
  0.00000000e+00 -9.85307082e-08 -1.82232753e-07  8.06262218e-06
  0.00000000e+00  0.00000000e+00  0.00000000e+00  2.31016822e-07
  0.00000000e+00  0.00000000e+00  0.00000000e+00  0.00000000e+00
  0.00000000e+00  0.00000000e+00  0.00000000e+00  0.00000000e+00
  0.00000000e+00  0.00000000e+00  0.00000000e+00  0.00000000e+00
  0.00000000e+00  0.00000000e+00  0.00000000e+00  0.00000000e+00
  0.00000000e+00  0.00000000e+00 -9.85307082e-08  2.31016822e-07
  0.00000000e+00  0.00000000e+00  0.00000000e+00  2.69031083e-06]","[[-2.04688253e-04  8.69240728e-04]
 [-2.37724874e-05 -4.58930838e-03]]",[],0.0,0.0
1787584080.3837867,0.4930009972011033,-0.6038705100480468,0.15952809868034065,"[ 8.29516871e-06 -1.82232753e-07  0.00000000e+00  0.00000000e+00
  0.00000000e+00 -9.85307082e-08 -1.82232753e-07  8.06262218e-06
  0.00000000e+00  0.00000000e+00  0.00000000e+00  2.31016822e-07
  0.00000000e+00  0.00000000e+00  0.00000000e+00  0.00000000e+00
  0.00000000e+00  0.00000000e+00  0.00000000e+00  0.00000000e+00
  0.00000000e+00  0.00000000e+00  0.00000000e+00  0.00000000e+00
  0.00000000e+00  0.00000000e+00  0.00000000e+00  0.00000000e+00
  0.00000000e+00  0.00000000e+00 -9.85307082e-08  2.31016822e-07
  0.00000000e+00  0.00000000e+00  0.00000000e+00  2.69031083e-06]","[[-2.04688253e-04  8.69240728e-04]
 [-2.37724874e-05 -4.58930838e-03]]",[],0.0,0.0
1787584080.4308915,0.4930009972011033,-0.6038705100480468,0.15952809868034065,"[ 8.29516871e-06 -1.82232753e-07  0.00000000e+00  0.00000000e+00
  0.00000000e+00 -9.85307082e-08 -1.82232753e-07  8.06262218e-06
  0.00000000e+00  0.00000000e+00  0.00000000e+00  2.31016822e-07
  0.00000000e+00  0.00000000e+00  0.00000000e+00  0.00000000e+00
  0.00000000e+00  0.00000000e+00  0.00000000e+00  0.00000000e+00
  0.00000000e+00  0.00000000e+00  0.00000000e+00  0.00000000e+00
  0.00000000e+00  0.00000000e+00  0.00000000e+00  0.00000000e+00
  0.00000000e+00  0.00000000e+00 -9.85307082e-08  2.31016822e-07
  0.00000000e+00  0.00000000e+00  0.00000000e+00  2.69031083e-06]","[[-2.04688253e-04  8.69240728e-04]
 [-2.37724874e-05 -4.58930838e-03]]",[],0.0,0.0
1787584080.4893324,0.4930009972011033,-0.6038705100480468,0.15952809868034065,"[ 8.29516871e-06 -1.82232753e-07  0.00000000e+00  0.00000000e+00
  0.00000000e+00 -9.85307082e-08 -1.82232753e-07  8.06262218e-06
  0.00000000e+00  0.00000000e+00  0.00000000e+00  2.31016822e-07
  0.00000000e+00  0.00000000e+00  0.00000000e+00  0.00000000e+00
  0.00000000e+00  0.00000000e+00  0.00000000e+00  0.00000000e+00
  0.00000000e+00  0.00000000e+00  0.00000000e+00  0.00000000e+00
  0.00000000e+00  0.00000000e+00  0.00000000e+00  0.00000000e+00
  0.00000000e+00  0.00000000e+00 -9.85307082e-08  2.31016822e-07
  0.00000000e+00  0.00000000e+00  0.00000000e+00  2.69031083e-06]","[[-2.04688253e-04  8.69240728e-04]
 [-2.37724874e-05 -4.58930838e-03]]",[],0.0,0.0
1787584081.2227159,0.49166464444882846,-0.6056938333777876,0.14502448465699927,"[ 7.36265923e-06 -1.22733776e-07  0.00000000e+00  0.00000000e+00
  0.00000000e+00 -6.38821252e-08 -1.22733776e-07  6.98352268e-06
  0.00000000e+00  0.00000000e+00  0.00000000e+00  1.52557662e-07
  0.00000000e+00  0.00000000e+00  0.00000000e+00  0.00000000e+00
  0.00000000e+00  0.00000000e+00  0.00000000e+00  0.00000000e+00
  0.00000000e+00  0.00000000e+00  0.00000000e+00  0.00000000e+00
  0.00000000e+00  0.00000000e+00  0.00000000e+00  0.00000000e+00
  0.00000000e+00  0.00000000e+00 -6.38821252e-08  1.52557662e-07
  0.00000000e+00  0.00000000e+00  0.00000000e+00  2.87119680e-06]","[[-1.82423698e-04  6.25195957e-04]
 [-1.75176623e-05 -3.90247240e-03]]",[],0.0,0.0
1787584081.2266576,0.49166464444882846,-0.6056938333777876,0.14502448465699927,"[ 7.36265923e-06 -1.22733776e-07  0.00000000e+00  0.00000000e+00
  0.00000000e+00 -6.38821252e-08 -1.22733776e-07  6.98352268e-06
  0.00000000e+00  0.00000000e+00  0.00000000e+00  1.52557662e-07
  0.00000000e+00  0.00000000e+00  0.00000000e+00  0.00000000e+00
  0.00000000e+00  0.00000000e+00  0.00000000e+00  0.00000000e+00
  0.00000000e+00  0.00000000e+00  0.00000000e+00  0.00000000e+00
  0.00000000e+00  0.00000000e+00  0.00000000e+00  0.00000000e+00
  0.00000000e+00  0.00000000e+00 -6.38821252e-08  1.52557662e-07
  0.00000000e+00  0.00000000e+00  0.00000000e+00  2.87119680e-06]","[[-1.82423698e-04  6.25195957e-04]
 [-1.75176623e-05 -3.90247240e-03]]",[],0.0,0.0
1787584081.2786565,0.49166464444882846,-0.6056938333777876,0.14502448465699927,"[ 7.36265923e-06 -1.22733776e-07  0.00000000e+00  0.00000000e+00
  0.00000000e+00 -6.38821252e-08 -1.22733776e-07  6.98352268e-06
  0.00000000e+00  0.00000000e+00  0.00000000e+00  1.52557662e-07
  0.00000000e+00  0.00000000e+00  0.00000000e+00  0.00000000e+00
  0.00000000e+00  0.00000000e+00  0.00000000e+00  0.00000000e+00
  0.00000000e+00  0.00000000e+00  0.00000000e+00  0.00000000e+00
  0.00000000e+00  0.00000000e+00  0.00000000e+00  0.00000000e+00
  0.00000000e+00  0.00000000e+00 -6.38821252e-08  1.52557662e-07
  0.00000000e+00  0.00000000e+00  0.00000000e+00  2.87119680e-06]","[[-1.82423698e-04  6.25195957e-04]
 [-1.75176623e-05 -3.90247240e-03]]",[],0.0,0.0
1787584081.3275301,0.4931690654074447,-0.6058059595119896,0.14466091419560637,"[ 6.55701340e-06 -1.11772425e-07  0.00000000e+00  0.00000000e+00
  0.00000000e+00 -7.27408702e-08 -1.11772425e-07  6.15205813e-06
  0.00000000e+00  0.00000000e+00  0.00000000e+00  1.56354263e-07
  0.00000000e+00  0.00000000e+00  0.00000000e+00  0.00000000e+00
  0.00000000e+00  0.00000000e+00  0.00000000e+00  0.00000000e+00
  0.00000000e+00  0.00000000e+00  0.00000000e+00  0.00000000e+00
  0.00000000e+00  0.00000000e+00  0.00000000e+00  0.00000000e+00
  0.00000000e+00  0.00000000e+00 -7.27408702e-08  1.56354263e-07
  0.00000000e+00  0.00000000e+00  0.00000000e+00  2.70437028e-06]","[[-1.62762726e-04  5.32791493e-04]
 [-1.30849606e-05 -3.46971486e-03]]",[],0.0,0.0
1787584081.379991,0.4931690654074447,-0.6058059595119896,0.14466091419560637,"[ 6.55701340e-06 -1.11772425e-07  0.00000000e+00  0.00000000e+00
  0.00000000e+00 -7.27408702e-08 -1.11772425e-07  6.15205813e-06
  0.00000000e+00  0.00000000e+00  0.00000000e+00  1.56354263e-07
  0.00000000e+00  0.00000000e+00  0.00000000e+00  0.00000000e+00
  0.00000000e+00  0.00000000e+00  0.00000000e+00  0.00000000e+00
  0.00000000e+00  0.00000000e+00  0.00000000e+00  0.00000000e+00
  0.00000000e+00  0.00000000e+00  0.00000000e+00  0.00000000e+00
  0.00000000e+00  0.00000000e+00 -7.27408702e-08  1.56354263e-07
  0.00000000e+00  0.00000000e+00  0.00000000e+00  2.70437028e-06]","[[-1.62762726e-04  5.32791493e-04]
 [-1.30849606e-05 -3.46971486e-03]]",[],0.0,0.0
1787584082.0748885,0.4931690654074447,-0.6058059595119896,0.14466091419560637,"[ 6.55701340e-06 -1.11772425e-07  0.00000000e+00  0.00000000e+00
  0.00000000e+00 -7.27408702e-08 -1.11772425e-07  6.15205813e-06
  0.00000000e+00  0.00000000e+00  0.00000000e+00  1.56354263e-07
  0.00000000e+00  0.00000000e+00  0.00000000e+00  0.00000000e+00
  0.00000000e+00  0.00000000e+00  0.00000000e+00  0.00000000e+00
  0.00000000e+00  0.00000000e+00  0.00000000e+00  0.00000000e+00
  0.00000000e+00  0.00000000e+00  0.00000000e+00  0.00000000e+00
  0.00000000e+00  0.00000000e+00 -7.27408702e-08  1.56354263e-07
  0.00000000e+00  0.00000000e+00  0.00000000e+00  2.70437028e-06]","[[-1.62762726e-04  5.32791493e-04]
 [-1.30849606e-05 -3.46971486e-03]]",[],0.0,0.0
1787584082.0817492,0.4931690654074447,-0.6058059595119896,0.14466091419560637,"[ 6.55701340e-06 -1.11772425e-07  0.00000000e+00  0.00000000e+00
  0.00000000e+00 -7.27408702e-08 -1.11772425e-07  6.15205813e-06
  0.00000000e+00  0.00000000e+00  0.00000000e+00  1.56354263e-07
  0.00000000e+00  0.00000000e+00  0.00000000e+00  0.00000000e+00
  0.00000000e+00  0.00000000e+00  0.00000000e+00  0.00000000e+00
  0.00000000e+00  0.00000000e+00  0.00000000e+00  0.00000000e+00
  0.00000000e+00  0.00000000e+00  0.00000000e+00  0.00000000e+00
  0.00000000e+00  0.00000000e+00 -7.27408702e-08  1.56354263e-07
  0.00000000e+00  0.00000000e+00  0.00000000e+00  2.70437028e-06]","[[-1.62762726e-04  5.32791493e-04]
 [-1.30849606e-05 -3.46971486e-03]]",[],0.0,0.0
1787584082.1320713,0.49325355027904516,-0.6071575683242927,0.14820065154233797,"[ 5.96022423e-06 -8.28856548e-08  0.00000000e+00  0.00000000e+00
  0.00000000e+00 -3.35101706e-08 -8.28856548e-08  5.47333326e-06
  0.00000000e+00  0.00000000e+00  0.00000000e+00  1.71148694e-07
  0.00000000e+00  0.00000000e+00  0.00000000e+00  0.00000000e+00
  0.00000000e+00  0.00000000e+00  0.00000000e+00  0.00000000e+00
  0.00000000e+00  0.00000000e+00  0.00000000e+00  0.00000000e+00
  0.00000000e+00  0.00000000e+00  0.00000000e+00  0.00000000e+00
  0.00000000e+00  0.00000000e+00 -3.35101706e-08  1.71148694e-07
  0.00000000e+00  0.00000000e+00  0.00000000e+00  2.75103648e-06]","[[-1.47774146e-04  4.59289292e-04]
 [-1.37099336e-05 -3.14279260e-03]]",[],0.0,0.0
1787584082.178993,0.49325355027904516,-0.6071575683242927,0.14820065154233797,"[ 5.96022423e-06 -8.28856548e-08  0.00000000e+00  0.00000000e+00
  0.00000000e+00 -3.35101706e-08 -8.28856548e-08  5.47333326e-06
  0.00000000e+00  0.00000000e+00  0.00000000e+00  1.71148694e-07
  0.00000000e+00  0.00000000e+00  0.00000000e+00  0.00000000e+00
  0.00000000e+00  0.00000000e+00  0.00000000e+00  0.00000000e+00
  0.00000000e+00  0.00000000e+00  0.00000000e+00  0.00000000e+00
  0.00000000e+00  0.00000000e+00  0.00000000e+00  0.00000000e+00
  0.00000000e+00  0.00000000e+00 -3.35101706e-08  1.71148694e-07
  0.00000000e+00  0.00000000e+00  0.00000000e+00  2.75103648e-06]","[[-1.47774146e-04  4.59289292e-04]
 [-1.37099336e-05 -3.14279260e-03]]",[],0.0,0.0
1787584082.996821,0.49325355027904516,-0.6071575683242927,0.14820065154233797,"[ 5.96022423e-06 -8.28856548e-08  0.00000000e+00  0.00000000e+00
  0.00000000e+00 -3.35101706e-08 -8.28856548e-08  5.47333326e-06
  0.00000000e+00  0.00000000e+00  0.00000000e+00  1.71148694e-07
  0.00000000e+00  0.00000000e+00  0.00000000e+00  0.00000000e+00
  0.00000000e+00  0.00000000e+00  0.00000000e+00  0.00000000e+00
  0.00000000e+00  0.00000000e+00  0.00000000e+00  0.00000000e+00
  0.00000000e+00  0.00000000e+00  0.00000000e+00  0.00000000e+00
  0.00000000e+00  0.00000000e+00 -3.35101706e-08  1.71148694e-07
  0.00000000e+00  0.00000000e+00  0.00000000e+00  2.75103648e-06]","[[-1.47774146e-04  4.59289292e-04]
 [-1.37099336e-05 -3.14279260e-03]]",[],0.0,0.0
1787584083.0276282,0.49325355027904516,-0.6071575683242927,0.14820065154233797,"[ 5.96022423e-06 -8.28856548e-08  0.00000000e+00  0.00000000e+00
  0.00000000e+00 -3.35101706e-08 -8.28856548e-08  5.47333326e-06
  0.00000000e+00  0.00000000e+00  0.00000000e+00  1.71148694e-07
  0.00000000e+00  0.00000000e+00  0.00000000e+00  0.00000000e+00
  0.00000000e+00  0.00000000e+00  0.00000000e+00  0.00000000e+00
  0.00000000e+00  0.00000000e+00  0.00000000e+00  0.00000000e+00
  0.00000000e+00  0.00000000e+00  0.00000000e+00  0.00000000e+00
  0.00000000e+00  0.00000000e+00 -3.35101706e-08  1.71148694e-07
  0.00000000e+00  0.00000000e+00  0.00000000e+00  2.75103648e-06]","[[-1.47774146e-04  4.59289292e-04]
 [-1.37099336e-05 -3.14279260e-03]]",[],0.0,0.0
1787584083.0820582,0.4922233152459928,-0.60859481525316,0.14631082723330244,"[ 5.52707494e-06 -5.94271906e-08  0.00000000e+00  0.00000000e+00
  0.00000000e+00 -4.91447254e-08 -5.94271906e-08  4.93204184e-06
  0.00000000e+00  0.00000000e+00  0.00000000e+00  1.67010752e-07
  0.00000000e+00  0.00000000e+00  0.00000000e+00  0.00000000e+00
  0.00000000e+00  0.00000000e+00  0.00000000e+00  0.00000000e+00
  0.00000000e+00  0.00000000e+00  0.00000000e+00  0.00000000e+00
  0.00000000e+00  0.00000000e+00  0.00000000e+00  0.00000000e+00
  0.00000000e+00  0.00000000e+00 -4.91447254e-08  1.67010752e-07
  0.00000000e+00  0.00000000e+00  0.00000000e+00  2.77886661e-06]","[[-1.37021327e-04  4.57229825e-04]
 [-1.31764849e-05 -2.85202343e-03]]",[],0.0,0.0
1787584083.85298,0.4922233152459928,-0.60859481525316,0.14631082723330244,"[ 5.52707494e-06 -5.94271906e-08  0.00000000e+00  0.00000000e+00
  0.00000000e+00 -4.91447254e-08 -5.94271906e-08  4.93204184e-06
  0.00000000e+00  0.00000000e+00  0.00000000e+00  1.67010752e-07
  0.00000000e+00  0.00000000e+00  0.00000000e+00  0.00000000e+00
  0.00000000e+00  0.00000000e+00  0.00000000e+00  0.00000000e+00
  0.00000000e+00  0.00000000e+00  0.00000000e+00  0.00000000e+00
  0.00000000e+00  0.00000000e+00  0.00000000e+00  0.00000000e+00
  0.00000000e+00  0.00000000e+00 -4.91447254e-08  1.67010752e-07
  0.00000000e+00  0.00000000e+00  0.00000000e+00  2.77886661e-06]","[[-1.37021327e-04  4.57229825e-04]
 [-1.31764849e-05 -2.85202343e-03]]",[],0.0,0.0
1787584083.8768945,0.4922233152459928,-0.60859481525316,0.14631082723330244,"[ 5.52707494e-06 -5.94271906e-08  0.00000000e+00  0.00000000e+00
  0.00000000e+00 -4.91447254e-08 -5.94271906e-08  4.93204184e-06
  0.00000000e+00  0.00000000e+00  0.00000000e+00  1.67010752e-07
  0.00000000e+00  0.00000000e+00  0.00000000e+00  0.00000000e+00
  0.00000000e+00  0.00000000e+00  0.00000000e+00  0.00000000e+00
  0.00000000e+00  0.00000000e+00  0.00000000e+00  0.00000000e+00
  0.00000000e+00  0.00000000e+00  0.00000000e+00  0.00000000e+00
  0.00000000e+00  0.00000000e+00 -4.91447254e-08  1.67010752e-07
  0.00000000e+00  0.00000000e+00  0.00000000e+00  2.77886661e-06]","[[-1.37021327e-04  4.57229825e-04]
 [-1.31764849e-05 -2.85202343e-03]]",[],0.0,0.0
1787584083.930706,0.4916535412448804,-0.6098361792376586,0.14064176212031532,"[ 5.17262127e-06 -2.85033651e-08  0.00000000e+00  0.00000000e+00
  0.00000000e+00 -3.83435076e-08 -2.85033651e-08  4.49294754e-06
  0.00000000e+00  0.00000000e+00  0.00000000e+00  1.40774888e-07
  0.00000000e+00  0.00000000e+00  0.00000000e+00  0.00000000e+00
  0.00000000e+00  0.00000000e+00  0.00000000e+00  0.00000000e+00
  0.00000000e+00  0.00000000e+00  0.00000000e+00  0.00000000e+00
  0.00000000e+00  0.00000000e+00  0.00000000e+00  0.00000000e+00
  0.00000000e+00  0.00000000e+00 -3.83435076e-08  1.40774888e-07
  0.00000000e+00  0.00000000e+00  0.00000000e+00  2.73967267e-06]","[[-1.27976085e-04  4.53225876e-04]
 [-1.48179891e-05 -2.56910058e-03]]",[],0.0,0.0
1787584083.979091,0.4916535412448804,-0.6098361792376586,0.14064176212031532,"[ 5.17262127e-06 -2.85033651e-08  0.00000000e+00  0.00000000e+00
  0.00000000e+00 -3.83435076e-08 -2.85033651e-08  4.49294754e-06
  0.00000000e+00  0.00000000e+00  0.00000000e+00  1.40774888e-07
  0.00000000e+00  0.00000000e+00  0.00000000e+00  0.00000000e+00
  0.00000000e+00  0.00000000e+00  0.00000000e+00  0.00000000e+00
  0.00000000e+00  0.00000000e+00  0.00000000e+00  0.00000000e+00
  0.00000000e+00  0.00000000e+00  0.00000000e+00  0.00000000e+00
  0.00000000e+00  0.00000000e+00 -3.83435076e-08  1.40774888e-07
  0.00000000e+00  0.00000000e+00  0.00000000e+00  2.73967267e-06]","[[-1.27976085e-04  4.53225876e-04]
 [-1.48179891e-05 -2.56910058e-03]]",[],0.0,0.0
1787584084.029868,0.4916535412448804,-0.6098361792376586,0.14064176212031532,"[ 5.17262127e-06 -2.85033651e-08  0.00000000e+00  0.00000000e+00
  0.00000000e+00 -3.83435076e-08 -2.85033651e-08  4.49294754e-06
  0.00000000e+00  0.00000000e+00  0.00000000e+00  1.40774888e-07
  0.00000000e+00  0.00000000e+00  0.00000000e+00  0.00000000e+00
  0.00000000e+00  0.00000000e+00  0.00000000e+00  0.00000000e+00
  0.00000000e+00  0.00000000e+00  0.00000000e+00  0.00000000e+00
  0.00000000e+00  0.00000000e+00  0.00000000e+00  0.00000000e+00
  0.00000000e+00  0.00000000e+00 -3.83435076e-08  1.40774888e-07
  0.00000000e+00  0.00000000e+00  0.00000000e+00  2.73967267e-06]","[[-1.27976085e-04  4.53225876e-04]
 [-1.48179891e-05 -2.56910058e-03]]",[],0.0,0.0
1787584084.0827556,0.4916535412448804,-0.6098361792376586,0.14064176212031532,"[ 5.17262127e-06 -2.85033651e-08  0.00000000e+00  0.00000000e+00
  0.00000000e+00 -3.83435076e-08 -2.85033651e-08  4.49294754e-06
  0.00000000e+00  0.00000000e+00  0.00000000e+00  1.40774888e-07
  0.00000000e+00  0.00000000e+00  0.00000000e+00  0.00000000e+00
  0.00000000e+00  0.00000000e+00  0.00000000e+00  0.00000000e+00
  0.00000000e+00  0.00000000e+00  0.00000000e+00  0.00000000e+00
  0.00000000e+00  0.00000000e+00  0.00000000e+00  0.00000000e+00
  0.00000000e+00  0.00000000e+00 -3.83435076e-08  1.40774888e-07
  0.00000000e+00  0.00000000e+00  0.00000000e+00  2.73967267e-06]","[[-1.27976085e-04  4.53225876e-04]
 [-1.48179891e-05 -2.56910058e-03]]",[],0.0,0.0
1787584084.1281636,0.4916535412448804,-0.6098361792376586,0.14064176212031532,"[ 5.17262127e-06 -2.85033651e-08  0.00000000e+00  0.00000000e+00
  0.00000000e+00 -3.83435076e-08 -2.85033651e-08  4.49294754e-06
  0.00000000e+00  0.00000000e+00  0.00000000e+00  1.40774888e-07
  0.00000000e+00  0.00000000e+00  0.00000000e+00  0.00000000e+00
  0.00000000e+00  0.00000000e+00  0.00000000e+00  0.00000000e+00
  0.00000000e+00  0.00000000e+00  0.00000000e+00  0.00000000e+00
  0.00000000e+00  0.00000000e+00  0.00000000e+00  0.00000000e+00
  0.00000000e+00  0.00000000e+00 -3.83435076e-08  1.40774888e-07
  0.00000000e+00  0.00000000e+00  0.00000000e+00  2.73967267e-06]","[[-1.27976085e-04  4.53225876e-04]
 [-1.48179891e-05 -2.56910058e-03]]",[],0.0,0.0
1787584084.179017,0.4916535412448804,-0.6098361792376586,0.14064176212031532,"[ 5.17262127e-06 -2.85033651e-08  0.00000000e+00  0.00000000e+00
  0.00000000e+00 -3.83435076e-08 -2.85033651e-08  4.49294754e-06
  0.00000000e+00  0.00000000e+00  0.00000000e+00  1.40774888e-07
  0.00000000e+00  0.00000000e+00  0.00000000e+00  0.00000000e+00
  0.00000000e+00  0.00000000e+00  0.00000000e+00  0.00000000e+00
  0.00000000e+00  0.00000000e+00  0.00000000e+00  0.00000000e+00
  0.00000000e+00  0.00000000e+00  0.00000000e+00  0.00000000e+00
  0.00000000e+00  0.00000000e+00 -3.83435076e-08  1.40774888e-07
  0.00000000e+00  0.00000000e+00  0.00000000e+00  2.73967267e-06]","[[-1.27976085e-04  4.53225876e-04]
 [-1.48179891e-05 -2.56910058e-03]]",[],0.0,0.0
1787584084.2543893,0.4916535412448804,-0.6098361792376586,0.14064176212031532,"[ 5.17262127e-06 -2.85033651e-08  0.00000000e+00  0.00000000e+00
  0.00000000e+00 -3.83435076e-08 -2.85033651e-08  4.49294754e-06
  0.00000000e+00  0.00000000e+00  0.00000000e+00  1.40774888e-07
  0.00000000e+00  0.00000000e+00  0.00000000e+00  0.00000000e+00
  0.00000000e+00  0.00000000e+00  0.00000000e+00  0.00000000e+00
  0.00000000e+00  0.00000000e+00  0.00000000e+00  0.00000000e+00
  0.00000000e+00  0.00000000e+00  0.00000000e+00  0.00000000e+00
  0.00000000e+00  0.00000000e+00 -3.83435076e-08  1.40774888e-07
  0.00000000e+00  0.00000000e+00  0.00000000e+00  2.73967267e-06]","[[-1.27976085e-04  4.53225876e-04]
 [-1.48179891e-05 -2.56910058e-03]]",[],0.0,0.0
1787584084.2836397,0.4916535412448804,-0.6098361792376586,0.14064176212031532,"[ 5.17262127e-06 -2.85033651e-08  0.00000000e+00  0.00000000e+00
  0.00000000e+00 -3.83435076e-08 -2.85033651e-08  4.49294754e-06
  0.00000000e+00  0.00000000e+00  0.00000000e+00  1.40774888e-07
  0.00000000e+00  0.00000000e+00  0.00000000e+00  0.00000000e+00
  0.00000000e+00  0.00000000e+00  0.00000000e+00  0.00000000e+00
  0.00000000e+00  0.00000000e+00  0.00000000e+00  0.00000000e+00
  0.00000000e+00  0.00000000e+00  0.00000000e+00  0.00000000e+00
  0.00000000e+00  0.00000000e+00 -3.83435076e-08  1.40774888e-07
  0.00000000e+00  0.00000000e+00  0.00000000e+00  2.73967267e-06]","[[-1.27976085e-04  4.53225876e-04]
 [-1.48179891e-05 -2.56910058e-03]]",[],0.0,0.0
1787584084.3302197,0.4916535412448804,-0.6098361792376586,0.14064176212031532,"[ 5.17262127e-06 -2.85033651e-08  0.00000000e+00  0.00000000e+00
  0.00000000e+00 -3.83435076e-08 -2.85033651e-08  4.49294754e-06
  0.00000000e+00  0.00000000e+00  0.00000000e+00  1.40774888e-07
  0.00000000e+00  0.00000000e+00  0.00000000e+00  0.00000000e+00
  0.00000000e+00  0.00000000e+00  0.00000000e+00  0.00000000e+00
  0.00000000e+00  0.00000000e+00  0.00000000e+00  0.00000000e+00
  0.00000000e+00  0.00000000e+00  0.00000000e+00  0.00000000e+00
  0.00000000e+00  0.00000000e+00 -3.83435076e-08  1.40774888e-07
  0.00000000e+00  0.00000000e+00  0.00000000e+00  2.73967267e-06]","[[-1.27976085e-04  4.53225876e-04]
 [-1.48179891e-05 -2.56910058e-03]]",[],0.0,0.0
1787584084.3777788,0.4916535412448804,-0.6098361792376586,0.14064176212031532,"[ 5.17262127e-06 -2.85033651e-08  0.00000000e+00  0.00000000e+00
  0.00000000e+00 -3.83435076e-08 -2.85033651e-08  4.49294754e-06
  0.00000000e+00  0.00000000e+00  0.00000000e+00  1.40774888e-07
  0.00000000e+00  0.00000000e+00  0.00000000e+00  0.00000000e+00
  0.00000000e+00  0.00000000e+00  0.00000000e+00  0.00000000e+00
  0.00000000e+00  0.00000000e+00  0.00000000e+00  0.00000000e+00
  0.00000000e+00  0.00000000e+00  0.00000000e+00  0.00000000e+00
  0.00000000e+00  0.00000000e+00 -3.83435076e-08  1.40774888e-07
  0.00000000e+00  0.00000000e+00  0.00000000e+00  2.73967267e-06]","[[-1.27976085e-04  4.53225876e-04]
 [-1.48179891e-05 -2.56910058e-03]]",[],0.0,0.0
1787584084.42923,0.4916535412448804,-0.6098361792376586,0.14064176212031532,"[ 5.17262127e-06 -2.85033651e-08  0.00000000e+00  0.00000000e+00
  0.00000000e+00 -3.83435076e-08 -2.85033651e-08  4.49294754e-06
  0.00000000e+00  0.00000000e+00  0.00000000e+00  1.40774888e-07
  0.00000000e+00  0.00000000e+00  0.00000000e+00  0.00000000e+00
  0.00000000e+00  0.00000000e+00  0.00000000e+00  0.00000000e+00
  0.00000000e+00  0.00000000e+00  0.00000000e+00  0.00000000e+00
  0.00000000e+00  0.00000000e+00  0.00000000e+00  0.00000000e+00
  0.00000000e+00  0.00000000e+00 -3.83435076e-08  1.40774888e-07
  0.00000000e+00  0.00000000e+00  0.00000000e+00  2.73967267e-06]","[[-1.27976085e-04  4.53225876e-04]
 [-1.48179891e-05 -2.56910058e-03]]",[],0.0,0.0
1787584084.477121,0.4916535412448804,-0.6098361792376586,0.14064176212031532,"[ 5.17262127e-06 -2.85033651e-08  0.00000000e+00  0.00000000e+00
  0.00000000e+00 -3.83435076e-08 -2.85033651e-08  4.49294754e-06
  0.00000000e+00  0.00000000e+00  0.00000000e+00  1.40774888e-07
  0.00000000e+00  0.00000000e+00  0.00000000e+00  0.00000000e+00
  0.00000000e+00  0.00000000e+00  0.00000000e+00  0.00000000e+00
  0.00000000e+00  0.00000000e+00  0.00000000e+00  0.00000000e+00
  0.00000000e+00  0.00000000e+00  0.00000000e+00  0.00000000e+00
  0.00000000e+00  0.00000000e+00 -3.83435076e-08  1.40774888e-07
  0.00000000e+00  0.00000000e+00  0.00000000e+00  2.73967267e-06]","[[-1.27976085e-04  4.53225876e-04]
 [-1.48179891e-05 -2.56910058e-03]]",[],0.0,0.0
1787584084.5309007,0.4916535412448804,-0.6098361792376586,0.14064176212031532,"[ 5.17262127e-06 -2.85033651e-08  0.00000000e+00  0.00000000e+00
  0.00000000e+00 -3.83435076e-08 -2.85033651e-08  4.49294754e-06
  0.00000000e+00  0.00000000e+00  0.00000000e+00  1.40774888e-07
  0.00000000e+00  0.00000000e+00  0.00000000e+00  0.00000000e+00
  0.00000000e+00  0.00000000e+00  0.00000000e+00  0.00000000e+00
  0.00000000e+00  0.00000000e+00  0.00000000e+00  0.00000000e+00
  0.00000000e+00  0.00000000e+00  0.00000000e+00  0.00000000e+00
  0.00000000e+00  0.00000000e+00 -3.83435076e-08  1.40774888e-07
  0.00000000e+00  0.00000000e+00  0.00000000e+00  2.73967267e-06]","[[-1.27976085e-04  4.53225876e-04]
 [-1.48179891e-05 -2.56910058e-03]]",[],0.0,0.0
1787584084.5980198,0.4916535412448804,-0.6098361792376586,0.14064176212031532,"[ 5.17262127e-06 -2.85033651e-08  0.00000000e+00  0.00000000e+00
  0.00000000e+00 -3.83435076e-08 -2.85033651e-08  4.49294754e-06
  0.00000000e+00  0.00000000e+00  0.00000000e+00  1.40774888e-07
  0.00000000e+00  0.00000000e+00  0.00000000e+00  0.00000000e+00
  0.00000000e+00  0.00000000e+00  0.00000000e+00  0.00000000e+00
  0.00000000e+00  0.00000000e+00  0.00000000e+00  0.00000000e+00
  0.00000000e+00  0.00000000e+00  0.00000000e+00  0.00000000e+00
  0.00000000e+00  0.00000000e+00 -3.83435076e-08  1.40774888e-07
  0.00000000e+00  0.00000000e+00  0.00000000e+00  2.73967267e-06]","[[-1.27976085e-04  4.53225876e-04]
 [-1.48179891e-05 -2.56910058e-03]]",[],0.0,0.0
1787584084.6272063,0.4916535412448804,-0.6098361792376586,0.14064176212031532,"[ 5.17262127e-06 -2.85033651e-08  0.00000000e+00  0.00000000e+00
  0.00000000e+00 -3.83435076e-08 -2.85033651e-08  4.49294754e-06
  0.00000000e+00  0.00000000e+00  0.00000000e+00  1.40774888e-07
  0.00000000e+00  0.00000000e+00  0.00000000e+00  0.00000000e+00
  0.00000000e+00  0.00000000e+00  0.00000000e+00  0.00000000e+00
  0.00000000e+00  0.00000000e+00  0.00000000e+00  0.00000000e+00
  0.00000000e+00  0.00000000e+00  0.00000000e+00  0.00000000e+00
  0.00000000e+00  0.00000000e+00 -3.83435076e-08  1.40774888e-07
  0.00000000e+00  0.00000000e+00  0.00000000e+00  2.73967267e-06]","[[-1.27976085e-04  4.53225876e-04]
 [-1.48179891e-05 -2.56910058e-03]]",[],0.0,0.0
1787584084.6835866,0.4916535412448804,-0.6098361792376586,0.14064176212031532,"[ 5.17262127e-06 -2.85033651e-08  0.00000000e+00  0.00000000e+00
  0.00000000e+00 -3.83435076e-08 -2.85033651e-08  4.49294754e-06
  0.00000000e+00  0.00000000e+00  0.00000000e+00  1.40774888e-07
  0.00000000e+00  0.00000000e+00  0.00000000e+00  0.00000000e+00
  0.00000000e+00  0.00000000e+00  0.00000000e+00  0.00000000e+00
  0.00000000e+00  0.00000000e+00  0.00000000e+00  0.00000000e+00
  0.00000000e+00  0.00000000e+00  0.00000000e+00  0.00000000e+00
  0.00000000e+00  0.00000000e+00 -3.83435076e-08  1.40774888e-07
  0.00000000e+00  0.00000000e+00  0.00000000e+00  2.73967267e-06]","[[-1.27976085e-04  4.53225876e-04]
 [-1.48179891e-05 -2.56910058e-03]]",[],0.0,0.0
1787584084.7271109,0.4916535412448804,-0.6098361792376586,0.14064176212031532,"[ 5.17262127e-06 -2.85033651e-08  0.00000000e+00  0.00000000e+00
  0.00000000e+00 -3.83435076e-08 -2.85033651e-08  4.49294754e-06
  0.00000000e+00  0.00000000e+00  0.00000000e+00  1.40774888e-07
  0.00000000e+00  0.00000000e+00  0.00000000e+00  0.00000000e+00
  0.00000000e+00  0.00000000e+00  0.00000000e+00  0.00000000e+00
  0.00000000e+00  0.00000000e+00  0.00000000e+00  0.00000000e+00
  0.00000000e+00  0.00000000e+00  0.00000000e+00  0.00000000e+00
  0.00000000e+00  0.00000000e+00 -3.83435076e-08  1.40774888e-07
  0.00000000e+00  0.00000000e+00  0.00000000e+00  2.73967267e-06]","[[-1.27976085e-04  4.53225876e-04]
 [-1.48179891e-05 -2.56910058e-03]]",[],0.0,0.0
1787584084.777742,0.4916535412448804,-0.6098361792376586,0.14064176212031532,"[ 5.17262127e-06 -2.85033651e-08  0.00000000e+00  0.00000000e+00
  0.00000000e+00 -3.83435076e-08 -2.85033651e-08  4.49294754e-06
  0.00000000e+00  0.00000000e+00  0.00000000e+00  1.40774888e-07
  0.00000000e+00  0.00000000e+00  0.00000000e+00  0.00000000e+00
  0.00000000e+00  0.00000000e+00  0.00000000e+00  0.00000000e+00
  0.00000000e+00  0.00000000e+00  0.00000000e+00  0.00000000e+00
  0.00000000e+00  0.00000000e+00  0.00000000e+00  0.00000000e+00
  0.00000000e+00  0.00000000e+00 -3.83435076e-08  1.40774888e-07
  0.00000000e+00  0.00000000e+00  0.00000000e+00  2.73967267e-06]","[[-1.27976085e-04  4.53225876e-04]
 [-1.48179891e-05 -2.56910058e-03]]",[],0.0,0.0
1787584084.8295903,0.4916535412448804,-0.6098361792376586,0.14064176212031532,"[ 5.17262127e-06 -2.85033651e-08  0.00000000e+00  0.00000000e+00
  0.00000000e+00 -3.83435076e-08 -2.85033651e-08  4.49294754e-06
  0.00000000e+00  0.00000000e+00  0.00000000e+00  1.40774888e-07
  0.00000000e+00  0.00000000e+00  0.00000000e+00  0.00000000e+00
  0.00000000e+00  0.00000000e+00  0.00000000e+00  0.00000000e+00
  0.00000000e+00  0.00000000e+00  0.00000000e+00  0.00000000e+00
  0.00000000e+00  0.00000000e+00  0.00000000e+00  0.00000000e+00
  0.00000000e+00  0.00000000e+00 -3.83435076e-08  1.40774888e-07
  0.00000000e+00  0.00000000e+00  0.00000000e+00  2.73967267e-06]","[[-1.27976085e-04  4.53225876e-04]
 [-1.48179891e-05 -2.56910058e-03]]",[],0.0,0.0
1787584084.8811028,0.4916535412448804,-0.6098361792376586,0.14064176212031532,"[ 5.17262127e-06 -2.85033651e-08  0.00000000e+00  0.00000000e+00
  0.00000000e+00 -3.83435076e-08 -2.85033651e-08  4.49294754e-06
  0.00000000e+00  0.00000000e+00  0.00000000e+00  1.40774888e-07
  0.00000000e+00  0.00000000e+00  0.00000000e+00  0.00000000e+00
  0.00000000e+00  0.00000000e+00  0.00000000e+00  0.00000000e+00
  0.00000000e+00  0.00000000e+00  0.00000000e+00  0.00000000e+00
  0.00000000e+00  0.00000000e+00  0.00000000e+00  0.00000000e+00
  0.00000000e+00  0.00000000e+00 -3.83435076e-08  1.40774888e-07
  0.00000000e+00  0.00000000e+00  0.00000000e+00  2.73967267e-06]","[[-1.27976085e-04  4.53225876e-04]
 [-1.48179891e-05 -2.56910058e-03]]",[],0.0,0.0
1787584084.9284883,0.4916535412448804,-0.6098361792376586,0.14064176212031532,"[ 5.17262127e-06 -2.85033651e-08  0.00000000e+00  0.00000000e+00
  0.00000000e+00 -3.83435076e-08 -2.85033651e-08  4.49294754e-06
  0.00000000e+00  0.00000000e+00  0.00000000e+00  1.40774888e-07
  0.00000000e+00  0.00000000e+00  0.00000000e+00  0.00000000e+00
  0.00000000e+00  0.00000000e+00  0.00000000e+00  0.00000000e+00
  0.00000000e+00  0.00000000e+00  0.00000000e+00  0.00000000e+00
  0.00000000e+00  0.00000000e+00  0.00000000e+00  0.00000000e+00
  0.00000000e+00  0.00000000e+00 -3.83435076e-08  1.40774888e-07
  0.00000000e+00  0.00000000e+00  0.00000000e+00  2.73967267e-06]","[[-1.27976085e-04  4.53225876e-04]
 [-1.48179891e-05 -2.56910058e-03]]",[],0.0,0.0
1787584085.3627968,0.4917582164479636,-0.6103912893827792,0.13966334152458074,"[ 4.99603862e-06  1.38997383e-08  0.00000000e+00  0.00000000e+00
  0.00000000e+00 -4.01057868e-08  1.38997383e-08  4.11449617e-06
  0.00000000e+00  0.00000000e+00  0.00000000e+00  1.18585887e-07
  0.00000000e+00  0.00000000e+00  0.00000000e+00  0.00000000e+00
  0.00000000e+00  0.00000000e+00  0.00000000e+00  0.00000000e+00
  0.00000000e+00  0.00000000e+00  0.00000000e+00  0.00000000e+00
  0.00000000e+00  0.00000000e+00  0.00000000e+00  0.00000000e+00
  0.00000000e+00  0.00000000e+00 -4.01057868e-08  1.18585887e-07
  0.00000000e+00  0.00000000e+00  0.00000000e+00  2.77162040e-06]","[[-1.24121277e-04  3.58159210e-04]
 [-1.21085501e-05 -2.33477506e-03]]",[],0.0,0.0
1787584085.377157,0.4917582164479636,-0.6103912893827792,0.13966334152458074,"[ 4.99603862e-06  1.38997383e-08  0.00000000e+00  0.00000000e+00
  0.00000000e+00 -4.01057868e-08  1.38997383e-08  4.11449617e-06
  0.00000000e+00  0.00000000e+00  0.00000000e+00  1.18585887e-07
  0.00000000e+00  0.00000000e+00  0.00000000e+00  0.00000000e+00
  0.00000000e+00  0.00000000e+00  0.00000000e+00  0.00000000e+00
  0.00000000e+00  0.00000000e+00  0.00000000e+00  0.00000000e+00
  0.00000000e+00  0.00000000e+00  0.00000000e+00  0.00000000e+00
  0.00000000e+00  0.00000000e+00 -4.01057868e-08  1.18585887e-07
  0.00000000e+00  0.00000000e+00  0.00000000e+00  2.77162040e-06]","[[-1.24121277e-04  3.58159210e-04]
 [-1.21085501e-05 -2.33477506e-03]]",[],0.0,0.0
1787584085.4294724,0.4924161680124761,-0.610409105167848,0.14158984374110115,"[ 4.58122668e-06  7.11076552e-09  0.00000000e+00  0.00000000e+00
  0.00000000e+00 -2.89582977e-08  7.11076552e-09  3.80463965e-06
  0.00000000e+00  0.00000000e+00  0.00000000e+00  1.18485260e-07
  0.00000000e+00  0.00000000e+00  0.00000000e+00  0.00000000e+00
  0.00000000e+00  0.00000000e+00  0.00000000e+00  0.00000000e+00
  0.00000000e+00  0.00000000e+00  0.00000000e+00  0.00000000e+00
  0.00000000e+00  0.00000000e+00  0.00000000e+00  0.00000000e+00
  0.00000000e+00  0.00000000e+00 -2.89582977e-08  1.18485260e-07
  0.00000000e+00  0.00000000e+00  0.00000000e+00  2.27746547e-06]","[[-1.13903150e-04  2.99553725e-04]
 [-1.02678292e-05 -2.18333661e-03]]",[],0.0,0.0
1787584086.2076774,0.4924161680124761,-0.610409105167848,0.14158984374110115,"[ 4.58122668e-06  7.11076552e-09  0.00000000e+00  0.00000000e+00
  0.00000000e+00 -2.89582977e-08  7.11076552e-09  3.80463965e-06
  0.00000000e+00  0.00000000e+00  0.00000000e+00  1.18485260e-07
  0.00000000e+00  0.00000000e+00  0.00000000e+00  0.00000000e+00
  0.00000000e+00  0.00000000e+00  0.00000000e+00  0.00000000e+00
  0.00000000e+00  0.00000000e+00  0.00000000e+00  0.00000000e+00
  0.00000000e+00  0.00000000e+00  0.00000000e+00  0.00000000e+00
  0.00000000e+00  0.00000000e+00 -2.89582977e-08  1.18485260e-07
  0.00000000e+00  0.00000000e+00  0.00000000e+00  2.27746547e-06]","[[-1.13903150e-04  2.99553725e-04]
 [-1.02678292e-05 -2.18333661e-03]]",[],0.0,0.0
1787584086.2284799,0.4924161680124761,-0.610409105167848,0.14158984374110115,"[ 4.58122668e-06  7.11076552e-09  0.00000000e+00  0.00000000e+00
  0.00000000e+00 -2.89582977e-08  7.11076552e-09  3.80463965e-06
  0.00000000e+00  0.00000000e+00  0.00000000e+00  1.18485260e-07
  0.00000000e+00  0.00000000e+00  0.00000000e+00  0.00000000e+00
  0.00000000e+00  0.00000000e+00  0.00000000e+00  0.00000000e+00
  0.00000000e+00  0.00000000e+00  0.00000000e+00  0.00000000e+00
  0.00000000e+00  0.00000000e+00  0.00000000e+00  0.00000000e+00
  0.00000000e+00  0.00000000e+00 -2.89582977e-08  1.18485260e-07
  0.00000000e+00  0.00000000e+00  0.00000000e+00  2.27746547e-06]","[[-1.13903150e-04  2.99553725e-04]
 [-1.02678292e-05 -2.18333661e-03]]",[],0.0,0.0
1787584086.278997,0.49307540590466664,-0.6110290962102382,0.1357662579775982,"[ 4.38798232e-06  2.82983209e-08  0.00000000e+00  0.00000000e+00
  0.00000000e+00 -5.71387098e-09  2.82983209e-08  3.53007323e-06
  0.00000000e+00  0.00000000e+00  0.00000000e+00  1.38057424e-07
  0.00000000e+00  0.00000000e+00  0.00000000e+00  0.00000000e+00
  0.00000000e+00  0.00000000e+00  0.00000000e+00  0.00000000e+00
  0.00000000e+00  0.00000000e+00  0.00000000e+00  0.00000000e+00
  0.00000000e+00  0.00000000e+00  0.00000000e+00  0.00000000e+00
  0.00000000e+00  0.00000000e+00 -5.71387098e-09  1.38057424e-07
  0.00000000e+00  0.00000000e+00  0.00000000e+00  2.72303434e-06]","[[-1.13903150e-04  2.99553725e-04]
 [-1.02678292e-05 -2.18333661e-03]]",[],0.0,0.0
1787584087.0245545,0.49307540590466664,-0.6110290962102382,0.1357662579775982,"[ 4.38798232e-06  2.82983209e-08  0.00000000e+00  0.00000000e+00
  0.00000000e+00 -5.71387098e-09  2.82983209e-08  3.53007323e-06
  0.00000000e+00  0.00000000e+00  0.00000000e+00  1.38057424e-07
  0.00000000e+00  0.00000000e+00  0.00000000e+00  0.00000000e+00
  0.00000000e+00  0.00000000e+00  0.00000000e+00  0.00000000e+00
  0.00000000e+00  0.00000000e+00  0.00000000e+00  0.00000000e+00
  0.00000000e+00  0.00000000e+00  0.00000000e+00  0.00000000e+00
  0.00000000e+00  0.00000000e+00 -5.71387098e-09  1.38057424e-07
  0.00000000e+00  0.00000000e+00  0.00000000e+00  2.72303434e-06]","[[-1.08957436e-04  2.77655902e-04]
 [-1.15307207e-05 -2.06775356e-03]]",[],0.0,0.0
1787584087.0352688,0.49307540590466664,-0.6110290962102382,0.1357662579775982,"[ 4.38798232e-06  2.82983209e-08  0.00000000e+00  0.00000000e+00
  0.00000000e+00 -5.71387098e-09  2.82983209e-08  3.53007323e-06
  0.00000000e+00  0.00000000e+00  0.00000000e+00  1.38057424e-07
  0.00000000e+00  0.00000000e+00  0.00000000e+00  0.00000000e+00
  0.00000000e+00  0.00000000e+00  0.00000000e+00  0.00000000e+00
  0.00000000e+00  0.00000000e+00  0.00000000e+00  0.00000000e+00
  0.00000000e+00  0.00000000e+00  0.00000000e+00  0.00000000e+00
  0.00000000e+00  0.00000000e+00 -5.71387098e-09  1.38057424e-07
  0.00000000e+00  0.00000000e+00  0.00000000e+00  2.72303434e-06]","[[-1.08957436e-04  2.77655902e-04]
 [-1.15307207e-05 -2.06775356e-03]]",[],0.0,0.0
1787584087.7756069,0.49347747027075994,-0.6109685581111998,0.14352192193613256,"[ 4.20567958e-06  4.22043446e-08  0.00000000e+00  0.00000000e+00
  0.00000000e+00 -3.59753890e-09  4.22043446e-08  3.29694997e-06
  0.00000000e+00  0.00000000e+00  0.00000000e+00  8.56400991e-08
  0.00000000e+00  0.00000000e+00  0.00000000e+00  0.00000000e+00
  0.00000000e+00  0.00000000e+00  0.00000000e+00  0.00000000e+00
  0.00000000e+00  0.00000000e+00  0.00000000e+00  0.00000000e+00
  0.00000000e+00  0.00000000e+00  0.00000000e+00  0.00000000e+00
  0.00000000e+00  0.00000000e+00 -3.59753890e-09  8.56400991e-08
  0.00000000e+00  0.00000000e+00  0.00000000e+00  2.67402761e-06]","[[-1.04603512e-04  2.30422713e-04]
 [-1.02426219e-05 -1.86079145e-03]]",[],0.0,0.0
1787584087.79187,0.49347747027075994,-0.6109685581111998,0.14352192193613256,"[ 4.20567958e-06  4.22043446e-08  0.00000000e+00  0.00000000e+00
  0.00000000e+00 -3.59753890e-09  4.22043446e-08  3.29694997e-06
  0.00000000e+00  0.00000000e+00  0.00000000e+00  8.56400991e-08
  0.00000000e+00  0.00000000e+00  0.00000000e+00  0.00000000e+00
  0.00000000e+00  0.00000000e+00  0.00000000e+00  0.00000000e+00
  0.00000000e+00  0.00000000e+00  0.00000000e+00  0.00000000e+00
  0.00000000e+00  0.00000000e+00  0.00000000e+00  0.00000000e+00
  0.00000000e+00  0.00000000e+00 -3.59753890e-09  8.56400991e-08
  0.00000000e+00  0.00000000e+00  0.00000000e+00  2.67402761e-06]","[[-1.04603512e-04  2.30422713e-04]
 [-1.02426219e-05 -1.86079145e-03]]",[],0.0,0.0
1787584087.8277247,0.49347747027075994,-0.6109685581111998,0.14352192193613256,"[ 4.20567958e-06  4.22043446e-08  0.00000000e+00  0.00000000e+00
  0.00000000e+00 -3.59753890e-09  4.22043446e-08  3.29694997e-06
  0.00000000e+00  0.00000000e+00  0.00000000e+00  8.56400991e-08
  0.00000000e+00  0.00000000e+00  0.00000000e+00  0.00000000e+00
  0.00000000e+00  0.00000000e+00  0.00000000e+00  0.00000000e+00
  0.00000000e+00  0.00000000e+00  0.00000000e+00  0.00000000e+00
  0.00000000e+00  0.00000000e+00  0.00000000e+00  0.00000000e+00
  0.00000000e+00  0.00000000e+00 -3.59753890e-09  8.56400991e-08
  0.00000000e+00  0.00000000e+00  0.00000000e+00  2.67402761e-06]","[[-1.04603512e-04  2.30422713e-04]
 [-1.02426219e-05 -1.86079145e-03]]",[],0.0,0.0
1787584087.8768055,0.4940805434643992,-0.6111490148294341,0.14441853915583638,"[4.04107184e-06 5.31989031e-08 0.00000000e+00 0.00000000e+00
 0.00000000e+00 1.98185648e-08 5.31989031e-08 3.08430927e-06
 0.00000000e+00 0.00000000e+00 0.00000000e+00 7.16753526e-08
 0.00000000e+00 0.00000000e+00 0.00000000e+00 0.00000000e+00
 0.00000000e+00 0.00000000e+00 0.00000000e+00 0.00000000e+00
 0.00000000e+00 0.00000000e+00 0.00000000e+00 0.00000000e+00
 0.00000000e+00 0.00000000e+00 0.00000000e+00 0.00000000e+00
 0.00000000e+00 0.00000000e+00 1.98185648e-08 7.16753526e-08
 0.00000000e+00 0.00000000e+00 0.00000000e+00 2.62738933e-06]","[[-1.00321624e-04  2.17961656e-04]
 [-1.14756895e-05 -1.71338544e-03]]",[],0.0,0.0
1787584087.9302907,0.4940805434643992,-0.6111490148294341,0.14441853915583638,"[4.04107184e-06 5.31989031e-08 0.00000000e+00 0.00000000e+00
 0.00000000e+00 1.98185648e-08 5.31989031e-08 3.08430927e-06
 0.00000000e+00 0.00000000e+00 0.00000000e+00 7.16753526e-08
 0.00000000e+00 0.00000000e+00 0.00000000e+00 0.00000000e+00
 0.00000000e+00 0.00000000e+00 0.00000000e+00 0.00000000e+00
 0.00000000e+00 0.00000000e+00 0.00000000e+00 0.00000000e+00
 0.00000000e+00 0.00000000e+00 0.00000000e+00 0.00000000e+00
 0.00000000e+00 0.00000000e+00 1.98185648e-08 7.16753526e-08
 0.00000000e+00 0.00000000e+00 0.00000000e+00 2.62738933e-06]","[[-1.00321624e-04  2.17961656e-04]
 [-1.14756895e-05 -1.71338544e-03]]",[],0.0,0.0
1787584087.9782403,0.4940805434643992,-0.6111490148294341,0.14441853915583638,"[4.04107184e-06 5.31989031e-08 0.00000000e+00 0.00000000e+00
 0.00000000e+00 1.98185648e-08 5.31989031e-08 3.08430927e-06
 0.00000000e+00 0.00000000e+00 0.00000000e+00 7.16753526e-08
 0.00000000e+00 0.00000000e+00 0.00000000e+00 0.00000000e+00
 0.00000000e+00 0.00000000e+00 0.00000000e+00 0.00000000e+00
 0.00000000e+00 0.00000000e+00 0.00000000e+00 0.00000000e+00
 0.00000000e+00 0.00000000e+00 0.00000000e+00 0.00000000e+00
 0.00000000e+00 0.00000000e+00 1.98185648e-08 7.16753526e-08
 0.00000000e+00 0.00000000e+00 0.00000000e+00 2.62738933e-06]","[[-1.00321624e-04  2.17961656e-04]
 [-1.14756895e-05 -1.71338544e-03]]",[],0.0,0.0
1787584088.0534177,0.4940805434643992,-0.6111490148294341,0.14441853915583638,"[4.04107184e-06 5.31989031e-08 0.00000000e+00 0.00000000e+00
 0.00000000e+00 1.98185648e-08 5.31989031e-08 3.08430927e-06
 0.00000000e+00 0.00000000e+00 0.00000000e+00 7.16753526e-08
 0.00000000e+00 0.00000000e+00 0.00000000e+00 0.00000000e+00
 0.00000000e+00 0.00000000e+00 0.00000000e+00 0.00000000e+00
 0.00000000e+00 0.00000000e+00 0.00000000e+00 0.00000000e+00
 0.00000000e+00 0.00000000e+00 0.00000000e+00 0.00000000e+00
 0.00000000e+00 0.00000000e+00 1.98185648e-08 7.16753526e-08
 0.00000000e+00 0.00000000e+00 0.00000000e+00 2.62738933e-06]","[[-1.00321624e-04  2.17961656e-04]
 [-1.14756895e-05 -1.71338544e-03]]",[],0.0,0.0
1787584088.097933,0.4940805434643992,-0.6111490148294341,0.14441853915583638,"[4.04107184e-06 5.31989031e-08 0.00000000e+00 0.00000000e+00
 0.00000000e+00 1.98185648e-08 5.31989031e-08 3.08430927e-06
 0.00000000e+00 0.00000000e+00 0.00000000e+00 7.16753526e-08
 0.00000000e+00 0.00000000e+00 0.00000000e+00 0.00000000e+00
 0.00000000e+00 0.00000000e+00 0.00000000e+00 0.00000000e+00
 0.00000000e+00 0.00000000e+00 0.00000000e+00 0.00000000e+00
 0.00000000e+00 0.00000000e+00 0.00000000e+00 0.00000000e+00
 0.00000000e+00 0.00000000e+00 1.98185648e-08 7.16753526e-08
 0.00000000e+00 0.00000000e+00 0.00000000e+00 2.62738933e-06]","[[-1.00321624e-04  2.17961656e-04]
 [-1.14756895e-05 -1.71338544e-03]]",[],0.0,0.0
1787584088.1345859,0.4940805434643992,-0.6111490148294341,0.14441853915583638,"[4.04107184e-06 5.31989031e-08 0.00000000e+00 0.00000000e+00
 0.00000000e+00 1.98185648e-08 5.31989031e-08 3.08430927e-06
 0.00000000e+00 0.00000000e+00 0.00000000e+00 7.16753526e-08
 0.00000000e+00 0.00000000e+00 0.00000000e+00 0.00000000e+00
 0.00000000e+00 0.00000000e+00 0.00000000e+00 0.00000000e+00
 0.00000000e+00 0.00000000e+00 0.00000000e+00 0.00000000e+00
 0.00000000e+00 0.00000000e+00 0.00000000e+00 0.00000000e+00
 0.00000000e+00 0.00000000e+00 1.98185648e-08 7.16753526e-08
 0.00000000e+00 0.00000000e+00 0.00000000e+00 2.62738933e-06]","[[-1.00321624e-04  2.17961656e-04]
 [-1.14756895e-05 -1.71338544e-03]]",[],0.0,0.0
1787584088.7649326,0.4940805434643992,-0.6111490148294341,0.14441853915583638,"[4.04107184e-06 5.31989031e-08 0.00000000e+00 0.00000000e+00
 0.00000000e+00 1.98185648e-08 5.31989031e-08 3.08430927e-06
 0.00000000e+00 0.00000000e+00 0.00000000e+00 7.16753526e-08
 0.00000000e+00 0.00000000e+00 0.00000000e+00 0.00000000e+00
 0.00000000e+00 0.00000000e+00 0.00000000e+00 0.00000000e+00
 0.00000000e+00 0.00000000e+00 0.00000000e+00 0.00000000e+00
 0.00000000e+00 0.00000000e+00 0.00000000e+00 0.00000000e+00
 0.00000000e+00 0.00000000e+00 1.98185648e-08 7.16753526e-08
 0.00000000e+00 0.00000000e+00 0.00000000e+00 2.62738933e-06]","[[-1.00321624e-04  2.17961656e-04]
 [-1.14756895e-05 -1.71338544e-03]]",[],0.0,0.0
1787584088.7783196,0.4940805434643992,-0.6111490148294341,0.14441853915583638,"[4.04107184e-06 5.31989031e-08 0.00000000e+00 0.00000000e+00
 0.00000000e+00 1.98185648e-08 5.31989031e-08 3.08430927e-06
 0.00000000e+00 0.00000000e+00 0.00000000e+00 7.16753526e-08
 0.00000000e+00 0.00000000e+00 0.00000000e+00 0.00000000e+00
 0.00000000e+00 0.00000000e+00 0.00000000e+00 0.00000000e+00
 0.00000000e+00 0.00000000e+00 0.00000000e+00 0.00000000e+00
 0.00000000e+00 0.00000000e+00 0.00000000e+00 0.00000000e+00
 0.00000000e+00 0.00000000e+00 1.98185648e-08 7.16753526e-08
 0.00000000e+00 0.00000000e+00 0.00000000e+00 2.62738933e-06]","[[-1.00321624e-04  2.17961656e-04]
 [-1.14756895e-05 -1.71338544e-03]]",[],0.0,0.0
1787584088.8277273,0.4940250729255402,-0.6114002298006042,0.148419967248552,"[4.01877394e-06 8.05410402e-08 0.00000000e+00 0.00000000e+00
 0.00000000e+00 3.48855962e-09 8.05410402e-08 2.90142850e-06
 0.00000000e+00 0.00000000e+00 0.00000000e+00 1.02354956e-07
 0.00000000e+00 0.00000000e+00 0.00000000e+00 0.00000000e+00
 0.00000000e+00 0.00000000e+00 0.00000000e+00 0.00000000e+00
 0.00000000e+00 0.00000000e+00 0.00000000e+00 0.00000000e+00
 0.00000000e+00 0.00000000e+00 0.00000000e+00 0.00000000e+00
 0.00000000e+00 0.00000000e+00 3.48855962e-09 1.02354956e-07
 0.00000000e+00 0.00000000e+00 0.00000000e+00 2.80030075e-06]","[[-9.99838665e-05  2.05778312e-04]
 [-1.07111265e-05 -1.67725024e-03]]",[],0.0,0.0
1787584088.8772316,0.4940250729255402,-0.6114002298006042,0.148419967248552,"[4.01877394e-06 8.05410402e-08 0.00000000e+00 0.00000000e+00
 0.00000000e+00 3.48855962e-09 8.05410402e-08 2.90142850e-06
 0.00000000e+00 0.00000000e+00 0.00000000e+00 1.02354956e-07
 0.00000000e+00 0.00000000e+00 0.00000000e+00 0.00000000e+00
 0.00000000e+00 0.00000000e+00 0.00000000e+00 0.00000000e+00
 0.00000000e+00 0.00000000e+00 0.00000000e+00 0.00000000e+00
 0.00000000e+00 0.00000000e+00 0.00000000e+00 0.00000000e+00
 0.00000000e+00 0.00000000e+00 3.48855962e-09 1.02354956e-07
 0.00000000e+00 0.00000000e+00 0.00000000e+00 2.80030075e-06]","[[-9.99838665e-05  2.05778312e-04]
 [-1.07111265e-05 -1.67725024e-03]]",[],0.0,0.0
1787584088.9284286,0.4940250729255402,-0.6114002298006042,0.148419967248552,"[4.01877394e-06 8.05410402e-08 0.00000000e+00 0.00000000e+00
 0.00000000e+00 3.48855962e-09 8.05410402e-08 2.90142850e-06
 0.00000000e+00 0.00000000e+00 0.00000000e+00 1.02354956e-07
 0.00000000e+00 0.00000000e+00 0.00000000e+00 0.00000000e+00
 0.00000000e+00 0.00000000e+00 0.00000000e+00 0.00000000e+00
 0.00000000e+00 0.00000000e+00 0.00000000e+00 0.00000000e+00
 0.00000000e+00 0.00000000e+00 0.00000000e+00 0.00000000e+00
 0.00000000e+00 0.00000000e+00 3.48855962e-09 1.02354956e-07
 0.00000000e+00 0.00000000e+00 0.00000000e+00 2.80030075e-06]","[[-9.99838665e-05  2.05778312e-04]
 [-1.07111265e-05 -1.67725024e-03]]",[],0.0,0.0
1787584089.6354814,0.4940250729255402,-0.6114002298006042,0.148419967248552,"[4.01877394e-06 8.05410402e-08 0.00000000e+00 0.00000000e+00
 0.00000000e+00 3.48855962e-09 8.05410402e-08 2.90142850e-06
 0.00000000e+00 0.00000000e+00 0.00000000e+00 1.02354956e-07
 0.00000000e+00 0.00000000e+00 0.00000000e+00 0.00000000e+00
 0.00000000e+00 0.00000000e+00 0.00000000e+00 0.00000000e+00
 0.00000000e+00 0.00000000e+00 0.00000000e+00 0.00000000e+00
 0.00000000e+00 0.00000000e+00 0.00000000e+00 0.00000000e+00
 0.00000000e+00 0.00000000e+00 3.48855962e-09 1.02354956e-07
 0.00000000e+00 0.00000000e+00 0.00000000e+00 2.80030075e-06]","[[-9.99838665e-05  2.05778312e-04]
 [-1.07111265e-05 -1.67725024e-03]]",[],0.0,0.0
1787584089.6832733,0.4940250729255402,-0.6114002298006042,0.148419967248552,"[4.01877394e-06 8.05410402e-08 0.00000000e+00 0.00000000e+00
 0.00000000e+00 3.48855962e-09 8.05410402e-08 2.90142850e-06
 0.00000000e+00 0.00000000e+00 0.00000000e+00 1.02354956e-07
 0.00000000e+00 0.00000000e+00 0.00000000e+00 0.00000000e+00
 0.00000000e+00 0.00000000e+00 0.00000000e+00 0.00000000e+00
 0.00000000e+00 0.00000000e+00 0.00000000e+00 0.00000000e+00
 0.00000000e+00 0.00000000e+00 0.00000000e+00 0.00000000e+00
 0.00000000e+00 0.00000000e+00 3.48855962e-09 1.02354956e-07
 0.00000000e+00 0.00000000e+00 0.00000000e+00 2.80030075e-06]","[[-9.99838665e-05  2.05778312e-04]
 [-1.07111265e-05 -1.67725024e-03]]",[],0.0,0.0
1787584089.7281737,0.4940250729255402,-0.6114002298006042,0.148419967248552,"[4.01877394e-06 8.05410402e-08 0.00000000e+00 0.00000000e+00
 0.00000000e+00 3.48855962e-09 8.05410402e-08 2.90142850e-06
 0.00000000e+00 0.00000000e+00 0.00000000e+00 1.02354956e-07
 0.00000000e+00 0.00000000e+00 0.00000000e+00 0.00000000e+00
 0.00000000e+00 0.00000000e+00 0.00000000e+00 0.00000000e+00
 0.00000000e+00 0.00000000e+00 0.00000000e+00 0.00000000e+00
 0.00000000e+00 0.00000000e+00 0.00000000e+00 0.00000000e+00
 0.00000000e+00 0.00000000e+00 3.48855962e-09 1.02354956e-07
 0.00000000e+00 0.00000000e+00 0.00000000e+00 2.80030075e-06]","[[-9.99838665e-05  2.05778312e-04]
 [-1.07111265e-05 -1.67725024e-03]]",[],0.0,0.0
1787584089.778964,0.49456477231252677,-0.6118595760239071,0.14083236010059563,"[3.92908321e-06 9.89531585e-08 0.00000000e+00 0.00000000e+00
 0.00000000e+00 8.78441030e-09 9.89531585e-08 2.73521095e-06
 0.00000000e+00 0.00000000e+00 0.00000000e+00 7.95684785e-08
 0.00000000e+00 0.00000000e+00 0.00000000e+00 0.00000000e+00
 0.00000000e+00 0.00000000e+00 0.00000000e+00 0.00000000e+00
 0.00000000e+00 0.00000000e+00 0.00000000e+00 0.00000000e+00
 0.00000000e+00 0.00000000e+00 0.00000000e+00 0.00000000e+00
 0.00000000e+00 0.00000000e+00 8.78441030e-09 7.95684785e-08
 0.00000000e+00 0.00000000e+00 0.00000000e+00 2.67921920e-06]","[[-9.78417004e-05  1.75298197e-04]
 [-1.04587213e-05 -1.55190686e-03]]",[],0.0,0.0
1787584089.8285592,0.49456477231252677,-0.6118595760239071,0.14083236010059563,"[3.92908321e-06 9.89531585e-08 0.00000000e+00 0.00000000e+00
 0.00000000e+00 8.78441030e-09 9.89531585e-08 2.73521095e-06
 0.00000000e+00 0.00000000e+00 0.00000000e+00 7.95684785e-08
 0.00000000e+00 0.00000000e+00 0.00000000e+00 0.00000000e+00
 0.00000000e+00 0.00000000e+00 0.00000000e+00 0.00000000e+00
 0.00000000e+00 0.00000000e+00 0.00000000e+00 0.00000000e+00
 0.00000000e+00 0.00000000e+00 0.00000000e+00 0.00000000e+00
 0.00000000e+00 0.00000000e+00 8.78441030e-09 7.95684785e-08
 0.00000000e+00 0.00000000e+00 0.00000000e+00 2.67921920e-06]","[[-9.78417004e-05  1.75298197e-04]
 [-1.04587213e-05 -1.55190686e-03]]",[],0.0,0.0
1787584089.8794599,0.49456477231252677,-0.6118595760239071,0.14083236010059563,"[3.92908321e-06 9.89531585e-08 0.00000000e+00 0.00000000e+00
 0.00000000e+00 8.78441030e-09 9.89531585e-08 2.73521095e-06
 0.00000000e+00 0.00000000e+00 0.00000000e+00 7.95684785e-08
 0.00000000e+00 0.00000000e+00 0.00000000e+00 0.00000000e+00
 0.00000000e+00 0.00000000e+00 0.00000000e+00 0.00000000e+00
 0.00000000e+00 0.00000000e+00 0.00000000e+00 0.00000000e+00
 0.00000000e+00 0.00000000e+00 0.00000000e+00 0.00000000e+00
 0.00000000e+00 0.00000000e+00 8.78441030e-09 7.95684785e-08
 0.00000000e+00 0.00000000e+00 0.00000000e+00 2.67921920e-06]","[[-9.78417004e-05  1.75298197e-04]
 [-1.04587213e-05 -1.55190686e-03]]",[],0.0,0.0
1787584089.9269104,0.49456477231252677,-0.6118595760239071,0.14083236010059563,"[3.92908321e-06 9.89531585e-08 0.00000000e+00 0.00000000e+00
 0.00000000e+00 8.78441030e-09 9.89531585e-08 2.73521095e-06
 0.00000000e+00 0.00000000e+00 0.00000000e+00 7.95684785e-08
 0.00000000e+00 0.00000000e+00 0.00000000e+00 0.00000000e+00
 0.00000000e+00 0.00000000e+00 0.00000000e+00 0.00000000e+00
 0.00000000e+00 0.00000000e+00 0.00000000e+00 0.00000000e+00
 0.00000000e+00 0.00000000e+00 0.00000000e+00 0.00000000e+00
 0.00000000e+00 0.00000000e+00 8.78441030e-09 7.95684785e-08
 0.00000000e+00 0.00000000e+00 0.00000000e+00 2.67921920e-06]","[[-9.78417004e-05  1.75298197e-04]
 [-1.04587213e-05 -1.55190686e-03]]",[],0.0,0.0
1787584089.9768245,0.49456477231252677,-0.6118595760239071,0.14083236010059563,"[3.92908321e-06 9.89531585e-08 0.00000000e+00 0.00000000e+00
 0.00000000e+00 8.78441030e-09 9.89531585e-08 2.73521095e-06
 0.00000000e+00 0.00000000e+00 0.00000000e+00 7.95684785e-08
 0.00000000e+00 0.00000000e+00 0.00000000e+00 0.00000000e+00
 0.00000000e+00 0.00000000e+00 0.00000000e+00 0.00000000e+00
 0.00000000e+00 0.00000000e+00 0.00000000e+00 0.00000000e+00
 0.00000000e+00 0.00000000e+00 0.00000000e+00 0.00000000e+00
 0.00000000e+00 0.00000000e+00 8.78441030e-09 7.95684785e-08
 0.00000000e+00 0.00000000e+00 0.00000000e+00 2.67921920e-06]","[[-9.78417004e-05  1.75298197e-04]
 [-1.04587213e-05 -1.55190686e-03]]",[],0.0,0.0
1787584090.028973,0.49456477231252677,-0.6118595760239071,0.14083236010059563,"[3.92908321e-06 9.89531585e-08 0.00000000e+00 0.00000000e+00
 0.00000000e+00 8.78441030e-09 9.89531585e-08 2.73521095e-06
 0.00000000e+00 0.00000000e+00 0.00000000e+00 7.95684785e-08
 0.00000000e+00 0.00000000e+00 0.00000000e+00 0.00000000e+00
 0.00000000e+00 0.00000000e+00 0.00000000e+00 0.00000000e+00
 0.00000000e+00 0.00000000e+00 0.00000000e+00 0.00000000e+00
 0.00000000e+00 0.00000000e+00 0.00000000e+00 0.00000000e+00
 0.00000000e+00 0.00000000e+00 8.78441030e-09 7.95684785e-08
 0.00000000e+00 0.00000000e+00 0.00000000e+00 2.67921920e-06]","[[-9.78417004e-05  1.75298197e-04]
 [-1.04587213e-05 -1.55190686e-03]]",[],0.0,0.0
1787584090.0774615,0.49456477231252677,-0.6118595760239071,0.14083236010059563,"[3.92908321e-06 9.89531585e-08 0.00000000e+00 0.00000000e+00
 0.00000000e+00 8.78441030e-09 9.89531585e-08 2.73521095e-06
 0.00000000e+00 0.00000000e+00 0.00000000e+00 7.95684785e-08
 0.00000000e+00 0.00000000e+00 0.00000000e+00 0.00000000e+00
 0.00000000e+00 0.00000000e+00 0.00000000e+00 0.00000000e+00
 0.00000000e+00 0.00000000e+00 0.00000000e+00 0.00000000e+00
 0.00000000e+00 0.00000000e+00 0.00000000e+00 0.00000000e+00
 0.00000000e+00 0.00000000e+00 8.78441030e-09 7.95684785e-08
 0.00000000e+00 0.00000000e+00 0.00000000e+00 2.67921920e-06]","[[-9.78417004e-05  1.75298197e-04]
 [-1.04587213e-05 -1.55190686e-03]]",[],0.0,0.0
1787584090.127163,0.49456477231252677,-0.6118595760239071,0.14083236010059563,"[3.92908321e-06 9.89531585e-08 0.00000000e+00 0.00000000e+00
 0.00000000e+00 8.78441030e-09 9.89531585e-08 2.73521095e-06
 0.00000000e+00 0.00000000e+00 0.00000000e+00 7.95684785e-08
 0.00000000e+00 0.00000000e+00 0.00000000e+00 0.00000000e+00
 0.00000000e+00 0.00000000e+00 0.00000000e+00 0.00000000e+00
 0.00000000e+00 0.00000000e+00 0.00000000e+00 0.00000000e+00
 0.00000000e+00 0.00000000e+00 0.00000000e+00 0.00000000e+00
 0.00000000e+00 0.00000000e+00 8.78441030e-09 7.95684785e-08
 0.00000000e+00 0.00000000e+00 0.00000000e+00 2.67921920e-06]","[[-9.78417004e-05  1.75298197e-04]
 [-1.04587213e-05 -1.55190686e-03]]",[],0.0,0.0
1787584090.184414,0.49456477231252677,-0.6118595760239071,0.14083236010059563,"[3.92908321e-06 9.89531585e-08 0.00000000e+00 0.00000000e+00
 0.00000000e+00 8.78441030e-09 9.89531585e-08 2.73521095e-06
 0.00000000e+00 0.00000000e+00 0.00000000e+00 7.95684785e-08
 0.00000000e+00 0.00000000e+00 0.00000000e+00 0.00000000e+00
 0.00000000e+00 0.00000000e+00 0.00000000e+00 0.00000000e+00
 0.00000000e+00 0.00000000e+00 0.00000000e+00 0.00000000e+00
 0.00000000e+00 0.00000000e+00 0.00000000e+00 0.00000000e+00
 0.00000000e+00 0.00000000e+00 8.78441030e-09 7.95684785e-08
 0.00000000e+00 0.00000000e+00 0.00000000e+00 2.67921920e-06]","[[-9.78417004e-05  1.75298197e-04]
 [-1.04587213e-05 -1.55190686e-03]]",[],0.0,0.0
1787584090.2282052,0.49456477231252677,-0.6118595760239071,0.14083236010059563,"[3.92908321e-06 9.89531585e-08 0.00000000e+00 0.00000000e+00
 0.00000000e+00 8.78441030e-09 9.89531585e-08 2.73521095e-06
 0.00000000e+00 0.00000000e+00 0.00000000e+00 7.95684785e-08
 0.00000000e+00 0.00000000e+00 0.00000000e+00 0.00000000e+00
 0.00000000e+00 0.00000000e+00 0.00000000e+00 0.00000000e+00
 0.00000000e+00 0.00000000e+00 0.00000000e+00 0.00000000e+00
 0.00000000e+00 0.00000000e+00 0.00000000e+00 0.00000000e+00
 0.00000000e+00 0.00000000e+00 8.78441030e-09 7.95684785e-08
 0.00000000e+00 0.00000000e+00 0.00000000e+00 2.67921920e-06]","[[-9.78417004e-05  1.75298197e-04]
 [-1.04587213e-05 -1.55190686e-03]]",[],0.0,0.0
1787584090.280012,0.49456477231252677,-0.6118595760239071,0.14083236010059563,"[3.92908321e-06 9.89531585e-08 0.00000000e+00 0.00000000e+00
 0.00000000e+00 8.78441030e-09 9.89531585e-08 2.73521095e-06
 0.00000000e+00 0.00000000e+00 0.00000000e+00 7.95684785e-08
 0.00000000e+00 0.00000000e+00 0.00000000e+00 0.00000000e+00
 0.00000000e+00 0.00000000e+00 0.00000000e+00 0.00000000e+00
 0.00000000e+00 0.00000000e+00 0.00000000e+00 0.00000000e+00
 0.00000000e+00 0.00000000e+00 0.00000000e+00 0.00000000e+00
 0.00000000e+00 0.00000000e+00 8.78441030e-09 7.95684785e-08
 0.00000000e+00 0.00000000e+00 0.00000000e+00 2.67921920e-06]","[[-9.78417004e-05  1.75298197e-04]
 [-1.04587213e-05 -1.55190686e-03]]",[],0.0,0.0
1787584090.3267958,0.49456477231252677,-0.6118595760239071,0.14083236010059563,"[3.92908321e-06 9.89531585e-08 0.00000000e+00 0.00000000e+00
 0.00000000e+00 8.78441030e-09 9.89531585e-08 2.73521095e-06
 0.00000000e+00 0.00000000e+00 0.00000000e+00 7.95684785e-08
 0.00000000e+00 0.00000000e+00 0.00000000e+00 0.00000000e+00
 0.00000000e+00 0.00000000e+00 0.00000000e+00 0.00000000e+00
 0.00000000e+00 0.00000000e+00 0.00000000e+00 0.00000000e+00
 0.00000000e+00 0.00000000e+00 0.00000000e+00 0.00000000e+00
 0.00000000e+00 0.00000000e+00 8.78441030e-09 7.95684785e-08
 0.00000000e+00 0.00000000e+00 0.00000000e+00 2.67921920e-06]","[[-9.78417004e-05  1.75298197e-04]
 [-1.04587213e-05 -1.55190686e-03]]",[],0.0,0.0
1787584090.3784566,0.49456477231252677,-0.6118595760239071,0.14083236010059563,"[3.92908321e-06 9.89531585e-08 0.00000000e+00 0.00000000e+00
 0.00000000e+00 8.78441030e-09 9.89531585e-08 2.73521095e-06
 0.00000000e+00 0.00000000e+00 0.00000000e+00 7.95684785e-08
 0.00000000e+00 0.00000000e+00 0.00000000e+00 0.00000000e+00
 0.00000000e+00 0.00000000e+00 0.00000000e+00 0.00000000e+00
 0.00000000e+00 0.00000000e+00 0.00000000e+00 0.00000000e+00
 0.00000000e+00 0.00000000e+00 0.00000000e+00 0.00000000e+00
 0.00000000e+00 0.00000000e+00 8.78441030e-09 7.95684785e-08
 0.00000000e+00 0.00000000e+00 0.00000000e+00 2.67921920e-06]","[[-9.78417004e-05  1.75298197e-04]
 [-1.04587213e-05 -1.55190686e-03]]",[],0.0,0.0
1787584090.428485,0.49456477231252677,-0.6118595760239071,0.14083236010059563,"[3.92908321e-06 9.89531585e-08 0.00000000e+00 0.00000000e+00
 0.00000000e+00 8.78441030e-09 9.89531585e-08 2.73521095e-06
 0.00000000e+00 0.00000000e+00 0.00000000e+00 7.95684785e-08
 0.00000000e+00 0.00000000e+00 0.00000000e+00 0.00000000e+00
 0.00000000e+00 0.00000000e+00 0.00000000e+00 0.00000000e+00
 0.00000000e+00 0.00000000e+00 0.00000000e+00 0.00000000e+00
 0.00000000e+00 0.00000000e+00 0.00000000e+00 0.00000000e+00
 0.00000000e+00 0.00000000e+00 8.78441030e-09 7.95684785e-08
 0.00000000e+00 0.00000000e+00 0.00000000e+00 2.67921920e-06]","[[-9.78417004e-05  1.75298197e-04]
 [-1.04587213e-05 -1.55190686e-03]]",[],0.0,0.0
1787584090.4786766,0.49456477231252677,-0.6118595760239071,0.14083236010059563,"[3.92908321e-06 9.89531585e-08 0.00000000e+00 0.00000000e+00
 0.00000000e+00 8.78441030e-09 9.89531585e-08 2.73521095e-06
 0.00000000e+00 0.00000000e+00 0.00000000e+00 7.95684785e-08
 0.00000000e+00 0.00000000e+00 0.00000000e+00 0.00000000e+00
 0.00000000e+00 0.00000000e+00 0.00000000e+00 0.00000000e+00
 0.00000000e+00 0.00000000e+00 0.00000000e+00 0.00000000e+00
 0.00000000e+00 0.00000000e+00 0.00000000e+00 0.00000000e+00
 0.00000000e+00 0.00000000e+00 8.78441030e-09 7.95684785e-08
 0.00000000e+00 0.00000000e+00 0.00000000e+00 2.67921920e-06]","[[-9.78417004e-05  1.75298197e-04]
 [-1.04587213e-05 -1.55190686e-03]]",[],0.0,0.0
1787584090.5403764,0.49456477231252677,-0.6118595760239071,0.14083236010059563,"[3.92908321e-06 9.89531585e-08 0.00000000e+00 0.00000000e+00
 0.00000000e+00 8.78441030e-09 9.89531585e-08 2.73521095e-06
 0.00000000e+00 0.00000000e+00 0.00000000e+00 7.95684785e-08
 0.00000000e+00 0.00000000e+00 0.00000000e+00 0.00000000e+00
 0.00000000e+00 0.00000000e+00 0.00000000e+00 0.00000000e+00
 0.00000000e+00 0.00000000e+00 0.00000000e+00 0.00000000e+00
 0.00000000e+00 0.00000000e+00 0.00000000e+00 0.00000000e+00
 0.00000000e+00 0.00000000e+00 8.78441030e-09 7.95684785e-08
 0.00000000e+00 0.00000000e+00 0.00000000e+00 2.67921920e-06]","[[-9.78417004e-05  1.75298197e-04]
 [-1.04587213e-05 -1.55190686e-03]]",[],0.0,0.0
1787584090.5846643,0.49456477231252677,-0.6118595760239071,0.14083236010059563,"[3.92908321e-06 9.89531585e-08 0.00000000e+00 0.00000000e+00
 0.00000000e+00 8.78441030e-09 9.89531585e-08 2.73521095e-06
 0.00000000e+00 0.00000000e+00 0.00000000e+00 7.95684785e-08
 0.00000000e+00 0.00000000e+00 0.00000000e+00 0.00000000e+00
 0.00000000e+00 0.00000000e+00 0.00000000e+00 0.00000000e+00
 0.00000000e+00 0.00000000e+00 0.00000000e+00 0.00000000e+00
 0.00000000e+00 0.00000000e+00 0.00000000e+00 0.00000000e+00
 0.00000000e+00 0.00000000e+00 8.78441030e-09 7.95684785e-08
 0.00000000e+00 0.00000000e+00 0.00000000e+00 2.67921920e-06]","[[-9.78417004e-05  1.75298197e-04]
 [-1.04587213e-05 -1.55190686e-03]]",[],0.0,0.0
1787584090.627975,0.49456477231252677,-0.6118595760239071,0.14083236010059563,"[3.92908321e-06 9.89531585e-08 0.00000000e+00 0.00000000e+00
 0.00000000e+00 8.78441030e-09 9.89531585e-08 2.73521095e-06
 0.00000000e+00 0.00000000e+00 0.00000000e+00 7.95684785e-08
 0.00000000e+00 0.00000000e+00 0.00000000e+00 0.00000000e+00
 0.00000000e+00 0.00000000e+00 0.00000000e+00 0.00000000e+00
 0.00000000e+00 0.00000000e+00 0.00000000e+00 0.00000000e+00
 0.00000000e+00 0.00000000e+00 0.00000000e+00 0.00000000e+00
 0.00000000e+00 0.00000000e+00 8.78441030e-09 7.95684785e-08
 0.00000000e+00 0.00000000e+00 0.00000000e+00 2.67921920e-06]","[[-9.78417004e-05  1.75298197e-04]
 [-1.04587213e-05 -1.55190686e-03]]",[],0.0,0.0
1787584090.67773,0.49456477231252677,-0.6118595760239071,0.14083236010059563,"[3.92908321e-06 9.89531585e-08 0.00000000e+00 0.00000000e+00
 0.00000000e+00 8.78441030e-09 9.89531585e-08 2.73521095e-06
 0.00000000e+00 0.00000000e+00 0.00000000e+00 7.95684785e-08
 0.00000000e+00 0.00000000e+00 0.00000000e+00 0.00000000e+00
 0.00000000e+00 0.00000000e+00 0.00000000e+00 0.00000000e+00
 0.00000000e+00 0.00000000e+00 0.00000000e+00 0.00000000e+00
 0.00000000e+00 0.00000000e+00 0.00000000e+00 0.00000000e+00
 0.00000000e+00 0.00000000e+00 8.78441030e-09 7.95684785e-08
 0.00000000e+00 0.00000000e+00 0.00000000e+00 2.67921920e-06]","[[-9.78417004e-05  1.75298197e-04]
 [-1.04587213e-05 -1.55190686e-03]]",[],0.0,0.0
1787584090.7318003,0.49456477231252677,-0.6118595760239071,0.14083236010059563,"[3.92908321e-06 9.89531585e-08 0.00000000e+00 0.00000000e+00
 0.00000000e+00 8.78441030e-09 9.89531585e-08 2.73521095e-06
 0.00000000e+00 0.00000000e+00 0.00000000e+00 7.95684785e-08
 0.00000000e+00 0.00000000e+00 0.00000000e+00 0.00000000e+00
 0.00000000e+00 0.00000000e+00 0.00000000e+00 0.00000000e+00
 0.00000000e+00 0.00000000e+00 0.00000000e+00 0.00000000e+00
 0.00000000e+00 0.00000000e+00 0.00000000e+00 0.00000000e+00
 0.00000000e+00 0.00000000e+00 8.78441030e-09 7.95684785e-08
 0.00000000e+00 0.00000000e+00 0.00000000e+00 2.67921920e-06]","[[-9.78417004e-05  1.75298197e-04]
 [-1.04587213e-05 -1.55190686e-03]]",[],0.0,0.0
1787584090.7772164,0.49456477231252677,-0.6118595760239071,0.14083236010059563,"[3.92908321e-06 9.89531585e-08 0.00000000e+00 0.00000000e+00
 0.00000000e+00 8.78441030e-09 9.89531585e-08 2.73521095e-06
 0.00000000e+00 0.00000000e+00 0.00000000e+00 7.95684785e-08
 0.00000000e+00 0.00000000e+00 0.00000000e+00 0.00000000e+00
 0.00000000e+00 0.00000000e+00 0.00000000e+00 0.00000000e+00
 0.00000000e+00 0.00000000e+00 0.00000000e+00 0.00000000e+00
 0.00000000e+00 0.00000000e+00 0.00000000e+00 0.00000000e+00
 0.00000000e+00 0.00000000e+00 8.78441030e-09 7.95684785e-08
 0.00000000e+00 0.00000000e+00 0.00000000e+00 2.67921920e-06]","[[-9.78417004e-05  1.75298197e-04]
 [-1.04587213e-05 -1.55190686e-03]]",[],0.0,0.0
1787584090.8282235,0.49486724589993347,-0.6123366138413894,0.13225710543017224,"[4.01538282e-06 1.35407707e-07 0.00000000e+00 0.00000000e+00
 0.00000000e+00 1.69327322e-09 1.35407707e-07 2.60261618e-06
 0.00000000e+00 0.00000000e+00 0.00000000e+00 8.00464093e-08
 0.00000000e+00 0.00000000e+00 0.00000000e+00 0.00000000e+00
 0.00000000e+00 0.00000000e+00 0.00000000e+00 0.00000000e+00
 0.00000000e+00 0.00000000e+00 0.00000000e+00 0.00000000e+00
 0.00000000e+00 0.00000000e+00 0.00000000e+00 0.00000000e+00
 0.00000000e+00 0.00000000e+00 1.69327322e-09 8.00464093e-08
 0.00000000e+00 0.00000000e+00 0.00000000e+00 2.94235950e-06]","[[-1.00036532e-04  1.86766855e-04]
 [-1.13779593e-05 -1.48185784e-03]]",[],0.0,0.0
1787584090.8766403,0.49486724589993347,-0.6123366138413894,0.13225710543017224,"[4.01538282e-06 1.35407707e-07 0.00000000e+00 0.00000000e+00
 0.00000000e+00 1.69327322e-09 1.35407707e-07 2.60261618e-06
 0.00000000e+00 0.00000000e+00 0.00000000e+00 8.00464093e-08
 0.00000000e+00 0.00000000e+00 0.00000000e+00 0.00000000e+00
 0.00000000e+00 0.00000000e+00 0.00000000e+00 0.00000000e+00
 0.00000000e+00 0.00000000e+00 0.00000000e+00 0.00000000e+00
 0.00000000e+00 0.00000000e+00 0.00000000e+00 0.00000000e+00
 0.00000000e+00 0.00000000e+00 1.69327322e-09 8.00464093e-08
 0.00000000e+00 0.00000000e+00 0.00000000e+00 2.94235950e-06]","[[-1.00036532e-04  1.86766855e-04]
 [-1.13779593e-05 -1.48185784e-03]]",[],0.0,0.0
1787584090.9267244,0.49486724589993347,-0.6123366138413894,0.13225710543017224,"[4.01538282e-06 1.35407707e-07 0.00000000e+00 0.00000000e+00
 0.00000000e+00 1.69327322e-09 1.35407707e-07 2.60261618e-06
 0.00000000e+00 0.00000000e+00 0.00000000e+00 8.00464093e-08
 0.00000000e+00 0.00000000e+00 0.00000000e+00 0.00000000e+00
 0.00000000e+00 0.00000000e+00 0.00000000e+00 0.00000000e+00
 0.00000000e+00 0.00000000e+00 0.00000000e+00 0.00000000e+00
 0.00000000e+00 0.00000000e+00 0.00000000e+00 0.00000000e+00
 0.00000000e+00 0.00000000e+00 1.69327322e-09 8.00464093e-08
 0.00000000e+00 0.00000000e+00 0.00000000e+00 2.94235950e-06]","[[-1.00036532e-04  1.86766855e-04]
 [-1.13779593e-05 -1.48185784e-03]]",[],0.0,0.0
1787584090.978166,0.49486724589993347,-0.6123366138413894,0.13225710543017224,"[4.01538282e-06 1.35407707e-07 0.00000000e+00 0.00000000e+00
 0.00000000e+00 1.69327322e-09 1.35407707e-07 2.60261618e-06
 0.00000000e+00 0.00000000e+00 0.00000000e+00 8.00464093e-08
 0.00000000e+00 0.00000000e+00 0.00000000e+00 0.00000000e+00
 0.00000000e+00 0.00000000e+00 0.00000000e+00 0.00000000e+00
 0.00000000e+00 0.00000000e+00 0.00000000e+00 0.00000000e+00
 0.00000000e+00 0.00000000e+00 0.00000000e+00 0.00000000e+00
 0.00000000e+00 0.00000000e+00 1.69327322e-09 8.00464093e-08
 0.00000000e+00 0.00000000e+00 0.00000000e+00 2.94235950e-06]","[[-1.00036532e-04  1.86766855e-04]
 [-1.13779593e-05 -1.48185784e-03]]",[],0.0,0.0
1787584091.0568066,0.49486724589993347,-0.6123366138413894,0.13225710543017224,"[4.01538282e-06 1.35407707e-07 0.00000000e+00 0.00000000e+00
 0.00000000e+00 1.69327322e-09 1.35407707e-07 2.60261618e-06
 0.00000000e+00 0.00000000e+00 0.00000000e+00 8.00464093e-08
 0.00000000e+00 0.00000000e+00 0.00000000e+00 0.00000000e+00
 0.00000000e+00 0.00000000e+00 0.00000000e+00 0.00000000e+00
 0.00000000e+00 0.00000000e+00 0.00000000e+00 0.00000000e+00
 0.00000000e+00 0.00000000e+00 0.00000000e+00 0.00000000e+00
 0.00000000e+00 0.00000000e+00 1.69327322e-09 8.00464093e-08
 0.00000000e+00 0.00000000e+00 0.00000000e+00 2.94235950e-06]","[[-1.00036532e-04  1.86766855e-04]
 [-1.13779593e-05 -1.48185784e-03]]",[],0.0,0.0
1787584091.0929387,0.49486724589993347,-0.6123366138413894,0.13225710543017224,"[4.01538282e-06 1.35407707e-07 0.00000000e+00 0.00000000e+00
 0.00000000e+00 1.69327322e-09 1.35407707e-07 2.60261618e-06
 0.00000000e+00 0.00000000e+00 0.00000000e+00 8.00464093e-08
 0.00000000e+00 0.00000000e+00 0.00000000e+00 0.00000000e+00
 0.00000000e+00 0.00000000e+00 0.00000000e+00 0.00000000e+00
 0.00000000e+00 0.00000000e+00 0.00000000e+00 0.00000000e+00
 0.00000000e+00 0.00000000e+00 0.00000000e+00 0.00000000e+00
 0.00000000e+00 0.00000000e+00 1.69327322e-09 8.00464093e-08
 0.00000000e+00 0.00000000e+00 0.00000000e+00 2.94235950e-06]","[[-1.00036532e-04  1.86766855e-04]
 [-1.13779593e-05 -1.48185784e-03]]",[],0.0,0.0
1787584091.1282566,0.49486724589993347,-0.6123366138413894,0.13225710543017224,"[4.01538282e-06 1.35407707e-07 0.00000000e+00 0.00000000e+00
 0.00000000e+00 1.69327322e-09 1.35407707e-07 2.60261618e-06
 0.00000000e+00 0.00000000e+00 0.00000000e+00 8.00464093e-08
 0.00000000e+00 0.00000000e+00 0.00000000e+00 0.00000000e+00
 0.00000000e+00 0.00000000e+00 0.00000000e+00 0.00000000e+00
 0.00000000e+00 0.00000000e+00 0.00000000e+00 0.00000000e+00
 0.00000000e+00 0.00000000e+00 0.00000000e+00 0.00000000e+00
 0.00000000e+00 0.00000000e+00 1.69327322e-09 8.00464093e-08
 0.00000000e+00 0.00000000e+00 0.00000000e+00 2.94235950e-06]","[[-1.00036532e-04  1.86766855e-04]
 [-1.13779593e-05 -1.48185784e-03]]",[],0.0,0.0
1787584091.1814232,0.49486724589993347,-0.6123366138413894,0.13225710543017224,"[4.01538282e-06 1.35407707e-07 0.00000000e+00 0.00000000e+00
 0.00000000e+00 1.69327322e-09 1.35407707e-07 2.60261618e-06
 0.00000000e+00 0.00000000e+00 0.00000000e+00 8.00464093e-08
 0.00000000e+00 0.00000000e+00 0.00000000e+00 0.00000000e+00
 0.00000000e+00 0.00000000e+00 0.00000000e+00 0.00000000e+00
 0.00000000e+00 0.00000000e+00 0.00000000e+00 0.00000000e+00
 0.00000000e+00 0.00000000e+00 0.00000000e+00 0.00000000e+00
 0.00000000e+00 0.00000000e+00 1.69327322e-09 8.00464093e-08
 0.00000000e+00 0.00000000e+00 0.00000000e+00 2.94235950e-06]","[[-1.00036532e-04  1.86766855e-04]
 [-1.13779593e-05 -1.48185784e-03]]",[],0.0,0.0
1787584091.2298486,0.49486724589993347,-0.6123366138413894,0.13225710543017224,"[4.01538282e-06 1.35407707e-07 0.00000000e+00 0.00000000e+00
 0.00000000e+00 1.69327322e-09 1.35407707e-07 2.60261618e-06
 0.00000000e+00 0.00000000e+00 0.00000000e+00 8.00464093e-08
 0.00000000e+00 0.00000000e+00 0.00000000e+00 0.00000000e+00
 0.00000000e+00 0.00000000e+00 0.00000000e+00 0.00000000e+00
 0.00000000e+00 0.00000000e+00 0.00000000e+00 0.00000000e+00
 0.00000000e+00 0.00000000e+00 0.00000000e+00 0.00000000e+00
 0.00000000e+00 0.00000000e+00 1.69327322e-09 8.00464093e-08
 0.00000000e+00 0.00000000e+00 0.00000000e+00 2.94235950e-06]","[[-1.00036532e-04  1.86766855e-04]
 [-1.13779593e-05 -1.48185784e-03]]",[],0.0,0.0
1787584091.2778816,0.49486724589993347,-0.6123366138413894,0.13225710543017224,"[4.01538282e-06 1.35407707e-07 0.00000000e+00 0.00000000e+00
 0.00000000e+00 1.69327322e-09 1.35407707e-07 2.60261618e-06
 0.00000000e+00 0.00000000e+00 0.00000000e+00 8.00464093e-08
 0.00000000e+00 0.00000000e+00 0.00000000e+00 0.00000000e+00
 0.00000000e+00 0.00000000e+00 0.00000000e+00 0.00000000e+00
 0.00000000e+00 0.00000000e+00 0.00000000e+00 0.00000000e+00
 0.00000000e+00 0.00000000e+00 0.00000000e+00 0.00000000e+00
 0.00000000e+00 0.00000000e+00 1.69327322e-09 8.00464093e-08
 0.00000000e+00 0.00000000e+00 0.00000000e+00 2.94235950e-06]","[[-1.00036532e-04  1.86766855e-04]
 [-1.13779593e-05 -1.48185784e-03]]",[],0.0,0.0
1787584091.3280401,0.49486724589993347,-0.6123366138413894,0.13225710543017224,"[4.01538282e-06 1.35407707e-07 0.00000000e+00 0.00000000e+00
 0.00000000e+00 1.69327322e-09 1.35407707e-07 2.60261618e-06
 0.00000000e+00 0.00000000e+00 0.00000000e+00 8.00464093e-08
 0.00000000e+00 0.00000000e+00 0.00000000e+00 0.00000000e+00
 0.00000000e+00 0.00000000e+00 0.00000000e+00 0.00000000e+00
 0.00000000e+00 0.00000000e+00 0.00000000e+00 0.00000000e+00
 0.00000000e+00 0.00000000e+00 0.00000000e+00 0.00000000e+00
 0.00000000e+00 0.00000000e+00 1.69327322e-09 8.00464093e-08
 0.00000000e+00 0.00000000e+00 0.00000000e+00 2.94235950e-06]","[[-1.00036532e-04  1.86766855e-04]
 [-1.13779593e-05 -1.48185784e-03]]",[],0.0,0.0
1787584091.3794208,0.49486724589993347,-0.6123366138413894,0.13225710543017224,"[4.01538282e-06 1.35407707e-07 0.00000000e+00 0.00000000e+00
 0.00000000e+00 1.69327322e-09 1.35407707e-07 2.60261618e-06
 0.00000000e+00 0.00000000e+00 0.00000000e+00 8.00464093e-08
 0.00000000e+00 0.00000000e+00 0.00000000e+00 0.00000000e+00
 0.00000000e+00 0.00000000e+00 0.00000000e+00 0.00000000e+00
 0.00000000e+00 0.00000000e+00 0.00000000e+00 0.00000000e+00
 0.00000000e+00 0.00000000e+00 0.00000000e+00 0.00000000e+00
 0.00000000e+00 0.00000000e+00 1.69327322e-09 8.00464093e-08
 0.00000000e+00 0.00000000e+00 0.00000000e+00 2.94235950e-06]","[[-1.00036532e-04  1.86766855e-04]
 [-1.13779593e-05 -1.48185784e-03]]",[],0.0,0.0
1787584091.4298375,0.49486724589993347,-0.6123366138413894,0.13225710543017224,"[4.01538282e-06 1.35407707e-07 0.00000000e+00 0.00000000e+00
 0.00000000e+00 1.69327322e-09 1.35407707e-07 2.60261618e-06
 0.00000000e+00 0.00000000e+00 0.00000000e+00 8.00464093e-08
 0.00000000e+00 0.00000000e+00 0.00000000e+00 0.00000000e+00
 0.00000000e+00 0.00000000e+00 0.00000000e+00 0.00000000e+00
 0.00000000e+00 0.00000000e+00 0.00000000e+00 0.00000000e+00
 0.00000000e+00 0.00000000e+00 0.00000000e+00 0.00000000e+00
 0.00000000e+00 0.00000000e+00 1.69327322e-09 8.00464093e-08
 0.00000000e+00 0.00000000e+00 0.00000000e+00 2.94235950e-06]","[[-1.00036532e-04  1.86766855e-04]
 [-1.13779593e-05 -1.48185784e-03]]",[],0.0,0.0
1787584091.479573,0.49486724589993347,-0.6123366138413894,0.13225710543017224,"[4.01538282e-06 1.35407707e-07 0.00000000e+00 0.00000000e+00
 0.00000000e+00 1.69327322e-09 1.35407707e-07 2.60261618e-06
 0.00000000e+00 0.00000000e+00 0.00000000e+00 8.00464093e-08
 0.00000000e+00 0.00000000e+00 0.00000000e+00 0.00000000e+00
 0.00000000e+00 0.00000000e+00 0.00000000e+00 0.00000000e+00
 0.00000000e+00 0.00000000e+00 0.00000000e+00 0.00000000e+00
 0.00000000e+00 0.00000000e+00 0.00000000e+00 0.00000000e+00
 0.00000000e+00 0.00000000e+00 1.69327322e-09 8.00464093e-08
 0.00000000e+00 0.00000000e+00 0.00000000e+00 2.94235950e-06]","[[-1.00036532e-04  1.86766855e-04]
 [-1.13779593e-05 -1.48185784e-03]]",[],0.0,0.0
1787584091.530588,0.49486724589993347,-0.6123366138413894,0.13225710543017224,"[4.01538282e-06 1.35407707e-07 0.00000000e+00 0.00000000e+00
 0.00000000e+00 1.69327322e-09 1.35407707e-07 2.60261618e-06
 0.00000000e+00 0.00000000e+00 0.00000000e+00 8.00464093e-08
 0.00000000e+00 0.00000000e+00 0.00000000e+00 0.00000000e+00
 0.00000000e+00 0.00000000e+00 0.00000000e+00 0.00000000e+00
 0.00000000e+00 0.00000000e+00 0.00000000e+00 0.00000000e+00
 0.00000000e+00 0.00000000e+00 0.00000000e+00 0.00000000e+00
 0.00000000e+00 0.00000000e+00 1.69327322e-09 8.00464093e-08
 0.00000000e+00 0.00000000e+00 0.00000000e+00 2.94235950e-06]","[[-1.00036532e-04  1.86766855e-04]
 [-1.13779593e-05 -1.48185784e-03]]",[],0.0,0.0
1787584091.5887911,0.49486724589993347,-0.6123366138413894,0.13225710543017224,"[4.01538282e-06 1.35407707e-07 0.00000000e+00 0.00000000e+00
 0.00000000e+00 1.69327322e-09 1.35407707e-07 2.60261618e-06
 0.00000000e+00 0.00000000e+00 0.00000000e+00 8.00464093e-08
 0.00000000e+00 0.00000000e+00 0.00000000e+00 0.00000000e+00
 0.00000000e+00 0.00000000e+00 0.00000000e+00 0.00000000e+00
 0.00000000e+00 0.00000000e+00 0.00000000e+00 0.00000000e+00
 0.00000000e+00 0.00000000e+00 0.00000000e+00 0.00000000e+00
 0.00000000e+00 0.00000000e+00 1.69327322e-09 8.00464093e-08
 0.00000000e+00 0.00000000e+00 0.00000000e+00 2.94235950e-06]","[[-1.00036532e-04  1.86766855e-04]
 [-1.13779593e-05 -1.48185784e-03]]",[],0.0,0.0
1787584091.6275527,0.49486724589993347,-0.6123366138413894,0.13225710543017224,"[4.01538282e-06 1.35407707e-07 0.00000000e+00 0.00000000e+00
 0.00000000e+00 1.69327322e-09 1.35407707e-07 2.60261618e-06
 0.00000000e+00 0.00000000e+00 0.00000000e+00 8.00464093e-08
 0.00000000e+00 0.00000000e+00 0.00000000e+00 0.00000000e+00
 0.00000000e+00 0.00000000e+00 0.00000000e+00 0.00000000e+00
 0.00000000e+00 0.00000000e+00 0.00000000e+00 0.00000000e+00
 0.00000000e+00 0.00000000e+00 0.00000000e+00 0.00000000e+00
 0.00000000e+00 0.00000000e+00 1.69327322e-09 8.00464093e-08
 0.00000000e+00 0.00000000e+00 0.00000000e+00 2.94235950e-06]","[[-1.00036532e-04  1.86766855e-04]
 [-1.13779593e-05 -1.48185784e-03]]",[],0.0,0.0
1787584091.6778822,0.49486724589993347,-0.6123366138413894,0.13225710543017224,"[4.01538282e-06 1.35407707e-07 0.00000000e+00 0.00000000e+00
 0.00000000e+00 1.69327322e-09 1.35407707e-07 2.60261618e-06
 0.00000000e+00 0.00000000e+00 0.00000000e+00 8.00464093e-08
 0.00000000e+00 0.00000000e+00 0.00000000e+00 0.00000000e+00
 0.00000000e+00 0.00000000e+00 0.00000000e+00 0.00000000e+00
 0.00000000e+00 0.00000000e+00 0.00000000e+00 0.00000000e+00
 0.00000000e+00 0.00000000e+00 0.00000000e+00 0.00000000e+00
 0.00000000e+00 0.00000000e+00 1.69327322e-09 8.00464093e-08
 0.00000000e+00 0.00000000e+00 0.00000000e+00 2.94235950e-06]","[[-1.00036532e-04  1.86766855e-04]
 [-1.13779593e-05 -1.48185784e-03]]",[],0.0,0.0
1787584091.7304337,0.49486724589993347,-0.6123366138413894,0.13225710543017224,"[4.01538282e-06 1.35407707e-07 0.00000000e+00 0.00000000e+00
 0.00000000e+00 1.69327322e-09 1.35407707e-07 2.60261618e-06
 0.00000000e+00 0.00000000e+00 0.00000000e+00 8.00464093e-08
 0.00000000e+00 0.00000000e+00 0.00000000e+00 0.00000000e+00
 0.00000000e+00 0.00000000e+00 0.00000000e+00 0.00000000e+00
 0.00000000e+00 0.00000000e+00 0.00000000e+00 0.00000000e+00
 0.00000000e+00 0.00000000e+00 0.00000000e+00 0.00000000e+00
 0.00000000e+00 0.00000000e+00 1.69327322e-09 8.00464093e-08
 0.00000000e+00 0.00000000e+00 0.00000000e+00 2.94235950e-06]","[[-1.00036532e-04  1.86766855e-04]
 [-1.13779593e-05 -1.48185784e-03]]",[],0.0,0.0
1787584091.7786567,0.49486724589993347,-0.6123366138413894,0.13225710543017224,"[4.01538282e-06 1.35407707e-07 0.00000000e+00 0.00000000e+00
 0.00000000e+00 1.69327322e-09 1.35407707e-07 2.60261618e-06
 0.00000000e+00 0.00000000e+00 0.00000000e+00 8.00464093e-08
 0.00000000e+00 0.00000000e+00 0.00000000e+00 0.00000000e+00
 0.00000000e+00 0.00000000e+00 0.00000000e+00 0.00000000e+00
 0.00000000e+00 0.00000000e+00 0.00000000e+00 0.00000000e+00
 0.00000000e+00 0.00000000e+00 0.00000000e+00 0.00000000e+00
 0.00000000e+00 0.00000000e+00 1.69327322e-09 8.00464093e-08
 0.00000000e+00 0.00000000e+00 0.00000000e+00 2.94235950e-06]","[[-1.00036532e-04  1.86766855e-04]
 [-1.13779593e-05 -1.48185784e-03]]",[],0.0,0.0
1787584091.8446739,0.4954891578381922,-0.6121966895014588,0.13219294653218713,"[4.00605598e-06 1.49662906e-07 0.00000000e+00 0.00000000e+00
 0.00000000e+00 9.22675184e-09 1.49662906e-07 2.47824619e-06
 0.00000000e+00 0.00000000e+00 0.00000000e+00 7.11258475e-08
 0.00000000e+00 0.00000000e+00 0.00000000e+00 0.00000000e+00
 0.00000000e+00 0.00000000e+00 0.00000000e+00 0.00000000e+00
 0.00000000e+00 0.00000000e+00 0.00000000e+00 0.00000000e+00
 0.00000000e+00 0.00000000e+00 0.00000000e+00 0.00000000e+00
 0.00000000e+00 0.00000000e+00 9.22675184e-09 7.11258475e-08
 0.00000000e+00 0.00000000e+00 0.00000000e+00 2.86187441e-06]","[[-9.98443093e-05  1.65796801e-04]
 [-1.13819158e-05 -1.38977432e-03]]",[],0.0,0.0
1787584091.877919,0.4954891578381922,-0.6121966895014588,0.13219294653218713,"[4.00605598e-06 1.49662906e-07 0.00000000e+00 0.00000000e+00
 0.00000000e+00 9.22675184e-09 1.49662906e-07 2.47824619e-06
 0.00000000e+00 0.00000000e+00 0.00000000e+00 7.11258475e-08
 0.00000000e+00 0.00000000e+00 0.00000000e+00 0.00000000e+00
 0.00000000e+00 0.00000000e+00 0.00000000e+00 0.00000000e+00
 0.00000000e+00 0.00000000e+00 0.00000000e+00 0.00000000e+00
 0.00000000e+00 0.00000000e+00 0.00000000e+00 0.00000000e+00
 0.00000000e+00 0.00000000e+00 9.22675184e-09 7.11258475e-08
 0.00000000e+00 0.00000000e+00 0.00000000e+00 2.86187441e-06]","[[-9.98443093e-05  1.65796801e-04]
 [-1.13819158e-05 -1.38977432e-03]]",[],0.0,0.0
1787584091.9301805,0.4954891578381922,-0.6121966895014588,0.13219294653218713,"[4.00605598e-06 1.49662906e-07 0.00000000e+00 0.00000000e+00
 0.00000000e+00 9.22675184e-09 1.49662906e-07 2.47824619e-06
 0.00000000e+00 0.00000000e+00 0.00000000e+00 7.11258475e-08
 0.00000000e+00 0.00000000e+00 0.00000000e+00 0.00000000e+00
 0.00000000e+00 0.00000000e+00 0.00000000e+00 0.00000000e+00
 0.00000000e+00 0.00000000e+00 0.00000000e+00 0.00000000e+00
 0.00000000e+00 0.00000000e+00 0.00000000e+00 0.00000000e+00
 0.00000000e+00 0.00000000e+00 9.22675184e-09 7.11258475e-08
 0.00000000e+00 0.00000000e+00 0.00000000e+00 2.86187441e-06]","[[-9.98443093e-05  1.65796801e-04]
 [-1.13819158e-05 -1.38977432e-03]]",[],0.0,0.0
1787584091.9797502,0.4954891578381922,-0.6121966895014588,0.13219294653218713,"[4.00605598e-06 1.49662906e-07 0.00000000e+00 0.00000000e+00
 0.00000000e+00 9.22675184e-09 1.49662906e-07 2.47824619e-06
 0.00000000e+00 0.00000000e+00 0.00000000e+00 7.11258475e-08
 0.00000000e+00 0.00000000e+00 0.00000000e+00 0.00000000e+00
 0.00000000e+00 0.00000000e+00 0.00000000e+00 0.00000000e+00
 0.00000000e+00 0.00000000e+00 0.00000000e+00 0.00000000e+00
 0.00000000e+00 0.00000000e+00 0.00000000e+00 0.00000000e+00
 0.00000000e+00 0.00000000e+00 9.22675184e-09 7.11258475e-08
 0.00000000e+00 0.00000000e+00 0.00000000e+00 2.86187441e-06]","[[-9.98443093e-05  1.65796801e-04]
 [-1.13819158e-05 -1.38977432e-03]]",[],0.0,0.0
1787584092.0295532,0.4954891578381922,-0.6121966895014588,0.13219294653218713,"[4.00605598e-06 1.49662906e-07 0.00000000e+00 0.00000000e+00
 0.00000000e+00 9.22675184e-09 1.49662906e-07 2.47824619e-06
 0.00000000e+00 0.00000000e+00 0.00000000e+00 7.11258475e-08
 0.00000000e+00 0.00000000e+00 0.00000000e+00 0.00000000e+00
 0.00000000e+00 0.00000000e+00 0.00000000e+00 0.00000000e+00
 0.00000000e+00 0.00000000e+00 0.00000000e+00 0.00000000e+00
 0.00000000e+00 0.00000000e+00 0.00000000e+00 0.00000000e+00
 0.00000000e+00 0.00000000e+00 9.22675184e-09 7.11258475e-08
 0.00000000e+00 0.00000000e+00 0.00000000e+00 2.86187441e-06]","[[-9.98443093e-05  1.65796801e-04]
 [-1.13819158e-05 -1.38977432e-03]]",[],0.0,0.0
1787584092.0765934,0.4954891578381922,-0.6121966895014588,0.13219294653218713,"[4.00605598e-06 1.49662906e-07 0.00000000e+00 0.00000000e+00
 0.00000000e+00 9.22675184e-09 1.49662906e-07 2.47824619e-06
 0.00000000e+00 0.00000000e+00 0.00000000e+00 7.11258475e-08
 0.00000000e+00 0.00000000e+00 0.00000000e+00 0.00000000e+00
 0.00000000e+00 0.00000000e+00 0.00000000e+00 0.00000000e+00
 0.00000000e+00 0.00000000e+00 0.00000000e+00 0.00000000e+00
 0.00000000e+00 0.00000000e+00 0.00000000e+00 0.00000000e+00
 0.00000000e+00 0.00000000e+00 9.22675184e-09 7.11258475e-08
 0.00000000e+00 0.00000000e+00 0.00000000e+00 2.86187441e-06]","[[-9.98443093e-05  1.65796801e-04]
 [-1.13819158e-05 -1.38977432e-03]]",[],0.0,0.0
1787584092.1270583,0.4954891578381922,-0.6121966895014588,0.13219294653218713,"[4.00605598e-06 1.49662906e-07 0.00000000e+00 0.00000000e+00
 0.00000000e+00 9.22675184e-09 1.49662906e-07 2.47824619e-06
 0.00000000e+00 0.00000000e+00 0.00000000e+00 7.11258475e-08
 0.00000000e+00 0.00000000e+00 0.00000000e+00 0.00000000e+00
 0.00000000e+00 0.00000000e+00 0.00000000e+00 0.00000000e+00
 0.00000000e+00 0.00000000e+00 0.00000000e+00 0.00000000e+00
 0.00000000e+00 0.00000000e+00 0.00000000e+00 0.00000000e+00
 0.00000000e+00 0.00000000e+00 9.22675184e-09 7.11258475e-08
 0.00000000e+00 0.00000000e+00 0.00000000e+00 2.86187441e-06]","[[-9.98443093e-05  1.65796801e-04]
 [-1.13819158e-05 -1.38977432e-03]]",[],0.0,0.0
1787584092.1790848,0.4954891578381922,-0.6121966895014588,0.13219294653218713,"[4.00605598e-06 1.49662906e-07 0.00000000e+00 0.00000000e+00
 0.00000000e+00 9.22675184e-09 1.49662906e-07 2.47824619e-06
 0.00000000e+00 0.00000000e+00 0.00000000e+00 7.11258475e-08
 0.00000000e+00 0.00000000e+00 0.00000000e+00 0.00000000e+00
 0.00000000e+00 0.00000000e+00 0.00000000e+00 0.00000000e+00
 0.00000000e+00 0.00000000e+00 0.00000000e+00 0.00000000e+00
 0.00000000e+00 0.00000000e+00 0.00000000e+00 0.00000000e+00
 0.00000000e+00 0.00000000e+00 9.22675184e-09 7.11258475e-08
 0.00000000e+00 0.00000000e+00 0.00000000e+00 2.86187441e-06]","[[-9.98443093e-05  1.65796801e-04]
 [-1.13819158e-05 -1.38977432e-03]]",[],0.0,0.0
1787584092.2284253,0.4954891578381922,-0.6121966895014588,0.13219294653218713,"[4.00605598e-06 1.49662906e-07 0.00000000e+00 0.00000000e+00
 0.00000000e+00 9.22675184e-09 1.49662906e-07 2.47824619e-06
 0.00000000e+00 0.00000000e+00 0.00000000e+00 7.11258475e-08
 0.00000000e+00 0.00000000e+00 0.00000000e+00 0.00000000e+00
 0.00000000e+00 0.00000000e+00 0.00000000e+00 0.00000000e+00
 0.00000000e+00 0.00000000e+00 0.00000000e+00 0.00000000e+00
 0.00000000e+00 0.00000000e+00 0.00000000e+00 0.00000000e+00
 0.00000000e+00 0.00000000e+00 9.22675184e-09 7.11258475e-08
 0.00000000e+00 0.00000000e+00 0.00000000e+00 2.86187441e-06]","[[-9.98443093e-05  1.65796801e-04]
 [-1.13819158e-05 -1.38977432e-03]]",[],0.0,0.0
1787584092.2781262,0.4954891578381922,-0.6121966895014588,0.13219294653218713,"[4.00605598e-06 1.49662906e-07 0.00000000e+00 0.00000000e+00
 0.00000000e+00 9.22675184e-09 1.49662906e-07 2.47824619e-06
 0.00000000e+00 0.00000000e+00 0.00000000e+00 7.11258475e-08
 0.00000000e+00 0.00000000e+00 0.00000000e+00 0.00000000e+00
 0.00000000e+00 0.00000000e+00 0.00000000e+00 0.00000000e+00
 0.00000000e+00 0.00000000e+00 0.00000000e+00 0.00000000e+00
 0.00000000e+00 0.00000000e+00 0.00000000e+00 0.00000000e+00
 0.00000000e+00 0.00000000e+00 9.22675184e-09 7.11258475e-08
 0.00000000e+00 0.00000000e+00 0.00000000e+00 2.86187441e-06]","[[-9.98443093e-05  1.65796801e-04]
 [-1.13819158e-05 -1.38977432e-03]]",[],0.0,0.0
1787584092.3463979,0.4954891578381922,-0.6121966895014588,0.13219294653218713,"[4.00605598e-06 1.49662906e-07 0.00000000e+00 0.00000000e+00
 0.00000000e+00 9.22675184e-09 1.49662906e-07 2.47824619e-06
 0.00000000e+00 0.00000000e+00 0.00000000e+00 7.11258475e-08
 0.00000000e+00 0.00000000e+00 0.00000000e+00 0.00000000e+00
 0.00000000e+00 0.00000000e+00 0.00000000e+00 0.00000000e+00
 0.00000000e+00 0.00000000e+00 0.00000000e+00 0.00000000e+00
 0.00000000e+00 0.00000000e+00 0.00000000e+00 0.00000000e+00
 0.00000000e+00 0.00000000e+00 9.22675184e-09 7.11258475e-08
 0.00000000e+00 0.00000000e+00 0.00000000e+00 2.86187441e-06]","[[-9.98443093e-05  1.65796801e-04]
 [-1.13819158e-05 -1.38977432e-03]]",[],0.0,0.0
1787584092.3817072,0.4954891578381922,-0.6121966895014588,0.13219294653218713,"[4.00605598e-06 1.49662906e-07 0.00000000e+00 0.00000000e+00
 0.00000000e+00 9.22675184e-09 1.49662906e-07 2.47824619e-06
 0.00000000e+00 0.00000000e+00 0.00000000e+00 7.11258475e-08
 0.00000000e+00 0.00000000e+00 0.00000000e+00 0.00000000e+00
 0.00000000e+00 0.00000000e+00 0.00000000e+00 0.00000000e+00
 0.00000000e+00 0.00000000e+00 0.00000000e+00 0.00000000e+00
 0.00000000e+00 0.00000000e+00 0.00000000e+00 0.00000000e+00
 0.00000000e+00 0.00000000e+00 9.22675184e-09 7.11258475e-08
 0.00000000e+00 0.00000000e+00 0.00000000e+00 2.86187441e-06]","[[-9.98443093e-05  1.65796801e-04]
 [-1.13819158e-05 -1.38977432e-03]]",[],0.0,0.0
1787584092.43602,0.4954891578381922,-0.6121966895014588,0.13219294653218713,"[4.00605598e-06 1.49662906e-07 0.00000000e+00 0.00000000e+00
 0.00000000e+00 9.22675184e-09 1.49662906e-07 2.47824619e-06
 0.00000000e+00 0.00000000e+00 0.00000000e+00 7.11258475e-08
 0.00000000e+00 0.00000000e+00 0.00000000e+00 0.00000000e+00
 0.00000000e+00 0.00000000e+00 0.00000000e+00 0.00000000e+00
 0.00000000e+00 0.00000000e+00 0.00000000e+00 0.00000000e+00
 0.00000000e+00 0.00000000e+00 0.00000000e+00 0.00000000e+00
 0.00000000e+00 0.00000000e+00 9.22675184e-09 7.11258475e-08
 0.00000000e+00 0.00000000e+00 0.00000000e+00 2.86187441e-06]","[[-9.98443093e-05  1.65796801e-04]
 [-1.13819158e-05 -1.38977432e-03]]",[],0.0,0.0
1787584092.4782434,0.4954891578381922,-0.6121966895014588,0.13219294653218713,"[4.00605598e-06 1.49662906e-07 0.00000000e+00 0.00000000e+00
 0.00000000e+00 9.22675184e-09 1.49662906e-07 2.47824619e-06
 0.00000000e+00 0.00000000e+00 0.00000000e+00 7.11258475e-08
 0.00000000e+00 0.00000000e+00 0.00000000e+00 0.00000000e+00
 0.00000000e+00 0.00000000e+00 0.00000000e+00 0.00000000e+00
 0.00000000e+00 0.00000000e+00 0.00000000e+00 0.00000000e+00
 0.00000000e+00 0.00000000e+00 0.00000000e+00 0.00000000e+00
 0.00000000e+00 0.00000000e+00 9.22675184e-09 7.11258475e-08
 0.00000000e+00 0.00000000e+00 0.00000000e+00 2.86187441e-06]","[[-9.98443093e-05  1.65796801e-04]
 [-1.13819158e-05 -1.38977432e-03]]",[],0.0,0.0
1787584092.527294,0.4954891578381922,-0.6121966895014588,0.13219294653218713,"[4.00605598e-06 1.49662906e-07 0.00000000e+00 0.00000000e+00
 0.00000000e+00 9.22675184e-09 1.49662906e-07 2.47824619e-06
 0.00000000e+00 0.00000000e+00 0.00000000e+00 7.11258475e-08
 0.00000000e+00 0.00000000e+00 0.00000000e+00 0.00000000e+00
 0.00000000e+00 0.00000000e+00 0.00000000e+00 0.00000000e+00
 0.00000000e+00 0.00000000e+00 0.00000000e+00 0.00000000e+00
 0.00000000e+00 0.00000000e+00 0.00000000e+00 0.00000000e+00
 0.00000000e+00 0.00000000e+00 9.22675184e-09 7.11258475e-08
 0.00000000e+00 0.00000000e+00 0.00000000e+00 2.86187441e-06]","[[-9.98443093e-05  1.65796801e-04]
 [-1.13819158e-05 -1.38977432e-03]]",[],0.0,0.0
1787584092.5768082,0.4954891578381922,-0.6121966895014588,0.13219294653218713,"[4.00605598e-06 1.49662906e-07 0.00000000e+00 0.00000000e+00
 0.00000000e+00 9.22675184e-09 1.49662906e-07 2.47824619e-06
 0.00000000e+00 0.00000000e+00 0.00000000e+00 7.11258475e-08
 0.00000000e+00 0.00000000e+00 0.00000000e+00 0.00000000e+00
 0.00000000e+00 0.00000000e+00 0.00000000e+00 0.00000000e+00
 0.00000000e+00 0.00000000e+00 0.00000000e+00 0.00000000e+00
 0.00000000e+00 0.00000000e+00 0.00000000e+00 0.00000000e+00
 0.00000000e+00 0.00000000e+00 9.22675184e-09 7.11258475e-08
 0.00000000e+00 0.00000000e+00 0.00000000e+00 2.86187441e-06]","[[-9.98443093e-05  1.65796801e-04]
 [-1.13819158e-05 -1.38977432e-03]]",[],0.0,0.0
1787584092.6473417,0.4954891578381922,-0.6121966895014588,0.13219294653218713,"[4.00605598e-06 1.49662906e-07 0.00000000e+00 0.00000000e+00
 0.00000000e+00 9.22675184e-09 1.49662906e-07 2.47824619e-06
 0.00000000e+00 0.00000000e+00 0.00000000e+00 7.11258475e-08
 0.00000000e+00 0.00000000e+00 0.00000000e+00 0.00000000e+00
 0.00000000e+00 0.00000000e+00 0.00000000e+00 0.00000000e+00
 0.00000000e+00 0.00000000e+00 0.00000000e+00 0.00000000e+00
 0.00000000e+00 0.00000000e+00 0.00000000e+00 0.00000000e+00
 0.00000000e+00 0.00000000e+00 9.22675184e-09 7.11258475e-08
 0.00000000e+00 0.00000000e+00 0.00000000e+00 2.86187441e-06]","[[-9.98443093e-05  1.65796801e-04]
 [-1.13819158e-05 -1.38977432e-03]]",[],0.0,0.0
1787584092.6814144,0.4954891578381922,-0.6121966895014588,0.13219294653218713,"[4.00605598e-06 1.49662906e-07 0.00000000e+00 0.00000000e+00
 0.00000000e+00 9.22675184e-09 1.49662906e-07 2.47824619e-06
 0.00000000e+00 0.00000000e+00 0.00000000e+00 7.11258475e-08
 0.00000000e+00 0.00000000e+00 0.00000000e+00 0.00000000e+00
 0.00000000e+00 0.00000000e+00 0.00000000e+00 0.00000000e+00
 0.00000000e+00 0.00000000e+00 0.00000000e+00 0.00000000e+00
 0.00000000e+00 0.00000000e+00 0.00000000e+00 0.00000000e+00
 0.00000000e+00 0.00000000e+00 9.22675184e-09 7.11258475e-08
 0.00000000e+00 0.00000000e+00 0.00000000e+00 2.86187441e-06]","[[-9.98443093e-05  1.65796801e-04]
 [-1.13819158e-05 -1.38977432e-03]]",[],0.0,0.0
1787584092.7278504,0.4954891578381922,-0.6121966895014588,0.13219294653218713,"[4.00605598e-06 1.49662906e-07 0.00000000e+00 0.00000000e+00
 0.00000000e+00 9.22675184e-09 1.49662906e-07 2.47824619e-06
 0.00000000e+00 0.00000000e+00 0.00000000e+00 7.11258475e-08
 0.00000000e+00 0.00000000e+00 0.00000000e+00 0.00000000e+00
 0.00000000e+00 0.00000000e+00 0.00000000e+00 0.00000000e+00
 0.00000000e+00 0.00000000e+00 0.00000000e+00 0.00000000e+00
 0.00000000e+00 0.00000000e+00 0.00000000e+00 0.00000000e+00
 0.00000000e+00 0.00000000e+00 9.22675184e-09 7.11258475e-08
 0.00000000e+00 0.00000000e+00 0.00000000e+00 2.86187441e-06]","[[-9.98443093e-05  1.65796801e-04]
 [-1.13819158e-05 -1.38977432e-03]]",[],0.0,0.0
1787584092.7767506,0.4954891578381922,-0.6121966895014588,0.13219294653218713,"[4.00605598e-06 1.49662906e-07 0.00000000e+00 0.00000000e+00
 0.00000000e+00 9.22675184e-09 1.49662906e-07 2.47824619e-06
 0.00000000e+00 0.00000000e+00 0.00000000e+00 7.11258475e-08
 0.00000000e+00 0.00000000e+00 0.00000000e+00 0.00000000e+00
 0.00000000e+00 0.00000000e+00 0.00000000e+00 0.00000000e+00
 0.00000000e+00 0.00000000e+00 0.00000000e+00 0.00000000e+00
 0.00000000e+00 0.00000000e+00 0.00000000e+00 0.00000000e+00
 0.00000000e+00 0.00000000e+00 9.22675184e-09 7.11258475e-08
 0.00000000e+00 0.00000000e+00 0.00000000e+00 2.86187441e-06]","[[-9.98443093e-05  1.65796801e-04]
 [-1.13819158e-05 -1.38977432e-03]]",[],0.0,0.0
1787584092.8346572,0.4960131349485053,-0.6125290881552724,0.12923947308585682,"[4.00439448e-06 1.67598561e-07 0.00000000e+00 0.00000000e+00
 0.00000000e+00 1.65171436e-09 1.67598561e-07 2.36037862e-06
 0.00000000e+00 0.00000000e+00 0.00000000e+00 8.22754195e-08
 0.00000000e+00 0.00000000e+00 0.00000000e+00 0.00000000e+00
 0.00000000e+00 0.00000000e+00 0.00000000e+00 0.00000000e+00
 0.00000000e+00 0.00000000e+00 0.00000000e+00 0.00000000e+00
 0.00000000e+00 0.00000000e+00 0.00000000e+00 0.00000000e+00
 0.00000000e+00 0.00000000e+00 1.65171436e-09 8.22754195e-08
 0.00000000e+00 0.00000000e+00 0.00000000e+00 2.78987416e-06]","[[-1.00032292e-04  1.17830675e-04]
 [-1.00172057e-05 -1.35822141e-03]]",[],0.0,0.0
1787584092.8808117,0.4960131349485053,-0.6125290881552724,0.12923947308585682,"[4.00439448e-06 1.67598561e-07 0.00000000e+00 0.00000000e+00
 0.00000000e+00 1.65171436e-09 1.67598561e-07 2.36037862e-06
 0.00000000e+00 0.00000000e+00 0.00000000e+00 8.22754195e-08
 0.00000000e+00 0.00000000e+00 0.00000000e+00 0.00000000e+00
 0.00000000e+00 0.00000000e+00 0.00000000e+00 0.00000000e+00
 0.00000000e+00 0.00000000e+00 0.00000000e+00 0.00000000e+00
 0.00000000e+00 0.00000000e+00 0.00000000e+00 0.00000000e+00
 0.00000000e+00 0.00000000e+00 1.65171436e-09 8.22754195e-08
 0.00000000e+00 0.00000000e+00 0.00000000e+00 2.78987416e-06]","[[-1.00032292e-04  1.17830675e-04]
 [-1.00172057e-05 -1.35822141e-03]]",[],0.0,0.0
1787584093.6364129,0.4960131349485053,-0.6125290881552724,0.12923947308585682,"[4.00439448e-06 1.67598561e-07 0.00000000e+00 0.00000000e+00
 0.00000000e+00 1.65171436e-09 1.67598561e-07 2.36037862e-06
 0.00000000e+00 0.00000000e+00 0.00000000e+00 8.22754195e-08
 0.00000000e+00 0.00000000e+00 0.00000000e+00 0.00000000e+00
 0.00000000e+00 0.00000000e+00 0.00000000e+00 0.00000000e+00
 0.00000000e+00 0.00000000e+00 0.00000000e+00 0.00000000e+00
 0.00000000e+00 0.00000000e+00 0.00000000e+00 0.00000000e+00
 0.00000000e+00 0.00000000e+00 1.65171436e-09 8.22754195e-08
 0.00000000e+00 0.00000000e+00 0.00000000e+00 2.78987416e-06]","[[-1.00032292e-04  1.17830675e-04]
 [-1.00172057e-05 -1.35822141e-03]]",[],0.0,0.0
1787584093.6773925,0.4960131349485053,-0.6125290881552724,0.12923947308585682,"[4.00439448e-06 1.67598561e-07 0.00000000e+00 0.00000000e+00
 0.00000000e+00 1.65171436e-09 1.67598561e-07 2.36037862e-06
 0.00000000e+00 0.00000000e+00 0.00000000e+00 8.22754195e-08
 0.00000000e+00 0.00000000e+00 0.00000000e+00 0.00000000e+00
 0.00000000e+00 0.00000000e+00 0.00000000e+00 0.00000000e+00
 0.00000000e+00 0.00000000e+00 0.00000000e+00 0.00000000e+00
 0.00000000e+00 0.00000000e+00 0.00000000e+00 0.00000000e+00
 0.00000000e+00 0.00000000e+00 1.65171436e-09 8.22754195e-08
 0.00000000e+00 0.00000000e+00 0.00000000e+00 2.78987416e-06]","[[-1.00032292e-04  1.17830675e-04]
 [-1.00172057e-05 -1.35822141e-03]]",[],0.0,0.0
1787584093.7284777,0.49620026449417115,-0.6124051633885256,0.1313043036804609,"[ 3.91669523e-06  1.71023417e-07  0.00000000e+00  0.00000000e+00
  0.00000000e+00 -1.19567151e-08  1.71023417e-07  2.25548068e-06
  0.00000000e+00  0.00000000e+00  0.00000000e+00  7.69565004e-08
  0.00000000e+00  0.00000000e+00  0.00000000e+00  0.00000000e+00
  0.00000000e+00  0.00000000e+00  0.00000000e+00  0.00000000e+00
  0.00000000e+00  0.00000000e+00  0.00000000e+00  0.00000000e+00
  0.00000000e+00  0.00000000e+00  0.00000000e+00  0.00000000e+00
  0.00000000e+00  0.00000000e+00 -1.19567151e-08  7.69565004e-08
  0.00000000e+00  0.00000000e+00  0.00000000e+00  2.75384827e-06]","[[-9.77373696e-05  1.72886165e-04]
 [-1.09027211e-05 -1.28879218e-03]]",[],0.0,0.0
1787584093.7786098,0.49620026449417115,-0.6124051633885256,0.1313043036804609,"[ 3.91669523e-06  1.71023417e-07  0.00000000e+00  0.00000000e+00
  0.00000000e+00 -1.19567151e-08  1.71023417e-07  2.25548068e-06
  0.00000000e+00  0.00000000e+00  0.00000000e+00  7.69565004e-08
  0.00000000e+00  0.00000000e+00  0.00000000e+00  0.00000000e+00
  0.00000000e+00  0.00000000e+00  0.00000000e+00  0.00000000e+00
  0.00000000e+00  0.00000000e+00  0.00000000e+00  0.00000000e+00
  0.00000000e+00  0.00000000e+00  0.00000000e+00  0.00000000e+00
  0.00000000e+00  0.00000000e+00 -1.19567151e-08  7.69565004e-08
  0.00000000e+00  0.00000000e+00  0.00000000e+00  2.75384827e-06]","[[-9.77373696e-05  1.72886165e-04]
 [-1.09027211e-05 -1.28879218e-03]]",[],0.0,0.0
1787584093.830358,0.49620026449417115,-0.6124051633885256,0.1313043036804609,"[ 3.91669523e-06  1.71023417e-07  0.00000000e+00  0.00000000e+00
  0.00000000e+00 -1.19567151e-08  1.71023417e-07  2.25548068e-06
  0.00000000e+00  0.00000000e+00  0.00000000e+00  7.69565004e-08
  0.00000000e+00  0.00000000e+00  0.00000000e+00  0.00000000e+00
  0.00000000e+00  0.00000000e+00  0.00000000e+00  0.00000000e+00
  0.00000000e+00  0.00000000e+00  0.00000000e+00  0.00000000e+00
  0.00000000e+00  0.00000000e+00  0.00000000e+00  0.00000000e+00
  0.00000000e+00  0.00000000e+00 -1.19567151e-08  7.69565004e-08
  0.00000000e+00  0.00000000e+00  0.00000000e+00  2.75384827e-06]","[[-9.77373696e-05  1.72886165e-04]
 [-1.09027211e-05 -1.28879218e-03]]",[],0.0,0.0
1787584093.8810139,0.49620026449417115,-0.6124051633885256,0.1313043036804609,"[ 3.91669523e-06  1.71023417e-07  0.00000000e+00  0.00000000e+00
  0.00000000e+00 -1.19567151e-08  1.71023417e-07  2.25548068e-06
  0.00000000e+00  0.00000000e+00  0.00000000e+00  7.69565004e-08
  0.00000000e+00  0.00000000e+00  0.00000000e+00  0.00000000e+00
  0.00000000e+00  0.00000000e+00  0.00000000e+00  0.00000000e+00
  0.00000000e+00  0.00000000e+00  0.00000000e+00  0.00000000e+00
  0.00000000e+00  0.00000000e+00  0.00000000e+00  0.00000000e+00
  0.00000000e+00  0.00000000e+00 -1.19567151e-08  7.69565004e-08
  0.00000000e+00  0.00000000e+00  0.00000000e+00  2.75384827e-06]","[[-9.77373696e-05  1.72886165e-04]
 [-1.09027211e-05 -1.28879218e-03]]",[],0.0,0.0
1787584093.926693,0.49620026449417115,-0.6124051633885256,0.1313043036804609,"[ 3.91669523e-06  1.71023417e-07  0.00000000e+00  0.00000000e+00
  0.00000000e+00 -1.19567151e-08  1.71023417e-07  2.25548068e-06
  0.00000000e+00  0.00000000e+00  0.00000000e+00  7.69565004e-08
  0.00000000e+00  0.00000000e+00  0.00000000e+00  0.00000000e+00
  0.00000000e+00  0.00000000e+00  0.00000000e+00  0.00000000e+00
  0.00000000e+00  0.00000000e+00  0.00000000e+00  0.00000000e+00
  0.00000000e+00  0.00000000e+00  0.00000000e+00  0.00000000e+00
  0.00000000e+00  0.00000000e+00 -1.19567151e-08  7.69565004e-08
  0.00000000e+00  0.00000000e+00  0.00000000e+00  2.75384827e-06]","[[-9.77373696e-05  1.72886165e-04]
 [-1.09027211e-05 -1.28879218e-03]]",[],0.0,0.0
1787584093.9790072,0.49620026449417115,-0.6124051633885256,0.1313043036804609,"[ 3.91669523e-06  1.71023417e-07  0.00000000e+00  0.00000000e+00
  0.00000000e+00 -1.19567151e-08  1.71023417e-07  2.25548068e-06
  0.00000000e+00  0.00000000e+00  0.00000000e+00  7.69565004e-08
  0.00000000e+00  0.00000000e+00  0.00000000e+00  0.00000000e+00
  0.00000000e+00  0.00000000e+00  0.00000000e+00  0.00000000e+00
  0.00000000e+00  0.00000000e+00  0.00000000e+00  0.00000000e+00
  0.00000000e+00  0.00000000e+00  0.00000000e+00  0.00000000e+00
  0.00000000e+00  0.00000000e+00 -1.19567151e-08  7.69565004e-08
  0.00000000e+00  0.00000000e+00  0.00000000e+00  2.75384827e-06]","[[-9.77373696e-05  1.72886165e-04]
 [-1.09027211e-05 -1.28879218e-03]]",[],0.0,0.0
1787584094.0275908,0.49620026449417115,-0.6124051633885256,0.1313043036804609,"[ 3.91669523e-06  1.71023417e-07  0.00000000e+00  0.00000000e+00
  0.00000000e+00 -1.19567151e-08  1.71023417e-07  2.25548068e-06
  0.00000000e+00  0.00000000e+00  0.00000000e+00  7.69565004e-08
  0.00000000e+00  0.00000000e+00  0.00000000e+00  0.00000000e+00
  0.00000000e+00  0.00000000e+00  0.00000000e+00  0.00000000e+00
  0.00000000e+00  0.00000000e+00  0.00000000e+00  0.00000000e+00
  0.00000000e+00  0.00000000e+00  0.00000000e+00  0.00000000e+00
  0.00000000e+00  0.00000000e+00 -1.19567151e-08  7.69565004e-08
  0.00000000e+00  0.00000000e+00  0.00000000e+00  2.75384827e-06]","[[-9.77373696e-05  1.72886165e-04]
 [-1.09027211e-05 -1.28879218e-03]]",[],0.0,0.0
1787584094.0801268,0.49620026449417115,-0.6124051633885256,0.1313043036804609,"[ 3.91669523e-06  1.71023417e-07  0.00000000e+00  0.00000000e+00
  0.00000000e+00 -1.19567151e-08  1.71023417e-07  2.25548068e-06
  0.00000000e+00  0.00000000e+00  0.00000000e+00  7.69565004e-08
  0.00000000e+00  0.00000000e+00  0.00000000e+00  0.00000000e+00
  0.00000000e+00  0.00000000e+00  0.00000000e+00  0.00000000e+00
  0.00000000e+00  0.00000000e+00  0.00000000e+00  0.00000000e+00
  0.00000000e+00  0.00000000e+00  0.00000000e+00  0.00000000e+00
  0.00000000e+00  0.00000000e+00 -1.19567151e-08  7.69565004e-08
  0.00000000e+00  0.00000000e+00  0.00000000e+00  2.75384827e-06]","[[-9.77373696e-05  1.72886165e-04]
 [-1.09027211e-05 -1.28879218e-03]]",[],0.0,0.0
1787584094.1285598,0.49620026449417115,-0.6124051633885256,0.1313043036804609,"[ 3.91669523e-06  1.71023417e-07  0.00000000e+00  0.00000000e+00
  0.00000000e+00 -1.19567151e-08  1.71023417e-07  2.25548068e-06
  0.00000000e+00  0.00000000e+00  0.00000000e+00  7.69565004e-08
  0.00000000e+00  0.00000000e+00  0.00000000e+00  0.00000000e+00
  0.00000000e+00  0.00000000e+00  0.00000000e+00  0.00000000e+00
  0.00000000e+00  0.00000000e+00  0.00000000e+00  0.00000000e+00
  0.00000000e+00  0.00000000e+00  0.00000000e+00  0.00000000e+00
  0.00000000e+00  0.00000000e+00 -1.19567151e-08  7.69565004e-08
  0.00000000e+00  0.00000000e+00  0.00000000e+00  2.75384827e-06]","[[-9.77373696e-05  1.72886165e-04]
 [-1.09027211e-05 -1.28879218e-03]]",[],0.0,0.0
1787584094.1781895,0.49620026449417115,-0.6124051633885256,0.1313043036804609,"[ 3.91669523e-06  1.71023417e-07  0.00000000e+00  0.00000000e+00
  0.00000000e+00 -1.19567151e-08  1.71023417e-07  2.25548068e-06
  0.00000000e+00  0.00000000e+00  0.00000000e+00  7.69565004e-08
  0.00000000e+00  0.00000000e+00  0.00000000e+00  0.00000000e+00
  0.00000000e+00  0.00000000e+00  0.00000000e+00  0.00000000e+00
  0.00000000e+00  0.00000000e+00  0.00000000e+00  0.00000000e+00
  0.00000000e+00  0.00000000e+00  0.00000000e+00  0.00000000e+00
  0.00000000e+00  0.00000000e+00 -1.19567151e-08  7.69565004e-08
  0.00000000e+00  0.00000000e+00  0.00000000e+00  2.75384827e-06]","[[-9.77373696e-05  1.72886165e-04]
 [-1.09027211e-05 -1.28879218e-03]]",[],0.0,0.0
1787584094.2279713,0.49620026449417115,-0.6124051633885256,0.1313043036804609,"[ 3.91669523e-06  1.71023417e-07  0.00000000e+00  0.00000000e+00
  0.00000000e+00 -1.19567151e-08  1.71023417e-07  2.25548068e-06
  0.00000000e+00  0.00000000e+00  0.00000000e+00  7.69565004e-08
  0.00000000e+00  0.00000000e+00  0.00000000e+00  0.00000000e+00
  0.00000000e+00  0.00000000e+00  0.00000000e+00  0.00000000e+00
  0.00000000e+00  0.00000000e+00  0.00000000e+00  0.00000000e+00
  0.00000000e+00  0.00000000e+00  0.00000000e+00  0.00000000e+00
  0.00000000e+00  0.00000000e+00 -1.19567151e-08  7.69565004e-08
  0.00000000e+00  0.00000000e+00  0.00000000e+00  2.75384827e-06]","[[-9.77373696e-05  1.72886165e-04]
 [-1.09027211e-05 -1.28879218e-03]]",[],0.0,0.0
1787584094.2801147,0.49620026449417115,-0.6124051633885256,0.1313043036804609,"[ 3.91669523e-06  1.71023417e-07  0.00000000e+00  0.00000000e+00
  0.00000000e+00 -1.19567151e-08  1.71023417e-07  2.25548068e-06
  0.00000000e+00  0.00000000e+00  0.00000000e+00  7.69565004e-08
  0.00000000e+00  0.00000000e+00  0.00000000e+00  0.00000000e+00
  0.00000000e+00  0.00000000e+00  0.00000000e+00  0.00000000e+00
  0.00000000e+00  0.00000000e+00  0.00000000e+00  0.00000000e+00
  0.00000000e+00  0.00000000e+00  0.00000000e+00  0.00000000e+00
  0.00000000e+00  0.00000000e+00 -1.19567151e-08  7.69565004e-08
  0.00000000e+00  0.00000000e+00  0.00000000e+00  2.75384827e-06]","[[-9.77373696e-05  1.72886165e-04]
 [-1.09027211e-05 -1.28879218e-03]]",[],0.0,0.0
1787584094.3323894,0.49620026449417115,-0.6124051633885256,0.1313043036804609,"[ 3.91669523e-06  1.71023417e-07  0.00000000e+00  0.00000000e+00
  0.00000000e+00 -1.19567151e-08  1.71023417e-07  2.25548068e-06
  0.00000000e+00  0.00000000e+00  0.00000000e+00  7.69565004e-08
  0.00000000e+00  0.00000000e+00  0.00000000e+00  0.00000000e+00
  0.00000000e+00  0.00000000e+00  0.00000000e+00  0.00000000e+00
  0.00000000e+00  0.00000000e+00  0.00000000e+00  0.00000000e+00
  0.00000000e+00  0.00000000e+00  0.00000000e+00  0.00000000e+00
  0.00000000e+00  0.00000000e+00 -1.19567151e-08  7.69565004e-08
  0.00000000e+00  0.00000000e+00  0.00000000e+00  2.75384827e-06]","[[-9.77373696e-05  1.72886165e-04]
 [-1.09027211e-05 -1.28879218e-03]]",[],0.0,0.0
1787584094.3812633,0.49620026449417115,-0.6124051633885256,0.1313043036804609,"[ 3.91669523e-06  1.71023417e-07  0.00000000e+00  0.00000000e+00
  0.00000000e+00 -1.19567151e-08  1.71023417e-07  2.25548068e-06
  0.00000000e+00  0.00000000e+00  0.00000000e+00  7.69565004e-08
  0.00000000e+00  0.00000000e+00  0.00000000e+00  0.00000000e+00
  0.00000000e+00  0.00000000e+00  0.00000000e+00  0.00000000e+00
  0.00000000e+00  0.00000000e+00  0.00000000e+00  0.00000000e+00
  0.00000000e+00  0.00000000e+00  0.00000000e+00  0.00000000e+00
  0.00000000e+00  0.00000000e+00 -1.19567151e-08  7.69565004e-08
  0.00000000e+00  0.00000000e+00  0.00000000e+00  2.75384827e-06]","[[-9.77373696e-05  1.72886165e-04]
 [-1.09027211e-05 -1.28879218e-03]]",[],0.0,0.0
1787584094.4279304,0.49620026449417115,-0.6124051633885256,0.1313043036804609,"[ 3.91669523e-06  1.71023417e-07  0.00000000e+00  0.00000000e+00
  0.00000000e+00 -1.19567151e-08  1.71023417e-07  2.25548068e-06
  0.00000000e+00  0.00000000e+00  0.00000000e+00  7.69565004e-08
  0.00000000e+00  0.00000000e+00  0.00000000e+00  0.00000000e+00
  0.00000000e+00  0.00000000e+00  0.00000000e+00  0.00000000e+00
  0.00000000e+00  0.00000000e+00  0.00000000e+00  0.00000000e+00
  0.00000000e+00  0.00000000e+00  0.00000000e+00  0.00000000e+00
  0.00000000e+00  0.00000000e+00 -1.19567151e-08  7.69565004e-08
  0.00000000e+00  0.00000000e+00  0.00000000e+00  2.75384827e-06]","[[-9.77373696e-05  1.72886165e-04]
 [-1.09027211e-05 -1.28879218e-03]]",[],0.0,0.0
1787584094.4775147,0.49620026449417115,-0.6124051633885256,0.1313043036804609,"[ 3.91669523e-06  1.71023417e-07  0.00000000e+00  0.00000000e+00
  0.00000000e+00 -1.19567151e-08  1.71023417e-07  2.25548068e-06
  0.00000000e+00  0.00000000e+00  0.00000000e+00  7.69565004e-08
  0.00000000e+00  0.00000000e+00  0.00000000e+00  0.00000000e+00
  0.00000000e+00  0.00000000e+00  0.00000000e+00  0.00000000e+00
  0.00000000e+00  0.00000000e+00  0.00000000e+00  0.00000000e+00
  0.00000000e+00  0.00000000e+00  0.00000000e+00  0.00000000e+00
  0.00000000e+00  0.00000000e+00 -1.19567151e-08  7.69565004e-08
  0.00000000e+00  0.00000000e+00  0.00000000e+00  2.75384827e-06]","[[-9.77373696e-05  1.72886165e-04]
 [-1.09027211e-05 -1.28879218e-03]]",[],0.0,0.0
1787584094.5287886,0.49620026449417115,-0.6124051633885256,0.1313043036804609,"[ 3.91669523e-06  1.71023417e-07  0.00000000e+00  0.00000000e+00
  0.00000000e+00 -1.19567151e-08  1.71023417e-07  2.25548068e-06
  0.00000000e+00  0.00000000e+00  0.00000000e+00  7.69565004e-08
  0.00000000e+00  0.00000000e+00  0.00000000e+00  0.00000000e+00
  0.00000000e+00  0.00000000e+00  0.00000000e+00  0.00000000e+00
  0.00000000e+00  0.00000000e+00  0.00000000e+00  0.00000000e+00
  0.00000000e+00  0.00000000e+00  0.00000000e+00  0.00000000e+00
  0.00000000e+00  0.00000000e+00 -1.19567151e-08  7.69565004e-08
  0.00000000e+00  0.00000000e+00  0.00000000e+00  2.75384827e-06]","[[-9.77373696e-05  1.72886165e-04]
 [-1.09027211e-05 -1.28879218e-03]]",[],0.0,0.0
1787584094.5941339,0.49620026449417115,-0.6124051633885256,0.1313043036804609,"[ 3.91669523e-06  1.71023417e-07  0.00000000e+00  0.00000000e+00
  0.00000000e+00 -1.19567151e-08  1.71023417e-07  2.25548068e-06
  0.00000000e+00  0.00000000e+00  0.00000000e+00  7.69565004e-08
  0.00000000e+00  0.00000000e+00  0.00000000e+00  0.00000000e+00
  0.00000000e+00  0.00000000e+00  0.00000000e+00  0.00000000e+00
  0.00000000e+00  0.00000000e+00  0.00000000e+00  0.00000000e+00
  0.00000000e+00  0.00000000e+00  0.00000000e+00  0.00000000e+00
  0.00000000e+00  0.00000000e+00 -1.19567151e-08  7.69565004e-08
  0.00000000e+00  0.00000000e+00  0.00000000e+00  2.75384827e-06]","[[-9.77373696e-05  1.72886165e-04]
 [-1.09027211e-05 -1.28879218e-03]]",[],0.0,0.0
1787584094.640471,0.49620026449417115,-0.6124051633885256,0.1313043036804609,"[ 3.91669523e-06  1.71023417e-07  0.00000000e+00  0.00000000e+00
  0.00000000e+00 -1.19567151e-08  1.71023417e-07  2.25548068e-06
  0.00000000e+00  0.00000000e+00  0.00000000e+00  7.69565004e-08
  0.00000000e+00  0.00000000e+00  0.00000000e+00  0.00000000e+00
  0.00000000e+00  0.00000000e+00  0.00000000e+00  0.00000000e+00
  0.00000000e+00  0.00000000e+00  0.00000000e+00  0.00000000e+00
  0.00000000e+00  0.00000000e+00  0.00000000e+00  0.00000000e+00
  0.00000000e+00  0.00000000e+00 -1.19567151e-08  7.69565004e-08
  0.00000000e+00  0.00000000e+00  0.00000000e+00  2.75384827e-06]","[[-9.77373696e-05  1.72886165e-04]
 [-1.09027211e-05 -1.28879218e-03]]",[],0.0,0.0
1787584094.690506,0.49620026449417115,-0.6124051633885256,0.1313043036804609,"[ 3.91669523e-06  1.71023417e-07  0.00000000e+00  0.00000000e+00
  0.00000000e+00 -1.19567151e-08  1.71023417e-07  2.25548068e-06
  0.00000000e+00  0.00000000e+00  0.00000000e+00  7.69565004e-08
  0.00000000e+00  0.00000000e+00  0.00000000e+00  0.00000000e+00
