time,x,y,yaw,cov_prop,K_gain,innovation,v_ekf,omega_ekf
1787561997.368717,1.7765056533100878,0.8543118886810382,1.968741966229012,"[2.11331250e-04 3.98467526e-05 0.00000000e+00 0.00000000e+00
 0.00000000e+00 4.39684943e-06 3.98467526e-05 9.03529762e-05
 0.00000000e+00 0.00000000e+00 0.00000000e+00 2.68449923e-06
 0.00000000e+00 0.00000000e+00 0.00000000e+00 0.00000000e+00
 0.00000000e+00 0.00000000e+00 0.00000000e+00 0.00000000e+00
 0.00000000e+00 0.00000000e+00 0.00000000e+00 0.00000000e+00
 0.00000000e+00 0.00000000e+00 0.00000000e+00 0.00000000e+00
 0.00000000e+00 0.00000000e+00 4.39684943e-06 2.68449923e-06
 0.00000000e+00 0.00000000e+00 0.00000000e+00 7.41207901e-06]","[[-0.00401948  0.05562515]
 [-0.00239635 -0.01489351]]",[],0.0,0.0
1787561997.418693,1.7765056533100878,0.8543118886810382,1.968741966229012,"[2.11331250e-04 3.98467526e-05 0.00000000e+00 0.00000000e+00
 0.00000000e+00 4.39684943e-06 3.98467526e-05 9.03529762e-05
 0.00000000e+00 0.00000000e+00 0.00000000e+00 2.68449923e-06
 0.00000000e+00 0.00000000e+00 0.00000000e+00 0.00000000e+00
 0.00000000e+00 0.00000000e+00 0.00000000e+00 0.00000000e+00
 0.00000000e+00 0.00000000e+00 0.00000000e+00 0.00000000e+00
 0.00000000e+00 0.00000000e+00 0.00000000e+00 0.00000000e+00
 0.00000000e+00 0.00000000e+00 4.39684943e-06 2.68449923e-06
 0.00000000e+00 0.00000000e+00 0.00000000e+00 7.41207901e-06]","[[-0.00401948  0.05562515]
 [-0.00239635 -0.01489351]]",[],0.0,0.0
1787561997.473498,1.7765056533100878,0.8543118886810382,1.968741966229012,"[2.11331250e-04 3.98467526e-05 0.00000000e+00 0.00000000e+00
 0.00000000e+00 4.39684943e-06 3.98467526e-05 9.03529762e-05
 0.00000000e+00 0.00000000e+00 0.00000000e+00 2.68449923e-06
 0.00000000e+00 0.00000000e+00 0.00000000e+00 0.00000000e+00
 0.00000000e+00 0.00000000e+00 0.00000000e+00 0.00000000e+00
 0.00000000e+00 0.00000000e+00 0.00000000e+00 0.00000000e+00
 0.00000000e+00 0.00000000e+00 0.00000000e+00 0.00000000e+00
 0.00000000e+00 0.00000000e+00 4.39684943e-06 2.68449923e-06
 0.00000000e+00 0.00000000e+00 0.00000000e+00 7.41207901e-06]","[[-0.00401948  0.05562515]
 [-0.00239635 -0.01489351]]",[],0.0,0.0
1787561997.5196104,1.7765056533100878,0.8543118886810382,1.968741966229012,"[2.11331250e-04 3.98467526e-05 0.00000000e+00 0.00000000e+00
 0.00000000e+00 4.39684943e-06 3.98467526e-05 9.03529762e-05
 0.00000000e+00 0.00000000e+00 0.00000000e+00 2.68449923e-06
 0.00000000e+00 0.00000000e+00 0.00000000e+00 0.00000000e+00
 0.00000000e+00 0.00000000e+00 0.00000000e+00 0.00000000e+00
 0.00000000e+00 0.00000000e+00 0.00000000e+00 0.00000000e+00
 0.00000000e+00 0.00000000e+00 0.00000000e+00 0.00000000e+00
 0.00000000e+00 0.00000000e+00 4.39684943e-06 2.68449923e-06
 0.00000000e+00 0.00000000e+00 0.00000000e+00 7.41207901e-06]","[[-0.00401948  0.05562515]
 [-0.00239635 -0.01489351]]",[],0.0,0.0
1787561997.5706704,1.7765056533100878,0.8543118886810382,1.968741966229012,"[2.11331250e-04 3.98467526e-05 0.00000000e+00 0.00000000e+00
 0.00000000e+00 4.39684943e-06 3.98467526e-05 9.03529762e-05
 0.00000000e+00 0.00000000e+00 0.00000000e+00 2.68449923e-06
 0.00000000e+00 0.00000000e+00 0.00000000e+00 0.00000000e+00
 0.00000000e+00 0.00000000e+00 0.00000000e+00 0.00000000e+00
 0.00000000e+00 0.00000000e+00 0.00000000e+00 0.00000000e+00
 0.00000000e+00 0.00000000e+00 0.00000000e+00 0.00000000e+00
 0.00000000e+00 0.00000000e+00 4.39684943e-06 2.68449923e-06
 0.00000000e+00 0.00000000e+00 0.00000000e+00 7.41207901e-06]","[[-0.00401948  0.05562515]
 [-0.00239635 -0.01489351]]",[],0.0,0.0
1787561997.6201367,1.7765056533100878,0.8543118886810382,1.968741966229012,"[2.11331250e-04 3.98467526e-05 0.00000000e+00 0.00000000e+00
 0.00000000e+00 4.39684943e-06 3.98467526e-05 9.03529762e-05
 0.00000000e+00 0.00000000e+00 0.00000000e+00 2.68449923e-06
 0.00000000e+00 0.00000000e+00 0.00000000e+00 0.00000000e+00
 0.00000000e+00 0.00000000e+00 0.00000000e+00 0.00000000e+00
 0.00000000e+00 0.00000000e+00 0.00000000e+00 0.00000000e+00
 0.00000000e+00 0.00000000e+00 0.00000000e+00 0.00000000e+00
 0.00000000e+00 0.00000000e+00 4.39684943e-06 2.68449923e-06
 0.00000000e+00 0.00000000e+00 0.00000000e+00 7.41207901e-06]","[[-0.00401948  0.05562515]
 [-0.00239635 -0.01489351]]",[],0.0,0.0
1787561997.6691685,1.7765056533100878,0.8543118886810382,1.968741966229012,"[2.11331250e-04 3.98467526e-05 0.00000000e+00 0.00000000e+00
 0.00000000e+00 4.39684943e-06 3.98467526e-05 9.03529762e-05
 0.00000000e+00 0.00000000e+00 0.00000000e+00 2.68449923e-06
 0.00000000e+00 0.00000000e+00 0.00000000e+00 0.00000000e+00
 0.00000000e+00 0.00000000e+00 0.00000000e+00 0.00000000e+00
 0.00000000e+00 0.00000000e+00 0.00000000e+00 0.00000000e+00
 0.00000000e+00 0.00000000e+00 0.00000000e+00 0.00000000e+00
 0.00000000e+00 0.00000000e+00 4.39684943e-06 2.68449923e-06
 0.00000000e+00 0.00000000e+00 0.00000000e+00 7.41207901e-06]","[[-0.00401948  0.05562515]
 [-0.00239635 -0.01489351]]",[],0.0,0.0
1787561997.720068,1.7765056533100878,0.8543118886810382,1.968741966229012,"[2.11331250e-04 3.98467526e-05 0.00000000e+00 0.00000000e+00
 0.00000000e+00 4.39684943e-06 3.98467526e-05 9.03529762e-05
 0.00000000e+00 0.00000000e+00 0.00000000e+00 2.68449923e-06
 0.00000000e+00 0.00000000e+00 0.00000000e+00 0.00000000e+00
 0.00000000e+00 0.00000000e+00 0.00000000e+00 0.00000000e+00
 0.00000000e+00 0.00000000e+00 0.00000000e+00 0.00000000e+00
 0.00000000e+00 0.00000000e+00 0.00000000e+00 0.00000000e+00
 0.00000000e+00 0.00000000e+00 4.39684943e-06 2.68449923e-06
 0.00000000e+00 0.00000000e+00 0.00000000e+00 7.41207901e-06]","[[-0.00401948  0.05562515]
 [-0.00239635 -0.01489351]]",[],0.0,0.0
1787561997.7683866,1.7765056533100878,0.8543118886810382,1.968741966229012,"[2.11331250e-04 3.98467526e-05 0.00000000e+00 0.00000000e+00
 0.00000000e+00 4.39684943e-06 3.98467526e-05 9.03529762e-05
 0.00000000e+00 0.00000000e+00 0.00000000e+00 2.68449923e-06
 0.00000000e+00 0.00000000e+00 0.00000000e+00 0.00000000e+00
 0.00000000e+00 0.00000000e+00 0.00000000e+00 0.00000000e+00
 0.00000000e+00 0.00000000e+00 0.00000000e+00 0.00000000e+00
 0.00000000e+00 0.00000000e+00 0.00000000e+00 0.00000000e+00
 0.00000000e+00 0.00000000e+00 4.39684943e-06 2.68449923e-06
 0.00000000e+00 0.00000000e+00 0.00000000e+00 7.41207901e-06]","[[-0.00401948  0.05562515]
 [-0.00239635 -0.01489351]]",[],0.0,0.0
1787561997.8187492,1.7765056533100878,0.8543118886810382,1.968741966229012,"[2.11331250e-04 3.98467526e-05 0.00000000e+00 0.00000000e+00
 0.00000000e+00 4.39684943e-06 3.98467526e-05 9.03529762e-05
 0.00000000e+00 0.00000000e+00 0.00000000e+00 2.68449923e-06
 0.00000000e+00 0.00000000e+00 0.00000000e+00 0.00000000e+00
 0.00000000e+00 0.00000000e+00 0.00000000e+00 0.00000000e+00
 0.00000000e+00 0.00000000e+00 0.00000000e+00 0.00000000e+00
 0.00000000e+00 0.00000000e+00 0.00000000e+00 0.00000000e+00
 0.00000000e+00 0.00000000e+00 4.39684943e-06 2.68449923e-06
 0.00000000e+00 0.00000000e+00 0.00000000e+00 7.41207901e-06]","[[-0.00401948  0.05562515]
 [-0.00239635 -0.01489351]]",[],0.0,0.0
1787561997.8694155,1.7765056533100878,0.8543118886810382,1.968741966229012,"[2.11331250e-04 3.98467526e-05 0.00000000e+00 0.00000000e+00
 0.00000000e+00 4.39684943e-06 3.98467526e-05 9.03529762e-05
 0.00000000e+00 0.00000000e+00 0.00000000e+00 2.68449923e-06
 0.00000000e+00 0.00000000e+00 0.00000000e+00 0.00000000e+00
 0.00000000e+00 0.00000000e+00 0.00000000e+00 0.00000000e+00
 0.00000000e+00 0.00000000e+00 0.00000000e+00 0.00000000e+00
 0.00000000e+00 0.00000000e+00 0.00000000e+00 0.00000000e+00
 0.00000000e+00 0.00000000e+00 4.39684943e-06 2.68449923e-06
 0.00000000e+00 0.00000000e+00 0.00000000e+00 7.41207901e-06]","[[-0.00401948  0.05562515]
 [-0.00239635 -0.01489351]]",[],0.0,0.0
1787561997.920591,1.7765056533100878,0.8543118886810382,1.968741966229012,"[2.11331250e-04 3.98467526e-05 0.00000000e+00 0.00000000e+00
 0.00000000e+00 4.39684943e-06 3.98467526e-05 9.03529762e-05
 0.00000000e+00 0.00000000e+00 0.00000000e+00 2.68449923e-06
 0.00000000e+00 0.00000000e+00 0.00000000e+00 0.00000000e+00
 0.00000000e+00 0.00000000e+00 0.00000000e+00 0.00000000e+00
 0.00000000e+00 0.00000000e+00 0.00000000e+00 0.00000000e+00
 0.00000000e+00 0.00000000e+00 0.00000000e+00 0.00000000e+00
 0.00000000e+00 0.00000000e+00 4.39684943e-06 2.68449923e-06
 0.00000000e+00 0.00000000e+00 0.00000000e+00 7.41207901e-06]","[[-0.00401948  0.05562515]
 [-0.00239635 -0.01489351]]",[],0.0,0.0
1787561997.9695678,1.7765056533100878,0.8543118886810382,1.968741966229012,"[2.11331250e-04 3.98467526e-05 0.00000000e+00 0.00000000e+00
 0.00000000e+00 4.39684943e-06 3.98467526e-05 9.03529762e-05
 0.00000000e+00 0.00000000e+00 0.00000000e+00 2.68449923e-06
 0.00000000e+00 0.00000000e+00 0.00000000e+00 0.00000000e+00
 0.00000000e+00 0.00000000e+00 0.00000000e+00 0.00000000e+00
 0.00000000e+00 0.00000000e+00 0.00000000e+00 0.00000000e+00
 0.00000000e+00 0.00000000e+00 0.00000000e+00 0.00000000e+00
 0.00000000e+00 0.00000000e+00 4.39684943e-06 2.68449923e-06
 0.00000000e+00 0.00000000e+00 0.00000000e+00 7.41207901e-06]","[[-0.00401948  0.05562515]
 [-0.00239635 -0.01489351]]",[],0.0,0.0
1787561998.0203955,1.7765056533100878,0.8543118886810382,1.968741966229012,"[2.11331250e-04 3.98467526e-05 0.00000000e+00 0.00000000e+00
 0.00000000e+00 4.39684943e-06 3.98467526e-05 9.03529762e-05
 0.00000000e+00 0.00000000e+00 0.00000000e+00 2.68449923e-06
 0.00000000e+00 0.00000000e+00 0.00000000e+00 0.00000000e+00
 0.00000000e+00 0.00000000e+00 0.00000000e+00 0.00000000e+00
 0.00000000e+00 0.00000000e+00 0.00000000e+00 0.00000000e+00
 0.00000000e+00 0.00000000e+00 0.00000000e+00 0.00000000e+00
 0.00000000e+00 0.00000000e+00 4.39684943e-06 2.68449923e-06
 0.00000000e+00 0.00000000e+00 0.00000000e+00 7.41207901e-06]","[[-0.00401948  0.05562515]
 [-0.00239635 -0.01489351]]",[],0.0,0.0
1787561998.069688,1.7765056533100878,0.8543118886810382,1.968741966229012,"[2.11331250e-04 3.98467526e-05 0.00000000e+00 0.00000000e+00
 0.00000000e+00 4.39684943e-06 3.98467526e-05 9.03529762e-05
 0.00000000e+00 0.00000000e+00 0.00000000e+00 2.68449923e-06
 0.00000000e+00 0.00000000e+00 0.00000000e+00 0.00000000e+00
 0.00000000e+00 0.00000000e+00 0.00000000e+00 0.00000000e+00
 0.00000000e+00 0.00000000e+00 0.00000000e+00 0.00000000e+00
 0.00000000e+00 0.00000000e+00 0.00000000e+00 0.00000000e+00
 0.00000000e+00 0.00000000e+00 4.39684943e-06 2.68449923e-06
 0.00000000e+00 0.00000000e+00 0.00000000e+00 7.41207901e-06]","[[-0.00401948  0.05562515]
 [-0.00239635 -0.01489351]]",[],0.0,0.0
1787561998.118516,1.6983841349852495,0.8123620759580722,1.9662899318066573,"[ 8.76118101e-05  1.07820537e-05  0.00000000e+00  0.00000000e+00
  0.00000000e+00 -5.18350561e-06  1.07820537e-05  4.47147995e-05
  0.00000000e+00  0.00000000e+00  0.00000000e+00  1.06076337e-06
  0.00000000e+00  0.00000000e+00  0.00000000e+00  0.00000000e+00
  0.00000000e+00  0.00000000e+00  0.00000000e+00  0.00000000e+00
  0.00000000e+00  0.00000000e+00  0.00000000e+00  0.00000000e+00
  0.00000000e+00  0.00000000e+00  0.00000000e+00  0.00000000e+00
  0.00000000e+00  0.00000000e+00 -5.18350561e-06  1.06076337e-06
  0.00000000e+00  0.00000000e+00  0.00000000e+00  5.81981841e-06]","[[-0.00163473  0.04440386]
 [-0.00102253 -0.01446855]]",[],0.0,0.0
1787561998.1692264,1.6983841349852495,0.8123620759580722,1.9662899318066573,"[ 8.76118101e-05  1.07820537e-05  0.00000000e+00  0.00000000e+00
  0.00000000e+00 -5.18350561e-06  1.07820537e-05  4.47147995e-05
  0.00000000e+00  0.00000000e+00  0.00000000e+00  1.06076337e-06
  0.00000000e+00  0.00000000e+00  0.00000000e+00  0.00000000e+00
  0.00000000e+00  0.00000000e+00  0.00000000e+00  0.00000000e+00
  0.00000000e+00  0.00000000e+00  0.00000000e+00  0.00000000e+00
  0.00000000e+00  0.00000000e+00  0.00000000e+00  0.00000000e+00
  0.00000000e+00  0.00000000e+00 -5.18350561e-06  1.06076337e-06
  0.00000000e+00  0.00000000e+00  0.00000000e+00  5.81981841e-06]","[[-0.00163473  0.04440386]
 [-0.00102253 -0.01446855]]",[],0.0,0.0
1787561998.218351,1.6983841349852495,0.8123620759580722,1.9662899318066573,"[ 8.76118101e-05  1.07820537e-05  0.00000000e+00  0.00000000e+00
  0.00000000e+00 -5.18350561e-06  1.07820537e-05  4.47147995e-05
  0.00000000e+00  0.00000000e+00  0.00000000e+00  1.06076337e-06
  0.00000000e+00  0.00000000e+00  0.00000000e+00  0.00000000e+00
  0.00000000e+00  0.00000000e+00  0.00000000e+00  0.00000000e+00
  0.00000000e+00  0.00000000e+00  0.00000000e+00  0.00000000e+00
  0.00000000e+00  0.00000000e+00  0.00000000e+00  0.00000000e+00
  0.00000000e+00  0.00000000e+00 -5.18350561e-06  1.06076337e-06
  0.00000000e+00  0.00000000e+00  0.00000000e+00  5.81981841e-06]","[[-0.00163473  0.04440386]
 [-0.00102253 -0.01446855]]",[],0.0,0.0
1787561998.2736943,1.6983841349852495,0.8123620759580722,1.9662899318066573,"[ 8.76118101e-05  1.07820537e-05  0.00000000e+00  0.00000000e+00
  0.00000000e+00 -5.18350561e-06  1.07820537e-05  4.47147995e-05
  0.00000000e+00  0.00000000e+00  0.00000000e+00  1.06076337e-06
  0.00000000e+00  0.00000000e+00  0.00000000e+00  0.00000000e+00
  0.00000000e+00  0.00000000e+00  0.00000000e+00  0.00000000e+00
  0.00000000e+00  0.00000000e+00  0.00000000e+00  0.00000000e+00
  0.00000000e+00  0.00000000e+00  0.00000000e+00  0.00000000e+00
  0.00000000e+00  0.00000000e+00 -5.18350561e-06  1.06076337e-06
  0.00000000e+00  0.00000000e+00  0.00000000e+00  5.81981841e-06]","[[-0.00163473  0.04440386]
 [-0.00102253 -0.01446855]]",[],0.0,0.0
1787561998.322496,1.6983841349852495,0.8123620759580722,1.9662899318066573,"[ 8.76118101e-05  1.07820537e-05  0.00000000e+00  0.00000000e+00
  0.00000000e+00 -5.18350561e-06  1.07820537e-05  4.47147995e-05
  0.00000000e+00  0.00000000e+00  0.00000000e+00  1.06076337e-06
  0.00000000e+00  0.00000000e+00  0.00000000e+00  0.00000000e+00
  0.00000000e+00  0.00000000e+00  0.00000000e+00  0.00000000e+00
  0.00000000e+00  0.00000000e+00  0.00000000e+00  0.00000000e+00
  0.00000000e+00  0.00000000e+00  0.00000000e+00  0.00000000e+00
  0.00000000e+00  0.00000000e+00 -5.18350561e-06  1.06076337e-06
  0.00000000e+00  0.00000000e+00  0.00000000e+00  5.81981841e-06]","[[-0.00163473  0.04440386]
 [-0.00102253 -0.01446855]]",[],0.0,0.0
1787561998.3766894,1.6983841349852495,0.8123620759580722,1.9662899318066573,"[ 8.76118101e-05  1.07820537e-05  0.00000000e+00  0.00000000e+00
  0.00000000e+00 -5.18350561e-06  1.07820537e-05  4.47147995e-05
  0.00000000e+00  0.00000000e+00  0.00000000e+00  1.06076337e-06
  0.00000000e+00  0.00000000e+00  0.00000000e+00  0.00000000e+00
  0.00000000e+00  0.00000000e+00  0.00000000e+00  0.00000000e+00
  0.00000000e+00  0.00000000e+00  0.00000000e+00  0.00000000e+00
  0.00000000e+00  0.00000000e+00  0.00000000e+00  0.00000000e+00
  0.00000000e+00  0.00000000e+00 -5.18350561e-06  1.06076337e-06
  0.00000000e+00  0.00000000e+00  0.00000000e+00  5.81981841e-06]","[[-0.00163473  0.04440386]
 [-0.00102253 -0.01446855]]",[],0.0,0.0
1787561998.4201071,1.6983841349852495,0.8123620759580722,1.9662899318066573,"[ 8.76118101e-05  1.07820537e-05  0.00000000e+00  0.00000000e+00
  0.00000000e+00 -5.18350561e-06  1.07820537e-05  4.47147995e-05
  0.00000000e+00  0.00000000e+00  0.00000000e+00  1.06076337e-06
  0.00000000e+00  0.00000000e+00  0.00000000e+00  0.00000000e+00
  0.00000000e+00  0.00000000e+00  0.00000000e+00  0.00000000e+00
  0.00000000e+00  0.00000000e+00  0.00000000e+00  0.00000000e+00
  0.00000000e+00  0.00000000e+00  0.00000000e+00  0.00000000e+00
  0.00000000e+00  0.00000000e+00 -5.18350561e-06  1.06076337e-06
  0.00000000e+00  0.00000000e+00  0.00000000e+00  5.81981841e-06]","[[-0.00163473  0.04440386]
 [-0.00102253 -0.01446855]]",[],0.0,0.0
1787561998.4735115,1.6983841349852495,0.8123620759580722,1.9662899318066573,"[ 8.76118101e-05  1.07820537e-05  0.00000000e+00  0.00000000e+00
  0.00000000e+00 -5.18350561e-06  1.07820537e-05  4.47147995e-05
  0.00000000e+00  0.00000000e+00  0.00000000e+00  1.06076337e-06
  0.00000000e+00  0.00000000e+00  0.00000000e+00  0.00000000e+00
  0.00000000e+00  0.00000000e+00  0.00000000e+00  0.00000000e+00
  0.00000000e+00  0.00000000e+00  0.00000000e+00  0.00000000e+00
  0.00000000e+00  0.00000000e+00  0.00000000e+00  0.00000000e+00
  0.00000000e+00  0.00000000e+00 -5.18350561e-06  1.06076337e-06
  0.00000000e+00  0.00000000e+00  0.00000000e+00  5.81981841e-06]","[[-0.00163473  0.04440386]
 [-0.00102253 -0.01446855]]",[],0.0,0.0
1787561998.5222933,1.6983841349852495,0.8123620759580722,1.9662899318066573,"[ 8.76118101e-05  1.07820537e-05  0.00000000e+00  0.00000000e+00
  0.00000000e+00 -5.18350561e-06  1.07820537e-05  4.47147995e-05
  0.00000000e+00  0.00000000e+00  0.00000000e+00  1.06076337e-06
  0.00000000e+00  0.00000000e+00  0.00000000e+00  0.00000000e+00
  0.00000000e+00  0.00000000e+00  0.00000000e+00  0.00000000e+00
  0.00000000e+00  0.00000000e+00  0.00000000e+00  0.00000000e+00
  0.00000000e+00  0.00000000e+00  0.00000000e+00  0.00000000e+00
  0.00000000e+00  0.00000000e+00 -5.18350561e-06  1.06076337e-06
  0.00000000e+00  0.00000000e+00  0.00000000e+00  5.81981841e-06]","[[-0.00163473  0.04440386]
 [-0.00102253 -0.01446855]]",[],0.0,0.0
1787561998.5719607,1.6983841349852495,0.8123620759580722,1.9662899318066573,"[ 8.76118101e-05  1.07820537e-05  0.00000000e+00  0.00000000e+00
  0.00000000e+00 -5.18350561e-06  1.07820537e-05  4.47147995e-05
  0.00000000e+00  0.00000000e+00  0.00000000e+00  1.06076337e-06
  0.00000000e+00  0.00000000e+00  0.00000000e+00  0.00000000e+00
  0.00000000e+00  0.00000000e+00  0.00000000e+00  0.00000000e+00
  0.00000000e+00  0.00000000e+00  0.00000000e+00  0.00000000e+00
  0.00000000e+00  0.00000000e+00  0.00000000e+00  0.00000000e+00
  0.00000000e+00  0.00000000e+00 -5.18350561e-06  1.06076337e-06
  0.00000000e+00  0.00000000e+00  0.00000000e+00  5.81981841e-06]","[[-0.00163473  0.04440386]
 [-0.00102253 -0.01446855]]",[],0.0,0.0
1787561998.6243107,1.6983841349852495,0.8123620759580722,1.9662899318066573,"[ 8.76118101e-05  1.07820537e-05  0.00000000e+00  0.00000000e+00
  0.00000000e+00 -5.18350561e-06  1.07820537e-05  4.47147995e-05
  0.00000000e+00  0.00000000e+00  0.00000000e+00  1.06076337e-06
  0.00000000e+00  0.00000000e+00  0.00000000e+00  0.00000000e+00
  0.00000000e+00  0.00000000e+00  0.00000000e+00  0.00000000e+00
  0.00000000e+00  0.00000000e+00  0.00000000e+00  0.00000000e+00
  0.00000000e+00  0.00000000e+00  0.00000000e+00  0.00000000e+00
  0.00000000e+00  0.00000000e+00 -5.18350561e-06  1.06076337e-06
  0.00000000e+00  0.00000000e+00  0.00000000e+00  5.81981841e-06]","[[-0.00163473  0.04440386]
 [-0.00102253 -0.01446855]]",[],0.0,0.0
1787561998.6725557,1.6983841349852495,0.8123620759580722,1.9662899318066573,"[ 8.76118101e-05  1.07820537e-05  0.00000000e+00  0.00000000e+00
  0.00000000e+00 -5.18350561e-06  1.07820537e-05  4.47147995e-05
  0.00000000e+00  0.00000000e+00  0.00000000e+00  1.06076337e-06
  0.00000000e+00  0.00000000e+00  0.00000000e+00  0.00000000e+00
  0.00000000e+00  0.00000000e+00  0.00000000e+00  0.00000000e+00
  0.00000000e+00  0.00000000e+00  0.00000000e+00  0.00000000e+00
  0.00000000e+00  0.00000000e+00  0.00000000e+00  0.00000000e+00
  0.00000000e+00  0.00000000e+00 -5.18350561e-06  1.06076337e-06
  0.00000000e+00  0.00000000e+00  0.00000000e+00  5.81981841e-06]","[[-0.00163473  0.04440386]
 [-0.00102253 -0.01446855]]",[],0.0,0.0
1787561998.720437,1.6983841349852495,0.8123620759580722,1.9662899318066573,"[ 8.76118101e-05  1.07820537e-05  0.00000000e+00  0.00000000e+00
  0.00000000e+00 -5.18350561e-06  1.07820537e-05  4.47147995e-05
  0.00000000e+00  0.00000000e+00  0.00000000e+00  1.06076337e-06
  0.00000000e+00  0.00000000e+00  0.00000000e+00  0.00000000e+00
  0.00000000e+00  0.00000000e+00  0.00000000e+00  0.00000000e+00
  0.00000000e+00  0.00000000e+00  0.00000000e+00  0.00000000e+00
  0.00000000e+00  0.00000000e+00  0.00000000e+00  0.00000000e+00
  0.00000000e+00  0.00000000e+00 -5.18350561e-06  1.06076337e-06
  0.00000000e+00  0.00000000e+00  0.00000000e+00  5.81981841e-06]","[[-0.00163473  0.04440386]
 [-0.00102253 -0.01446855]]",[],0.0,0.0
1787561998.7686567,1.6983841349852495,0.8123620759580722,1.9662899318066573,"[ 8.76118101e-05  1.07820537e-05  0.00000000e+00  0.00000000e+00
  0.00000000e+00 -5.18350561e-06  1.07820537e-05  4.47147995e-05
  0.00000000e+00  0.00000000e+00  0.00000000e+00  1.06076337e-06
  0.00000000e+00  0.00000000e+00  0.00000000e+00  0.00000000e+00
  0.00000000e+00  0.00000000e+00  0.00000000e+00  0.00000000e+00
  0.00000000e+00  0.00000000e+00  0.00000000e+00  0.00000000e+00
  0.00000000e+00  0.00000000e+00  0.00000000e+00  0.00000000e+00
  0.00000000e+00  0.00000000e+00 -5.18350561e-06  1.06076337e-06
  0.00000000e+00  0.00000000e+00  0.00000000e+00  5.81981841e-06]","[[-0.00163473  0.04440386]
 [-0.00102253 -0.01446855]]",[],0.0,0.0
1787561998.8234208,1.6983841349852495,0.8123620759580722,1.9662899318066573,"[ 8.76118101e-05  1.07820537e-05  0.00000000e+00  0.00000000e+00
  0.00000000e+00 -5.18350561e-06  1.07820537e-05  4.47147995e-05
  0.00000000e+00  0.00000000e+00  0.00000000e+00  1.06076337e-06
  0.00000000e+00  0.00000000e+00  0.00000000e+00  0.00000000e+00
  0.00000000e+00  0.00000000e+00  0.00000000e+00  0.00000000e+00
  0.00000000e+00  0.00000000e+00  0.00000000e+00  0.00000000e+00
  0.00000000e+00  0.00000000e+00  0.00000000e+00  0.00000000e+00
  0.00000000e+00  0.00000000e+00 -5.18350561e-06  1.06076337e-06
  0.00000000e+00  0.00000000e+00  0.00000000e+00  5.81981841e-06]","[[-0.00163473  0.04440386]
 [-0.00102253 -0.01446855]]",[],0.0,0.0
1787561998.8694487,1.6983841349852495,0.8123620759580722,1.9662899318066573,"[ 8.76118101e-05  1.07820537e-05  0.00000000e+00  0.00000000e+00
  0.00000000e+00 -5.18350561e-06  1.07820537e-05  4.47147995e-05
  0.00000000e+00  0.00000000e+00  0.00000000e+00  1.06076337e-06
  0.00000000e+00  0.00000000e+00  0.00000000e+00  0.00000000e+00
  0.00000000e+00  0.00000000e+00  0.00000000e+00  0.00000000e+00
  0.00000000e+00  0.00000000e+00  0.00000000e+00  0.00000000e+00
  0.00000000e+00  0.00000000e+00  0.00000000e+00  0.00000000e+00
  0.00000000e+00  0.00000000e+00 -5.18350561e-06  1.06076337e-06
  0.00000000e+00  0.00000000e+00  0.00000000e+00  5.81981841e-06]","[[-0.00163473  0.04440386]
 [-0.00102253 -0.01446855]]",[],0.0,0.0
1787561998.9183383,1.6983841349852495,0.8123620759580722,1.9662899318066573,"[ 8.76118101e-05  1.07820537e-05  0.00000000e+00  0.00000000e+00
  0.00000000e+00 -5.18350561e-06  1.07820537e-05  4.47147995e-05
  0.00000000e+00  0.00000000e+00  0.00000000e+00  1.06076337e-06
  0.00000000e+00  0.00000000e+00  0.00000000e+00  0.00000000e+00
  0.00000000e+00  0.00000000e+00  0.00000000e+00  0.00000000e+00
  0.00000000e+00  0.00000000e+00  0.00000000e+00  0.00000000e+00
  0.00000000e+00  0.00000000e+00  0.00000000e+00  0.00000000e+00
  0.00000000e+00  0.00000000e+00 -5.18350561e-06  1.06076337e-06
  0.00000000e+00  0.00000000e+00  0.00000000e+00  5.81981841e-06]","[[-0.00163473  0.04440386]
 [-0.00102253 -0.01446855]]",[],0.0,0.0
1787561998.9685283,1.6983841349852495,0.8123620759580722,1.9662899318066573,"[ 8.76118101e-05  1.07820537e-05  0.00000000e+00  0.00000000e+00
  0.00000000e+00 -5.18350561e-06  1.07820537e-05  4.47147995e-05
  0.00000000e+00  0.00000000e+00  0.00000000e+00  1.06076337e-06
  0.00000000e+00  0.00000000e+00  0.00000000e+00  0.00000000e+00
  0.00000000e+00  0.00000000e+00  0.00000000e+00  0.00000000e+00
  0.00000000e+00  0.00000000e+00  0.00000000e+00  0.00000000e+00
  0.00000000e+00  0.00000000e+00  0.00000000e+00  0.00000000e+00
  0.00000000e+00  0.00000000e+00 -5.18350561e-06  1.06076337e-06
  0.00000000e+00  0.00000000e+00  0.00000000e+00  5.81981841e-06]","[[-0.00163473  0.04440386]
 [-0.00102253 -0.01446855]]",[],0.0,0.0
1787561999.01874,1.6983841349852495,0.8123620759580722,1.9662899318066573,"[ 8.76118101e-05  1.07820537e-05  0.00000000e+00  0.00000000e+00
  0.00000000e+00 -5.18350561e-06  1.07820537e-05  4.47147995e-05
  0.00000000e+00  0.00000000e+00  0.00000000e+00  1.06076337e-06
  0.00000000e+00  0.00000000e+00  0.00000000e+00  0.00000000e+00
  0.00000000e+00  0.00000000e+00  0.00000000e+00  0.00000000e+00
  0.00000000e+00  0.00000000e+00  0.00000000e+00  0.00000000e+00
  0.00000000e+00  0.00000000e+00  0.00000000e+00  0.00000000e+00
  0.00000000e+00  0.00000000e+00 -5.18350561e-06  1.06076337e-06
  0.00000000e+00  0.00000000e+00  0.00000000e+00  5.81981841e-06]","[[-0.00163473  0.04440386]
 [-0.00102253 -0.01446855]]",[],0.0,0.0
1787561999.0724876,1.6983841349852495,0.8123620759580722,1.9662899318066573,"[ 8.76118101e-05  1.07820537e-05  0.00000000e+00  0.00000000e+00
  0.00000000e+00 -5.18350561e-06  1.07820537e-05  4.47147995e-05
  0.00000000e+00  0.00000000e+00  0.00000000e+00  1.06076337e-06
  0.00000000e+00  0.00000000e+00  0.00000000e+00  0.00000000e+00
  0.00000000e+00  0.00000000e+00  0.00000000e+00  0.00000000e+00
  0.00000000e+00  0.00000000e+00  0.00000000e+00  0.00000000e+00
  0.00000000e+00  0.00000000e+00  0.00000000e+00  0.00000000e+00
  0.00000000e+00  0.00000000e+00 -5.18350561e-06  1.06076337e-06
  0.00000000e+00  0.00000000e+00  0.00000000e+00  5.81981841e-06]","[[-0.00163473  0.04440386]
 [-0.00102253 -0.01446855]]",[],0.0,0.0
1787561999.1197555,1.6983841349852495,0.8123620759580722,1.9662899318066573,"[ 8.76118101e-05  1.07820537e-05  0.00000000e+00  0.00000000e+00
  0.00000000e+00 -5.18350561e-06  1.07820537e-05  4.47147995e-05
  0.00000000e+00  0.00000000e+00  0.00000000e+00  1.06076337e-06
  0.00000000e+00  0.00000000e+00  0.00000000e+00  0.00000000e+00
  0.00000000e+00  0.00000000e+00  0.00000000e+00  0.00000000e+00
  0.00000000e+00  0.00000000e+00  0.00000000e+00  0.00000000e+00
  0.00000000e+00  0.00000000e+00  0.00000000e+00  0.00000000e+00
  0.00000000e+00  0.00000000e+00 -5.18350561e-06  1.06076337e-06
  0.00000000e+00  0.00000000e+00  0.00000000e+00  5.81981841e-06]","[[-0.00163473  0.04440386]
 [-0.00102253 -0.01446855]]",[],0.0,0.0
1787561999.1766627,1.6983841349852495,0.8123620759580722,1.9662899318066573,"[ 8.76118101e-05  1.07820537e-05  0.00000000e+00  0.00000000e+00
  0.00000000e+00 -5.18350561e-06  1.07820537e-05  4.47147995e-05
  0.00000000e+00  0.00000000e+00  0.00000000e+00  1.06076337e-06
  0.00000000e+00  0.00000000e+00  0.00000000e+00  0.00000000e+00
  0.00000000e+00  0.00000000e+00  0.00000000e+00  0.00000000e+00
  0.00000000e+00  0.00000000e+00  0.00000000e+00  0.00000000e+00
  0.00000000e+00  0.00000000e+00  0.00000000e+00  0.00000000e+00
  0.00000000e+00  0.00000000e+00 -5.18350561e-06  1.06076337e-06
  0.00000000e+00  0.00000000e+00  0.00000000e+00  5.81981841e-06]","[[-0.00163473  0.04440386]
 [-0.00102253 -0.01446855]]",[],0.0,0.0
1787561999.222156,1.6983841349852495,0.8123620759580722,1.9662899318066573,"[ 8.76118101e-05  1.07820537e-05  0.00000000e+00  0.00000000e+00
  0.00000000e+00 -5.18350561e-06  1.07820537e-05  4.47147995e-05
  0.00000000e+00  0.00000000e+00  0.00000000e+00  1.06076337e-06
  0.00000000e+00  0.00000000e+00  0.00000000e+00  0.00000000e+00
  0.00000000e+00  0.00000000e+00  0.00000000e+00  0.00000000e+00
  0.00000000e+00  0.00000000e+00  0.00000000e+00  0.00000000e+00
  0.00000000e+00  0.00000000e+00  0.00000000e+00  0.00000000e+00
  0.00000000e+00  0.00000000e+00 -5.18350561e-06  1.06076337e-06
  0.00000000e+00  0.00000000e+00  0.00000000e+00  5.81981841e-06]","[[-0.00163473  0.04440386]
 [-0.00102253 -0.01446855]]",[],0.0,0.0
1787561999.275456,1.6983841349852495,0.8123620759580722,1.9662899318066573,"[ 8.76118101e-05  1.07820537e-05  0.00000000e+00  0.00000000e+00
  0.00000000e+00 -5.18350561e-06  1.07820537e-05  4.47147995e-05
  0.00000000e+00  0.00000000e+00  0.00000000e+00  1.06076337e-06
  0.00000000e+00  0.00000000e+00  0.00000000e+00  0.00000000e+00
  0.00000000e+00  0.00000000e+00  0.00000000e+00  0.00000000e+00
  0.00000000e+00  0.00000000e+00  0.00000000e+00  0.00000000e+00
  0.00000000e+00  0.00000000e+00  0.00000000e+00  0.00000000e+00
  0.00000000e+00  0.00000000e+00 -5.18350561e-06  1.06076337e-06
  0.00000000e+00  0.00000000e+00  0.00000000e+00  5.81981841e-06]","[[-0.00163473  0.04440386]
 [-0.00102253 -0.01446855]]",[],0.0,0.0
1787561999.3200312,1.7280396417888293,0.8171177999236624,2.0359734476261306,"[ 3.95289342e-05  3.56416188e-06  0.00000000e+00  0.00000000e+00
  0.00000000e+00 -3.39816315e-06  3.56416188e-06  2.42755522e-05
  0.00000000e+00  0.00000000e+00  0.00000000e+00 -1.11074811e-06
  0.00000000e+00  0.00000000e+00  0.00000000e+00  0.00000000e+00
  0.00000000e+00  0.00000000e+00  0.00000000e+00  0.00000000e+00
  0.00000000e+00  0.00000000e+00  0.00000000e+00  0.00000000e+00
  0.00000000e+00  0.00000000e+00  0.00000000e+00  0.00000000e+00
  0.00000000e+00  0.00000000e+00 -3.39816315e-06 -1.11074811e-06
  0.00000000e+00  0.00000000e+00  0.00000000e+00  4.36536433e-06]","[[-0.0006685   0.01801686]
 [-0.00053726 -0.00316693]]",[],0.0,0.0
1787561999.3697157,1.7280396417888293,0.8171177999236624,2.0359734476261306,"[ 3.95289342e-05  3.56416188e-06  0.00000000e+00  0.00000000e+00
  0.00000000e+00 -3.39816315e-06  3.56416188e-06  2.42755522e-05
  0.00000000e+00  0.00000000e+00  0.00000000e+00 -1.11074811e-06
  0.00000000e+00  0.00000000e+00  0.00000000e+00  0.00000000e+00
  0.00000000e+00  0.00000000e+00  0.00000000e+00  0.00000000e+00
  0.00000000e+00  0.00000000e+00  0.00000000e+00  0.00000000e+00
  0.00000000e+00  0.00000000e+00  0.00000000e+00  0.00000000e+00
  0.00000000e+00  0.00000000e+00 -3.39816315e-06 -1.11074811e-06
  0.00000000e+00  0.00000000e+00  0.00000000e+00  4.36536433e-06]","[[-0.0006685   0.01801686]
 [-0.00053726 -0.00316693]]",[],0.0,0.0
1787561999.4185011,1.7280396417888293,0.8171177999236624,2.0359734476261306,"[ 3.95289342e-05  3.56416188e-06  0.00000000e+00  0.00000000e+00
  0.00000000e+00 -3.39816315e-06  3.56416188e-06  2.42755522e-05
  0.00000000e+00  0.00000000e+00  0.00000000e+00 -1.11074811e-06
  0.00000000e+00  0.00000000e+00  0.00000000e+00  0.00000000e+00
  0.00000000e+00  0.00000000e+00  0.00000000e+00  0.00000000e+00
  0.00000000e+00  0.00000000e+00  0.00000000e+00  0.00000000e+00
  0.00000000e+00  0.00000000e+00  0.00000000e+00  0.00000000e+00
  0.00000000e+00  0.00000000e+00 -3.39816315e-06 -1.11074811e-06
  0.00000000e+00  0.00000000e+00  0.00000000e+00  4.36536433e-06]","[[-0.0006685   0.01801686]
 [-0.00053726 -0.00316693]]",[],0.0,0.0
1787561999.471415,1.7280396417888293,0.8171177999236624,2.0359734476261306,"[ 3.95289342e-05  3.56416188e-06  0.00000000e+00  0.00000000e+00
  0.00000000e+00 -3.39816315e-06  3.56416188e-06  2.42755522e-05
  0.00000000e+00  0.00000000e+00  0.00000000e+00 -1.11074811e-06
  0.00000000e+00  0.00000000e+00  0.00000000e+00  0.00000000e+00
  0.00000000e+00  0.00000000e+00  0.00000000e+00  0.00000000e+00
  0.00000000e+00  0.00000000e+00  0.00000000e+00  0.00000000e+00
  0.00000000e+00  0.00000000e+00  0.00000000e+00  0.00000000e+00
  0.00000000e+00  0.00000000e+00 -3.39816315e-06 -1.11074811e-06
  0.00000000e+00  0.00000000e+00  0.00000000e+00  4.36536433e-06]","[[-0.0006685   0.01801686]
 [-0.00053726 -0.00316693]]",[],0.0,0.0
1787561999.5204644,1.7280396417888293,0.8171177999236624,2.0359734476261306,"[ 3.95289342e-05  3.56416188e-06  0.00000000e+00  0.00000000e+00
  0.00000000e+00 -3.39816315e-06  3.56416188e-06  2.42755522e-05
  0.00000000e+00  0.00000000e+00  0.00000000e+00 -1.11074811e-06
  0.00000000e+00  0.00000000e+00  0.00000000e+00  0.00000000e+00
  0.00000000e+00  0.00000000e+00  0.00000000e+00  0.00000000e+00
  0.00000000e+00  0.00000000e+00  0.00000000e+00  0.00000000e+00
  0.00000000e+00  0.00000000e+00  0.00000000e+00  0.00000000e+00
  0.00000000e+00  0.00000000e+00 -3.39816315e-06 -1.11074811e-06
  0.00000000e+00  0.00000000e+00  0.00000000e+00  4.36536433e-06]","[[-0.0006685   0.01801686]
 [-0.00053726 -0.00316693]]",[],0.0,0.0
1787561999.5741181,1.7280396417888293,0.8171177999236624,2.0359734476261306,"[ 3.95289342e-05  3.56416188e-06  0.00000000e+00  0.00000000e+00
  0.00000000e+00 -3.39816315e-06  3.56416188e-06  2.42755522e-05
  0.00000000e+00  0.00000000e+00  0.00000000e+00 -1.11074811e-06
  0.00000000e+00  0.00000000e+00  0.00000000e+00  0.00000000e+00
  0.00000000e+00  0.00000000e+00  0.00000000e+00  0.00000000e+00
  0.00000000e+00  0.00000000e+00  0.00000000e+00  0.00000000e+00
  0.00000000e+00  0.00000000e+00  0.00000000e+00  0.00000000e+00
  0.00000000e+00  0.00000000e+00 -3.39816315e-06 -1.11074811e-06
  0.00000000e+00  0.00000000e+00  0.00000000e+00  4.36536433e-06]","[[-0.0006685   0.01801686]
 [-0.00053726 -0.00316693]]",[],0.0,0.0
1787561999.6189537,1.7280396417888293,0.8171177999236624,2.0359734476261306,"[ 3.95289342e-05  3.56416188e-06  0.00000000e+00  0.00000000e+00
  0.00000000e+00 -3.39816315e-06  3.56416188e-06  2.42755522e-05
  0.00000000e+00  0.00000000e+00  0.00000000e+00 -1.11074811e-06
  0.00000000e+00  0.00000000e+00  0.00000000e+00  0.00000000e+00
  0.00000000e+00  0.00000000e+00  0.00000000e+00  0.00000000e+00
  0.00000000e+00  0.00000000e+00  0.00000000e+00  0.00000000e+00
  0.00000000e+00  0.00000000e+00  0.00000000e+00  0.00000000e+00
  0.00000000e+00  0.00000000e+00 -3.39816315e-06 -1.11074811e-06
  0.00000000e+00  0.00000000e+00  0.00000000e+00  4.36536433e-06]","[[-0.0006685   0.01801686]
 [-0.00053726 -0.00316693]]",[],0.0,0.0
1787561999.6699934,1.7280396417888293,0.8171177999236624,2.0359734476261306,"[ 3.95289342e-05  3.56416188e-06  0.00000000e+00  0.00000000e+00
  0.00000000e+00 -3.39816315e-06  3.56416188e-06  2.42755522e-05
  0.00000000e+00  0.00000000e+00  0.00000000e+00 -1.11074811e-06
  0.00000000e+00  0.00000000e+00  0.00000000e+00  0.00000000e+00
  0.00000000e+00  0.00000000e+00  0.00000000e+00  0.00000000e+00
  0.00000000e+00  0.00000000e+00  0.00000000e+00  0.00000000e+00
  0.00000000e+00  0.00000000e+00  0.00000000e+00  0.00000000e+00
  0.00000000e+00  0.00000000e+00 -3.39816315e-06 -1.11074811e-06
  0.00000000e+00  0.00000000e+00  0.00000000e+00  4.36536433e-06]","[[-0.0006685   0.01801686]
 [-0.00053726 -0.00316693]]",[],0.0,0.0
1787561999.7196705,1.7280396417888293,0.8171177999236624,2.0359734476261306,"[ 3.95289342e-05  3.56416188e-06  0.00000000e+00  0.00000000e+00
  0.00000000e+00 -3.39816315e-06  3.56416188e-06  2.42755522e-05
  0.00000000e+00  0.00000000e+00  0.00000000e+00 -1.11074811e-06
  0.00000000e+00  0.00000000e+00  0.00000000e+00  0.00000000e+00
  0.00000000e+00  0.00000000e+00  0.00000000e+00  0.00000000e+00
  0.00000000e+00  0.00000000e+00  0.00000000e+00  0.00000000e+00
  0.00000000e+00  0.00000000e+00  0.00000000e+00  0.00000000e+00
  0.00000000e+00  0.00000000e+00 -3.39816315e-06 -1.11074811e-06
  0.00000000e+00  0.00000000e+00  0.00000000e+00  4.36536433e-06]","[[-0.0006685   0.01801686]
 [-0.00053726 -0.00316693]]",[],0.0,0.0
1787561999.7694638,1.7280396417888293,0.8171177999236624,2.0359734476261306,"[ 3.95289342e-05  3.56416188e-06  0.00000000e+00  0.00000000e+00
  0.00000000e+00 -3.39816315e-06  3.56416188e-06  2.42755522e-05
  0.00000000e+00  0.00000000e+00  0.00000000e+00 -1.11074811e-06
  0.00000000e+00  0.00000000e+00  0.00000000e+00  0.00000000e+00
  0.00000000e+00  0.00000000e+00  0.00000000e+00  0.00000000e+00
  0.00000000e+00  0.00000000e+00  0.00000000e+00  0.00000000e+00
  0.00000000e+00  0.00000000e+00  0.00000000e+00  0.00000000e+00
  0.00000000e+00  0.00000000e+00 -3.39816315e-06 -1.11074811e-06
  0.00000000e+00  0.00000000e+00  0.00000000e+00  4.36536433e-06]","[[-0.0006685   0.01801686]
 [-0.00053726 -0.00316693]]",[],0.0,0.0
1787561999.822714,1.7280396417888293,0.8171177999236624,2.0359734476261306,"[ 3.95289342e-05  3.56416188e-06  0.00000000e+00  0.00000000e+00
  0.00000000e+00 -3.39816315e-06  3.56416188e-06  2.42755522e-05
  0.00000000e+00  0.00000000e+00  0.00000000e+00 -1.11074811e-06
  0.00000000e+00  0.00000000e+00  0.00000000e+00  0.00000000e+00
  0.00000000e+00  0.00000000e+00  0.00000000e+00  0.00000000e+00
  0.00000000e+00  0.00000000e+00  0.00000000e+00  0.00000000e+00
  0.00000000e+00  0.00000000e+00  0.00000000e+00  0.00000000e+00
  0.00000000e+00  0.00000000e+00 -3.39816315e-06 -1.11074811e-06
  0.00000000e+00  0.00000000e+00  0.00000000e+00  4.36536433e-06]","[[-0.0006685   0.01801686]
 [-0.00053726 -0.00316693]]",[],0.0,0.0
1787561999.8686233,1.7280396417888293,0.8171177999236624,2.0359734476261306,"[ 3.95289342e-05  3.56416188e-06  0.00000000e+00  0.00000000e+00
  0.00000000e+00 -3.39816315e-06  3.56416188e-06  2.42755522e-05
  0.00000000e+00  0.00000000e+00  0.00000000e+00 -1.11074811e-06
  0.00000000e+00  0.00000000e+00  0.00000000e+00  0.00000000e+00
  0.00000000e+00  0.00000000e+00  0.00000000e+00  0.00000000e+00
  0.00000000e+00  0.00000000e+00  0.00000000e+00  0.00000000e+00
  0.00000000e+00  0.00000000e+00  0.00000000e+00  0.00000000e+00
  0.00000000e+00  0.00000000e+00 -3.39816315e-06 -1.11074811e-06
  0.00000000e+00  0.00000000e+00  0.00000000e+00  4.36536433e-06]","[[-0.0006685   0.01801686]
 [-0.00053726 -0.00316693]]",[],0.0,0.0
1787561999.924452,1.7280396417888293,0.8171177999236624,2.0359734476261306,"[ 3.95289342e-05  3.56416188e-06  0.00000000e+00  0.00000000e+00
  0.00000000e+00 -3.39816315e-06  3.56416188e-06  2.42755522e-05
  0.00000000e+00  0.00000000e+00  0.00000000e+00 -1.11074811e-06
  0.00000000e+00  0.00000000e+00  0.00000000e+00  0.00000000e+00
  0.00000000e+00  0.00000000e+00  0.00000000e+00  0.00000000e+00
  0.00000000e+00  0.00000000e+00  0.00000000e+00  0.00000000e+00
  0.00000000e+00  0.00000000e+00  0.00000000e+00  0.00000000e+00
  0.00000000e+00  0.00000000e+00 -3.39816315e-06 -1.11074811e-06
  0.00000000e+00  0.00000000e+00  0.00000000e+00  4.36536433e-06]","[[-0.0006685   0.01801686]
 [-0.00053726 -0.00316693]]",[],0.0,0.0
1787561999.9703424,1.7280396417888293,0.8171177999236624,2.0359734476261306,"[ 3.95289342e-05  3.56416188e-06  0.00000000e+00  0.00000000e+00
  0.00000000e+00 -3.39816315e-06  3.56416188e-06  2.42755522e-05
  0.00000000e+00  0.00000000e+00  0.00000000e+00 -1.11074811e-06
  0.00000000e+00  0.00000000e+00  0.00000000e+00  0.00000000e+00
  0.00000000e+00  0.00000000e+00  0.00000000e+00  0.00000000e+00
  0.00000000e+00  0.00000000e+00  0.00000000e+00  0.00000000e+00
  0.00000000e+00  0.00000000e+00  0.00000000e+00  0.00000000e+00
  0.00000000e+00  0.00000000e+00 -3.39816315e-06 -1.11074811e-06
  0.00000000e+00  0.00000000e+00  0.00000000e+00  4.36536433e-06]","[[-0.0006685   0.01801686]
 [-0.00053726 -0.00316693]]",[],0.0,0.0
1787562000.0221853,1.7280396417888293,0.8171177999236624,2.0359734476261306,"[ 3.95289342e-05  3.56416188e-06  0.00000000e+00  0.00000000e+00
  0.00000000e+00 -3.39816315e-06  3.56416188e-06  2.42755522e-05
  0.00000000e+00  0.00000000e+00  0.00000000e+00 -1.11074811e-06
  0.00000000e+00  0.00000000e+00  0.00000000e+00  0.00000000e+00
  0.00000000e+00  0.00000000e+00  0.00000000e+00  0.00000000e+00
  0.00000000e+00  0.00000000e+00  0.00000000e+00  0.00000000e+00
  0.00000000e+00  0.00000000e+00  0.00000000e+00  0.00000000e+00
  0.00000000e+00  0.00000000e+00 -3.39816315e-06 -1.11074811e-06
  0.00000000e+00  0.00000000e+00  0.00000000e+00  4.36536433e-06]","[[-0.0006685   0.01801686]
 [-0.00053726 -0.00316693]]",[],0.0,0.0
1787562000.0740855,1.7280396417888293,0.8171177999236624,2.0359734476261306,"[ 3.95289342e-05  3.56416188e-06  0.00000000e+00  0.00000000e+00
  0.00000000e+00 -3.39816315e-06  3.56416188e-06  2.42755522e-05
  0.00000000e+00  0.00000000e+00  0.00000000e+00 -1.11074811e-06
  0.00000000e+00  0.00000000e+00  0.00000000e+00  0.00000000e+00
  0.00000000e+00  0.00000000e+00  0.00000000e+00  0.00000000e+00
  0.00000000e+00  0.00000000e+00  0.00000000e+00  0.00000000e+00
  0.00000000e+00  0.00000000e+00  0.00000000e+00  0.00000000e+00
  0.00000000e+00  0.00000000e+00 -3.39816315e-06 -1.11074811e-06
  0.00000000e+00  0.00000000e+00  0.00000000e+00  4.36536433e-06]","[[-0.0006685   0.01801686]
 [-0.00053726 -0.00316693]]",[],0.0,0.0
1787562000.1191866,1.7280396417888293,0.8171177999236624,2.0359734476261306,"[ 3.95289342e-05  3.56416188e-06  0.00000000e+00  0.00000000e+00
  0.00000000e+00 -3.39816315e-06  3.56416188e-06  2.42755522e-05
  0.00000000e+00  0.00000000e+00  0.00000000e+00 -1.11074811e-06
  0.00000000e+00  0.00000000e+00  0.00000000e+00  0.00000000e+00
  0.00000000e+00  0.00000000e+00  0.00000000e+00  0.00000000e+00
  0.00000000e+00  0.00000000e+00  0.00000000e+00  0.00000000e+00
  0.00000000e+00  0.00000000e+00  0.00000000e+00  0.00000000e+00
  0.00000000e+00  0.00000000e+00 -3.39816315e-06 -1.11074811e-06
  0.00000000e+00  0.00000000e+00  0.00000000e+00  4.36536433e-06]","[[-0.0006685   0.01801686]
 [-0.00053726 -0.00316693]]",[],0.0,0.0
1787562000.169355,1.7280396417888293,0.8171177999236624,2.0359734476261306,"[ 3.95289342e-05  3.56416188e-06  0.00000000e+00  0.00000000e+00
  0.00000000e+00 -3.39816315e-06  3.56416188e-06  2.42755522e-05
  0.00000000e+00  0.00000000e+00  0.00000000e+00 -1.11074811e-06
  0.00000000e+00  0.00000000e+00  0.00000000e+00  0.00000000e+00
  0.00000000e+00  0.00000000e+00  0.00000000e+00  0.00000000e+00
  0.00000000e+00  0.00000000e+00  0.00000000e+00  0.00000000e+00
  0.00000000e+00  0.00000000e+00  0.00000000e+00  0.00000000e+00
  0.00000000e+00  0.00000000e+00 -3.39816315e-06 -1.11074811e-06
  0.00000000e+00  0.00000000e+00  0.00000000e+00  4.36536433e-06]","[[-0.0006685   0.01801686]
 [-0.00053726 -0.00316693]]",[],0.0,0.0
1787562000.2196786,1.7280396417888293,0.8171177999236624,2.0359734476261306,"[ 3.95289342e-05  3.56416188e-06  0.00000000e+00  0.00000000e+00
  0.00000000e+00 -3.39816315e-06  3.56416188e-06  2.42755522e-05
  0.00000000e+00  0.00000000e+00  0.00000000e+00 -1.11074811e-06
  0.00000000e+00  0.00000000e+00  0.00000000e+00  0.00000000e+00
  0.00000000e+00  0.00000000e+00  0.00000000e+00  0.00000000e+00
  0.00000000e+00  0.00000000e+00  0.00000000e+00  0.00000000e+00
  0.00000000e+00  0.00000000e+00  0.00000000e+00  0.00000000e+00
  0.00000000e+00  0.00000000e+00 -3.39816315e-06 -1.11074811e-06
  0.00000000e+00  0.00000000e+00  0.00000000e+00  4.36536433e-06]","[[-0.0006685   0.01801686]
 [-0.00053726 -0.00316693]]",[],0.0,0.0
1787562000.2686377,1.7280396417888293,0.8171177999236624,2.0359734476261306,"[ 3.95289342e-05  3.56416188e-06  0.00000000e+00  0.00000000e+00
  0.00000000e+00 -3.39816315e-06  3.56416188e-06  2.42755522e-05
  0.00000000e+00  0.00000000e+00  0.00000000e+00 -1.11074811e-06
  0.00000000e+00  0.00000000e+00  0.00000000e+00  0.00000000e+00
  0.00000000e+00  0.00000000e+00  0.00000000e+00  0.00000000e+00
  0.00000000e+00  0.00000000e+00  0.00000000e+00  0.00000000e+00
  0.00000000e+00  0.00000000e+00  0.00000000e+00  0.00000000e+00
  0.00000000e+00  0.00000000e+00 -3.39816315e-06 -1.11074811e-06
  0.00000000e+00  0.00000000e+00  0.00000000e+00  4.36536433e-06]","[[-0.0006685   0.01801686]
 [-0.00053726 -0.00316693]]",[],0.0,0.0
1787562000.3196683,1.7280396417888293,0.8171177999236624,2.0359734476261306,"[ 3.95289342e-05  3.56416188e-06  0.00000000e+00  0.00000000e+00
  0.00000000e+00 -3.39816315e-06  3.56416188e-06  2.42755522e-05
  0.00000000e+00  0.00000000e+00  0.00000000e+00 -1.11074811e-06
  0.00000000e+00  0.00000000e+00  0.00000000e+00  0.00000000e+00
  0.00000000e+00  0.00000000e+00  0.00000000e+00  0.00000000e+00
  0.00000000e+00  0.00000000e+00  0.00000000e+00  0.00000000e+00
  0.00000000e+00  0.00000000e+00  0.00000000e+00  0.00000000e+00
  0.00000000e+00  0.00000000e+00 -3.39816315e-06 -1.11074811e-06
  0.00000000e+00  0.00000000e+00  0.00000000e+00  4.36536433e-06]","[[-0.0006685   0.01801686]
 [-0.00053726 -0.00316693]]",[],0.0,0.0
1787562000.3702755,1.7280396417888293,0.8171177999236624,2.0359734476261306,"[ 3.95289342e-05  3.56416188e-06  0.00000000e+00  0.00000000e+00
  0.00000000e+00 -3.39816315e-06  3.56416188e-06  2.42755522e-05
  0.00000000e+00  0.00000000e+00  0.00000000e+00 -1.11074811e-06
  0.00000000e+00  0.00000000e+00  0.00000000e+00  0.00000000e+00
  0.00000000e+00  0.00000000e+00  0.00000000e+00  0.00000000e+00
  0.00000000e+00  0.00000000e+00  0.00000000e+00  0.00000000e+00
  0.00000000e+00  0.00000000e+00  0.00000000e+00  0.00000000e+00
  0.00000000e+00  0.00000000e+00 -3.39816315e-06 -1.11074811e-06
  0.00000000e+00  0.00000000e+00  0.00000000e+00  4.36536433e-06]","[[-0.0006685   0.01801686]
 [-0.00053726 -0.00316693]]",[],0.0,0.0
1787562000.4183877,1.7280396417888293,0.8171177999236624,2.0359734476261306,"[ 3.95289342e-05  3.56416188e-06  0.00000000e+00  0.00000000e+00
  0.00000000e+00 -3.39816315e-06  3.56416188e-06  2.42755522e-05
  0.00000000e+00  0.00000000e+00  0.00000000e+00 -1.11074811e-06
  0.00000000e+00  0.00000000e+00  0.00000000e+00  0.00000000e+00
  0.00000000e+00  0.00000000e+00  0.00000000e+00  0.00000000e+00
  0.00000000e+00  0.00000000e+00  0.00000000e+00  0.00000000e+00
  0.00000000e+00  0.00000000e+00  0.00000000e+00  0.00000000e+00
  0.00000000e+00  0.00000000e+00 -3.39816315e-06 -1.11074811e-06
  0.00000000e+00  0.00000000e+00  0.00000000e+00  4.36536433e-06]","[[-0.0006685   0.01801686]
 [-0.00053726 -0.00316693]]",[],0.0,0.0
1787562000.4685192,1.7280396417888293,0.8171177999236624,2.0359734476261306,"[ 3.95289342e-05  3.56416188e-06  0.00000000e+00  0.00000000e+00
  0.00000000e+00 -3.39816315e-06  3.56416188e-06  2.42755522e-05
  0.00000000e+00  0.00000000e+00  0.00000000e+00 -1.11074811e-06
  0.00000000e+00  0.00000000e+00  0.00000000e+00  0.00000000e+00
  0.00000000e+00  0.00000000e+00  0.00000000e+00  0.00000000e+00
  0.00000000e+00  0.00000000e+00  0.00000000e+00  0.00000000e+00
  0.00000000e+00  0.00000000e+00  0.00000000e+00  0.00000000e+00
  0.00000000e+00  0.00000000e+00 -3.39816315e-06 -1.11074811e-06
  0.00000000e+00  0.00000000e+00  0.00000000e+00  4.36536433e-06]","[[-0.0006685   0.01801686]
 [-0.00053726 -0.00316693]]",[],0.0,0.0
1787562000.518766,1.7280396417888293,0.8171177999236624,2.0359734476261306,"[ 3.95289342e-05  3.56416188e-06  0.00000000e+00  0.00000000e+00
  0.00000000e+00 -3.39816315e-06  3.56416188e-06  2.42755522e-05
  0.00000000e+00  0.00000000e+00  0.00000000e+00 -1.11074811e-06
  0.00000000e+00  0.00000000e+00  0.00000000e+00  0.00000000e+00
  0.00000000e+00  0.00000000e+00  0.00000000e+00  0.00000000e+00
  0.00000000e+00  0.00000000e+00  0.00000000e+00  0.00000000e+00
  0.00000000e+00  0.00000000e+00  0.00000000e+00  0.00000000e+00
  0.00000000e+00  0.00000000e+00 -3.39816315e-06 -1.11074811e-06
  0.00000000e+00  0.00000000e+00  0.00000000e+00  4.36536433e-06]","[[-0.0006685   0.01801686]
 [-0.00053726 -0.00316693]]",[],0.0,0.0
1787562000.5704198,1.7280396417888293,0.8171177999236624,2.0359734476261306,"[ 3.95289342e-05  3.56416188e-06  0.00000000e+00  0.00000000e+00
  0.00000000e+00 -3.39816315e-06  3.56416188e-06  2.42755522e-05
  0.00000000e+00  0.00000000e+00  0.00000000e+00 -1.11074811e-06
  0.00000000e+00  0.00000000e+00  0.00000000e+00  0.00000000e+00
  0.00000000e+00  0.00000000e+00  0.00000000e+00  0.00000000e+00
  0.00000000e+00  0.00000000e+00  0.00000000e+00  0.00000000e+00
  0.00000000e+00  0.00000000e+00  0.00000000e+00  0.00000000e+00
  0.00000000e+00  0.00000000e+00 -3.39816315e-06 -1.11074811e-06
  0.00000000e+00  0.00000000e+00  0.00000000e+00  4.36536433e-06]","[[-0.0006685   0.01801686]
 [-0.00053726 -0.00316693]]",[],0.0,0.0
1787562000.6203198,1.7280396417888293,0.8171177999236624,2.0359734476261306,"[ 3.95289342e-05  3.56416188e-06  0.00000000e+00  0.00000000e+00
  0.00000000e+00 -3.39816315e-06  3.56416188e-06  2.42755522e-05
  0.00000000e+00  0.00000000e+00  0.00000000e+00 -1.11074811e-06
  0.00000000e+00  0.00000000e+00  0.00000000e+00  0.00000000e+00
  0.00000000e+00  0.00000000e+00  0.00000000e+00  0.00000000e+00
  0.00000000e+00  0.00000000e+00  0.00000000e+00  0.00000000e+00
  0.00000000e+00  0.00000000e+00  0.00000000e+00  0.00000000e+00
  0.00000000e+00  0.00000000e+00 -3.39816315e-06 -1.11074811e-06
  0.00000000e+00  0.00000000e+00  0.00000000e+00  4.36536433e-06]","[[-0.0006685   0.01801686]
 [-0.00053726 -0.00316693]]",[],0.0,0.0
1787562000.668895,1.7280396417888293,0.8171177999236624,2.0359734476261306,"[ 3.95289342e-05  3.56416188e-06  0.00000000e+00  0.00000000e+00
  0.00000000e+00 -3.39816315e-06  3.56416188e-06  2.42755522e-05
  0.00000000e+00  0.00000000e+00  0.00000000e+00 -1.11074811e-06
  0.00000000e+00  0.00000000e+00  0.00000000e+00  0.00000000e+00
  0.00000000e+00  0.00000000e+00  0.00000000e+00  0.00000000e+00
  0.00000000e+00  0.00000000e+00  0.00000000e+00  0.00000000e+00
  0.00000000e+00  0.00000000e+00  0.00000000e+00  0.00000000e+00
  0.00000000e+00  0.00000000e+00 -3.39816315e-06 -1.11074811e-06
  0.00000000e+00  0.00000000e+00  0.00000000e+00  4.36536433e-06]","[[-0.0006685   0.01801686]
 [-0.00053726 -0.00316693]]",[],0.0,0.0
1787562000.7239132,1.7280396417888293,0.8171177999236624,2.0359734476261306,"[ 3.95289342e-05  3.56416188e-06  0.00000000e+00  0.00000000e+00
  0.00000000e+00 -3.39816315e-06  3.56416188e-06  2.42755522e-05
  0.00000000e+00  0.00000000e+00  0.00000000e+00 -1.11074811e-06
  0.00000000e+00  0.00000000e+00  0.00000000e+00  0.00000000e+00
  0.00000000e+00  0.00000000e+00  0.00000000e+00  0.00000000e+00
  0.00000000e+00  0.00000000e+00  0.00000000e+00  0.00000000e+00
  0.00000000e+00  0.00000000e+00  0.00000000e+00  0.00000000e+00
  0.00000000e+00  0.00000000e+00 -3.39816315e-06 -1.11074811e-06
  0.00000000e+00  0.00000000e+00  0.00000000e+00  4.36536433e-06]","[[-0.0006685   0.01801686]
 [-0.00053726 -0.00316693]]",[],0.0,0.0
1787562000.7780924,1.7506646910545547,0.8253860924765084,2.1563862186022913,"[ 2.40724602e-05  1.03436565e-06  0.00000000e+00  0.00000000e+00
  0.00000000e+00 -2.43196010e-06  1.03436565e-06  1.62491059e-05
  0.00000000e+00  0.00000000e+00  0.00000000e+00 -8.45410703e-07
  0.00000000e+00  0.00000000e+00  0.00000000e+00  0.00000000e+00
  0.00000000e+00  0.00000000e+00  0.00000000e+00  0.00000000e+00
  0.00000000e+00  0.00000000e+00  0.00000000e+00  0.00000000e+00
  0.00000000e+00  0.00000000e+00  0.00000000e+00  0.00000000e+00
  0.00000000e+00  0.00000000e+00 -2.43196010e-06 -8.45410703e-07
  0.00000000e+00  0.00000000e+00  0.00000000e+00  3.84577606e-06]","[[-0.00038201  0.01194033]
 [-0.00034039 -0.00239655]]",[],0.0,0.0
1787562000.8193188,1.7506646910545547,0.8253860924765084,2.1563862186022913,"[ 2.40724602e-05  1.03436565e-06  0.00000000e+00  0.00000000e+00
  0.00000000e+00 -2.43196010e-06  1.03436565e-06  1.62491059e-05
  0.00000000e+00  0.00000000e+00  0.00000000e+00 -8.45410703e-07
  0.00000000e+00  0.00000000e+00  0.00000000e+00  0.00000000e+00
  0.00000000e+00  0.00000000e+00  0.00000000e+00  0.00000000e+00
  0.00000000e+00  0.00000000e+00  0.00000000e+00  0.00000000e+00
  0.00000000e+00  0.00000000e+00  0.00000000e+00  0.00000000e+00
  0.00000000e+00  0.00000000e+00 -2.43196010e-06 -8.45410703e-07
  0.00000000e+00  0.00000000e+00  0.00000000e+00  3.84577606e-06]","[[-0.00038201  0.01194033]
 [-0.00034039 -0.00239655]]",[],0.0,0.0
1787562000.868261,1.7506646910545547,0.8253860924765084,2.1563862186022913,"[ 2.40724602e-05  1.03436565e-06  0.00000000e+00  0.00000000e+00
  0.00000000e+00 -2.43196010e-06  1.03436565e-06  1.62491059e-05
  0.00000000e+00  0.00000000e+00  0.00000000e+00 -8.45410703e-07
  0.00000000e+00  0.00000000e+00  0.00000000e+00  0.00000000e+00
  0.00000000e+00  0.00000000e+00  0.00000000e+00  0.00000000e+00
  0.00000000e+00  0.00000000e+00  0.00000000e+00  0.00000000e+00
  0.00000000e+00  0.00000000e+00  0.00000000e+00  0.00000000e+00
  0.00000000e+00  0.00000000e+00 -2.43196010e-06 -8.45410703e-07
  0.00000000e+00  0.00000000e+00  0.00000000e+00  3.84577606e-06]","[[-0.00038201  0.01194033]
 [-0.00034039 -0.00239655]]",[],0.0,0.0
1787562000.9200947,1.7506646910545547,0.8253860924765084,2.1563862186022913,"[ 2.40724602e-05  1.03436565e-06  0.00000000e+00  0.00000000e+00
  0.00000000e+00 -2.43196010e-06  1.03436565e-06  1.62491059e-05
  0.00000000e+00  0.00000000e+00  0.00000000e+00 -8.45410703e-07
  0.00000000e+00  0.00000000e+00  0.00000000e+00  0.00000000e+00
  0.00000000e+00  0.00000000e+00  0.00000000e+00  0.00000000e+00
  0.00000000e+00  0.00000000e+00  0.00000000e+00  0.00000000e+00
  0.00000000e+00  0.00000000e+00  0.00000000e+00  0.00000000e+00
  0.00000000e+00  0.00000000e+00 -2.43196010e-06 -8.45410703e-07
  0.00000000e+00  0.00000000e+00  0.00000000e+00  3.84577606e-06]","[[-0.00038201  0.01194033]
 [-0.00034039 -0.00239655]]",[],0.0,0.0
1787562000.9686565,1.7506646910545547,0.8253860924765084,2.1563862186022913,"[ 2.40724602e-05  1.03436565e-06  0.00000000e+00  0.00000000e+00
  0.00000000e+00 -2.43196010e-06  1.03436565e-06  1.62491059e-05
  0.00000000e+00  0.00000000e+00  0.00000000e+00 -8.45410703e-07
  0.00000000e+00  0.00000000e+00  0.00000000e+00  0.00000000e+00
  0.00000000e+00  0.00000000e+00  0.00000000e+00  0.00000000e+00
  0.00000000e+00  0.00000000e+00  0.00000000e+00  0.00000000e+00
  0.00000000e+00  0.00000000e+00  0.00000000e+00  0.00000000e+00
  0.00000000e+00  0.00000000e+00 -2.43196010e-06 -8.45410703e-07
  0.00000000e+00  0.00000000e+00  0.00000000e+00  3.84577606e-06]","[[-0.00038201  0.01194033]
 [-0.00034039 -0.00239655]]",[],0.0,0.0
1787562001.0361385,1.7506646910545547,0.8253860924765084,2.1563862186022913,"[ 2.40724602e-05  1.03436565e-06  0.00000000e+00  0.00000000e+00
  0.00000000e+00 -2.43196010e-06  1.03436565e-06  1.62491059e-05
  0.00000000e+00  0.00000000e+00  0.00000000e+00 -8.45410703e-07
  0.00000000e+00  0.00000000e+00  0.00000000e+00  0.00000000e+00
  0.00000000e+00  0.00000000e+00  0.00000000e+00  0.00000000e+00
  0.00000000e+00  0.00000000e+00  0.00000000e+00  0.00000000e+00
  0.00000000e+00  0.00000000e+00  0.00000000e+00  0.00000000e+00
  0.00000000e+00  0.00000000e+00 -2.43196010e-06 -8.45410703e-07
  0.00000000e+00  0.00000000e+00  0.00000000e+00  3.84577606e-06]","[[-0.00038201  0.01194033]
 [-0.00034039 -0.00239655]]",[],0.0,0.0
1787562001.0711129,1.7506646910545547,0.8253860924765084,2.1563862186022913,"[ 2.40724602e-05  1.03436565e-06  0.00000000e+00  0.00000000e+00
  0.00000000e+00 -2.43196010e-06  1.03436565e-06  1.62491059e-05
  0.00000000e+00  0.00000000e+00  0.00000000e+00 -8.45410703e-07
  0.00000000e+00  0.00000000e+00  0.00000000e+00  0.00000000e+00
  0.00000000e+00  0.00000000e+00  0.00000000e+00  0.00000000e+00
  0.00000000e+00  0.00000000e+00  0.00000000e+00  0.00000000e+00
  0.00000000e+00  0.00000000e+00  0.00000000e+00  0.00000000e+00
  0.00000000e+00  0.00000000e+00 -2.43196010e-06 -8.45410703e-07
  0.00000000e+00  0.00000000e+00  0.00000000e+00  3.84577606e-06]","[[-0.00038201  0.01194033]
 [-0.00034039 -0.00239655]]",[],0.0,0.0
1787562001.1193972,1.7506646910545547,0.8253860924765084,2.1563862186022913,"[ 2.40724602e-05  1.03436565e-06  0.00000000e+00  0.00000000e+00
  0.00000000e+00 -2.43196010e-06  1.03436565e-06  1.62491059e-05
  0.00000000e+00  0.00000000e+00  0.00000000e+00 -8.45410703e-07
  0.00000000e+00  0.00000000e+00  0.00000000e+00  0.00000000e+00
  0.00000000e+00  0.00000000e+00  0.00000000e+00  0.00000000e+00
  0.00000000e+00  0.00000000e+00  0.00000000e+00  0.00000000e+00
  0.00000000e+00  0.00000000e+00  0.00000000e+00  0.00000000e+00
  0.00000000e+00  0.00000000e+00 -2.43196010e-06 -8.45410703e-07
  0.00000000e+00  0.00000000e+00  0.00000000e+00  3.84577606e-06]","[[-0.00038201  0.01194033]
 [-0.00034039 -0.00239655]]",[],0.0,0.0
1787562001.168481,1.7506646910545547,0.8253860924765084,2.1563862186022913,"[ 2.40724602e-05  1.03436565e-06  0.00000000e+00  0.00000000e+00
  0.00000000e+00 -2.43196010e-06  1.03436565e-06  1.62491059e-05
  0.00000000e+00  0.00000000e+00  0.00000000e+00 -8.45410703e-07
  0.00000000e+00  0.00000000e+00  0.00000000e+00  0.00000000e+00
  0.00000000e+00  0.00000000e+00  0.00000000e+00  0.00000000e+00
  0.00000000e+00  0.00000000e+00  0.00000000e+00  0.00000000e+00
  0.00000000e+00  0.00000000e+00  0.00000000e+00  0.00000000e+00
  0.00000000e+00  0.00000000e+00 -2.43196010e-06 -8.45410703e-07
  0.00000000e+00  0.00000000e+00  0.00000000e+00  3.84577606e-06]","[[-0.00038201  0.01194033]
 [-0.00034039 -0.00239655]]",[],0.0,0.0
1787562001.2196553,1.7506646910545547,0.8253860924765084,2.1563862186022913,"[ 2.40724602e-05  1.03436565e-06  0.00000000e+00  0.00000000e+00
  0.00000000e+00 -2.43196010e-06  1.03436565e-06  1.62491059e-05
  0.00000000e+00  0.00000000e+00  0.00000000e+00 -8.45410703e-07
  0.00000000e+00  0.00000000e+00  0.00000000e+00  0.00000000e+00
  0.00000000e+00  0.00000000e+00  0.00000000e+00  0.00000000e+00
  0.00000000e+00  0.00000000e+00  0.00000000e+00  0.00000000e+00
  0.00000000e+00  0.00000000e+00  0.00000000e+00  0.00000000e+00
  0.00000000e+00  0.00000000e+00 -2.43196010e-06 -8.45410703e-07
  0.00000000e+00  0.00000000e+00  0.00000000e+00  3.84577606e-06]","[[-0.00038201  0.01194033]
 [-0.00034039 -0.00239655]]",[],0.0,0.0
1787562001.2684963,1.7506646910545547,0.8253860924765084,2.1563862186022913,"[ 2.40724602e-05  1.03436565e-06  0.00000000e+00  0.00000000e+00
  0.00000000e+00 -2.43196010e-06  1.03436565e-06  1.62491059e-05
  0.00000000e+00  0.00000000e+00  0.00000000e+00 -8.45410703e-07
  0.00000000e+00  0.00000000e+00  0.00000000e+00  0.00000000e+00
  0.00000000e+00  0.00000000e+00  0.00000000e+00  0.00000000e+00
  0.00000000e+00  0.00000000e+00  0.00000000e+00  0.00000000e+00
  0.00000000e+00  0.00000000e+00  0.00000000e+00  0.00000000e+00
  0.00000000e+00  0.00000000e+00 -2.43196010e-06 -8.45410703e-07
  0.00000000e+00  0.00000000e+00  0.00000000e+00  3.84577606e-06]","[[-0.00038201  0.01194033]
 [-0.00034039 -0.00239655]]",[],0.0,0.0
1787562001.3269854,1.7506646910545547,0.8253860924765084,2.1563862186022913,"[ 2.40724602e-05  1.03436565e-06  0.00000000e+00  0.00000000e+00
  0.00000000e+00 -2.43196010e-06  1.03436565e-06  1.62491059e-05
  0.00000000e+00  0.00000000e+00  0.00000000e+00 -8.45410703e-07
  0.00000000e+00  0.00000000e+00  0.00000000e+00  0.00000000e+00
  0.00000000e+00  0.00000000e+00  0.00000000e+00  0.00000000e+00
  0.00000000e+00  0.00000000e+00  0.00000000e+00  0.00000000e+00
  0.00000000e+00  0.00000000e+00  0.00000000e+00  0.00000000e+00
  0.00000000e+00  0.00000000e+00 -2.43196010e-06 -8.45410703e-07
  0.00000000e+00  0.00000000e+00  0.00000000e+00  3.84577606e-06]","[[-0.00038201  0.01194033]
 [-0.00034039 -0.00239655]]",[],0.0,0.0
1787562001.3699832,1.7506646910545547,0.8253860924765084,2.1563862186022913,"[ 2.40724602e-05  1.03436565e-06  0.00000000e+00  0.00000000e+00
  0.00000000e+00 -2.43196010e-06  1.03436565e-06  1.62491059e-05
  0.00000000e+00  0.00000000e+00  0.00000000e+00 -8.45410703e-07
  0.00000000e+00  0.00000000e+00  0.00000000e+00  0.00000000e+00
  0.00000000e+00  0.00000000e+00  0.00000000e+00  0.00000000e+00
  0.00000000e+00  0.00000000e+00  0.00000000e+00  0.00000000e+00
  0.00000000e+00  0.00000000e+00  0.00000000e+00  0.00000000e+00
  0.00000000e+00  0.00000000e+00 -2.43196010e-06 -8.45410703e-07
  0.00000000e+00  0.00000000e+00  0.00000000e+00  3.84577606e-06]","[[-0.00038201  0.01194033]
 [-0.00034039 -0.00239655]]",[],0.0,0.0
1787562001.4197445,1.7506646910545547,0.8253860924765084,2.1563862186022913,"[ 2.40724602e-05  1.03436565e-06  0.00000000e+00  0.00000000e+00
  0.00000000e+00 -2.43196010e-06  1.03436565e-06  1.62491059e-05
  0.00000000e+00  0.00000000e+00  0.00000000e+00 -8.45410703e-07
  0.00000000e+00  0.00000000e+00  0.00000000e+00  0.00000000e+00
  0.00000000e+00  0.00000000e+00  0.00000000e+00  0.00000000e+00
  0.00000000e+00  0.00000000e+00  0.00000000e+00  0.00000000e+00
  0.00000000e+00  0.00000000e+00  0.00000000e+00  0.00000000e+00
  0.00000000e+00  0.00000000e+00 -2.43196010e-06 -8.45410703e-07
  0.00000000e+00  0.00000000e+00  0.00000000e+00  3.84577606e-06]","[[-0.00038201  0.01194033]
 [-0.00034039 -0.00239655]]",[],0.0,0.0
1787562001.4688299,1.7506646910545547,0.8253860924765084,2.1563862186022913,"[ 2.40724602e-05  1.03436565e-06  0.00000000e+00  0.00000000e+00
  0.00000000e+00 -2.43196010e-06  1.03436565e-06  1.62491059e-05
  0.00000000e+00  0.00000000e+00  0.00000000e+00 -8.45410703e-07
  0.00000000e+00  0.00000000e+00  0.00000000e+00  0.00000000e+00
  0.00000000e+00  0.00000000e+00  0.00000000e+00  0.00000000e+00
  0.00000000e+00  0.00000000e+00  0.00000000e+00  0.00000000e+00
  0.00000000e+00  0.00000000e+00  0.00000000e+00  0.00000000e+00
  0.00000000e+00  0.00000000e+00 -2.43196010e-06 -8.45410703e-07
  0.00000000e+00  0.00000000e+00  0.00000000e+00  3.84577606e-06]","[[-0.00038201  0.01194033]
 [-0.00034039 -0.00239655]]",[],0.0,0.0
1787562001.5194342,1.7506646910545547,0.8253860924765084,2.1563862186022913,"[ 2.40724602e-05  1.03436565e-06  0.00000000e+00  0.00000000e+00
  0.00000000e+00 -2.43196010e-06  1.03436565e-06  1.62491059e-05
  0.00000000e+00  0.00000000e+00  0.00000000e+00 -8.45410703e-07
  0.00000000e+00  0.00000000e+00  0.00000000e+00  0.00000000e+00
  0.00000000e+00  0.00000000e+00  0.00000000e+00  0.00000000e+00
  0.00000000e+00  0.00000000e+00  0.00000000e+00  0.00000000e+00
  0.00000000e+00  0.00000000e+00  0.00000000e+00  0.00000000e+00
  0.00000000e+00  0.00000000e+00 -2.43196010e-06 -8.45410703e-07
  0.00000000e+00  0.00000000e+00  0.00000000e+00  3.84577606e-06]","[[-0.00038201  0.01194033]
 [-0.00034039 -0.00239655]]",[],0.0,0.0
1787562001.5708528,1.7506646910545547,0.8253860924765084,2.1563862186022913,"[ 2.40724602e-05  1.03436565e-06  0.00000000e+00  0.00000000e+00
  0.00000000e+00 -2.43196010e-06  1.03436565e-06  1.62491059e-05
  0.00000000e+00  0.00000000e+00  0.00000000e+00 -8.45410703e-07
  0.00000000e+00  0.00000000e+00  0.00000000e+00  0.00000000e+00
  0.00000000e+00  0.00000000e+00  0.00000000e+00  0.00000000e+00
  0.00000000e+00  0.00000000e+00  0.00000000e+00  0.00000000e+00
  0.00000000e+00  0.00000000e+00  0.00000000e+00  0.00000000e+00
  0.00000000e+00  0.00000000e+00 -2.43196010e-06 -8.45410703e-07
  0.00000000e+00  0.00000000e+00  0.00000000e+00  3.84577606e-06]","[[-0.00038201  0.01194033]
 [-0.00034039 -0.00239655]]",[],0.0,0.0
1787562001.6193943,1.7506646910545547,0.8253860924765084,2.1563862186022913,"[ 2.40724602e-05  1.03436565e-06  0.00000000e+00  0.00000000e+00
  0.00000000e+00 -2.43196010e-06  1.03436565e-06  1.62491059e-05
  0.00000000e+00  0.00000000e+00  0.00000000e+00 -8.45410703e-07
  0.00000000e+00  0.00000000e+00  0.00000000e+00  0.00000000e+00
  0.00000000e+00  0.00000000e+00  0.00000000e+00  0.00000000e+00
  0.00000000e+00  0.00000000e+00  0.00000000e+00  0.00000000e+00
  0.00000000e+00  0.00000000e+00  0.00000000e+00  0.00000000e+00
  0.00000000e+00  0.00000000e+00 -2.43196010e-06 -8.45410703e-07
  0.00000000e+00  0.00000000e+00  0.00000000e+00  3.84577606e-06]","[[-0.00038201  0.01194033]
 [-0.00034039 -0.00239655]]",[],0.0,0.0
1787562001.6705577,1.7506646910545547,0.8253860924765084,2.1563862186022913,"[ 2.40724602e-05  1.03436565e-06  0.00000000e+00  0.00000000e+00
  0.00000000e+00 -2.43196010e-06  1.03436565e-06  1.62491059e-05
  0.00000000e+00  0.00000000e+00  0.00000000e+00 -8.45410703e-07
  0.00000000e+00  0.00000000e+00  0.00000000e+00  0.00000000e+00
  0.00000000e+00  0.00000000e+00  0.00000000e+00  0.00000000e+00
  0.00000000e+00  0.00000000e+00  0.00000000e+00  0.00000000e+00
  0.00000000e+00  0.00000000e+00  0.00000000e+00  0.00000000e+00
  0.00000000e+00  0.00000000e+00 -2.43196010e-06 -8.45410703e-07
  0.00000000e+00  0.00000000e+00  0.00000000e+00  3.84577606e-06]","[[-0.00038201  0.01194033]
 [-0.00034039 -0.00239655]]",[],0.0,0.0
1787562001.7205522,1.7506646910545547,0.8253860924765084,2.1563862186022913,"[ 2.40724602e-05  1.03436565e-06  0.00000000e+00  0.00000000e+00
  0.00000000e+00 -2.43196010e-06  1.03436565e-06  1.62491059e-05
  0.00000000e+00  0.00000000e+00  0.00000000e+00 -8.45410703e-07
  0.00000000e+00  0.00000000e+00  0.00000000e+00  0.00000000e+00
  0.00000000e+00  0.00000000e+00  0.00000000e+00  0.00000000e+00
  0.00000000e+00  0.00000000e+00  0.00000000e+00  0.00000000e+00
  0.00000000e+00  0.00000000e+00  0.00000000e+00  0.00000000e+00
  0.00000000e+00  0.00000000e+00 -2.43196010e-06 -8.45410703e-07
  0.00000000e+00  0.00000000e+00  0.00000000e+00  3.84577606e-06]","[[-0.00038201  0.01194033]
 [-0.00034039 -0.00239655]]",[],0.0,0.0
1787562001.7793229,1.7506646910545547,0.8253860924765084,2.1563862186022913,"[ 2.40724602e-05  1.03436565e-06  0.00000000e+00  0.00000000e+00
  0.00000000e+00 -2.43196010e-06  1.03436565e-06  1.62491059e-05
  0.00000000e+00  0.00000000e+00  0.00000000e+00 -8.45410703e-07
  0.00000000e+00  0.00000000e+00  0.00000000e+00  0.00000000e+00
  0.00000000e+00  0.00000000e+00  0.00000000e+00  0.00000000e+00
  0.00000000e+00  0.00000000e+00  0.00000000e+00  0.00000000e+00
  0.00000000e+00  0.00000000e+00  0.00000000e+00  0.00000000e+00
  0.00000000e+00  0.00000000e+00 -2.43196010e-06 -8.45410703e-07
  0.00000000e+00  0.00000000e+00  0.00000000e+00  3.84577606e-06]","[[-0.00038201  0.01194033]
 [-0.00034039 -0.00239655]]",[],0.0,0.0
1787562001.8186946,1.7506646910545547,0.8253860924765084,2.1563862186022913,"[ 2.40724602e-05  1.03436565e-06  0.00000000e+00  0.00000000e+00
  0.00000000e+00 -2.43196010e-06  1.03436565e-06  1.62491059e-05
  0.00000000e+00  0.00000000e+00  0.00000000e+00 -8.45410703e-07
  0.00000000e+00  0.00000000e+00  0.00000000e+00  0.00000000e+00
  0.00000000e+00  0.00000000e+00  0.00000000e+00  0.00000000e+00
  0.00000000e+00  0.00000000e+00  0.00000000e+00  0.00000000e+00
  0.00000000e+00  0.00000000e+00  0.00000000e+00  0.00000000e+00
  0.00000000e+00  0.00000000e+00 -2.43196010e-06 -8.45410703e-07
  0.00000000e+00  0.00000000e+00  0.00000000e+00  3.84577606e-06]","[[-0.00038201  0.01194033]
 [-0.00034039 -0.00239655]]",[],0.0,0.0
1787562001.870931,1.7506646910545547,0.8253860924765084,2.1563862186022913,"[ 2.40724602e-05  1.03436565e-06  0.00000000e+00  0.00000000e+00
  0.00000000e+00 -2.43196010e-06  1.03436565e-06  1.62491059e-05
  0.00000000e+00  0.00000000e+00  0.00000000e+00 -8.45410703e-07
  0.00000000e+00  0.00000000e+00  0.00000000e+00  0.00000000e+00
  0.00000000e+00  0.00000000e+00  0.00000000e+00  0.00000000e+00
  0.00000000e+00  0.00000000e+00  0.00000000e+00  0.00000000e+00
  0.00000000e+00  0.00000000e+00  0.00000000e+00  0.00000000e+00
  0.00000000e+00  0.00000000e+00 -2.43196010e-06 -8.45410703e-07
  0.00000000e+00  0.00000000e+00  0.00000000e+00  3.84577606e-06]","[[-0.00038201  0.01194033]
 [-0.00034039 -0.00239655]]",[],0.0,0.0
1787562001.919509,1.7506646910545547,0.8253860924765084,2.1563862186022913,"[ 2.40724602e-05  1.03436565e-06  0.00000000e+00  0.00000000e+00
  0.00000000e+00 -2.43196010e-06  1.03436565e-06  1.62491059e-05
  0.00000000e+00  0.00000000e+00  0.00000000e+00 -8.45410703e-07
  0.00000000e+00  0.00000000e+00  0.00000000e+00  0.00000000e+00
  0.00000000e+00  0.00000000e+00  0.00000000e+00  0.00000000e+00
  0.00000000e+00  0.00000000e+00  0.00000000e+00  0.00000000e+00
  0.00000000e+00  0.00000000e+00  0.00000000e+00  0.00000000e+00
  0.00000000e+00  0.00000000e+00 -2.43196010e-06 -8.45410703e-07
  0.00000000e+00  0.00000000e+00  0.00000000e+00  3.84577606e-06]","[[-0.00038201  0.01194033]
 [-0.00034039 -0.00239655]]",[],0.0,0.0
1787562001.9713933,1.7506646910545547,0.8253860924765084,2.1563862186022913,"[ 2.40724602e-05  1.03436565e-06  0.00000000e+00  0.00000000e+00
  0.00000000e+00 -2.43196010e-06  1.03436565e-06  1.62491059e-05
  0.00000000e+00  0.00000000e+00  0.00000000e+00 -8.45410703e-07
  0.00000000e+00  0.00000000e+00  0.00000000e+00  0.00000000e+00
  0.00000000e+00  0.00000000e+00  0.00000000e+00  0.00000000e+00
  0.00000000e+00  0.00000000e+00  0.00000000e+00  0.00000000e+00
  0.00000000e+00  0.00000000e+00  0.00000000e+00  0.00000000e+00
  0.00000000e+00  0.00000000e+00 -2.43196010e-06 -8.45410703e-07
  0.00000000e+00  0.00000000e+00  0.00000000e+00  3.84577606e-06]","[[-0.00038201  0.01194033]
 [-0.00034039 -0.00239655]]",[],0.0,0.0
1787562002.0189934,1.7506646910545547,0.8253860924765084,2.1563862186022913,"[ 2.40724602e-05  1.03436565e-06  0.00000000e+00  0.00000000e+00
  0.00000000e+00 -2.43196010e-06  1.03436565e-06  1.62491059e-05
  0.00000000e+00  0.00000000e+00  0.00000000e+00 -8.45410703e-07
  0.00000000e+00  0.00000000e+00  0.00000000e+00  0.00000000e+00
  0.00000000e+00  0.00000000e+00  0.00000000e+00  0.00000000e+00
  0.00000000e+00  0.00000000e+00  0.00000000e+00  0.00000000e+00
  0.00000000e+00  0.00000000e+00  0.00000000e+00  0.00000000e+00
  0.00000000e+00  0.00000000e+00 -2.43196010e-06 -8.45410703e-07
  0.00000000e+00  0.00000000e+00  0.00000000e+00  3.84577606e-06]","[[-0.00038201  0.01194033]
 [-0.00034039 -0.00239655]]",[],0.0,0.0
1787562002.068647,1.7506646910545547,0.8253860924765084,2.1563862186022913,"[ 2.40724602e-05  1.03436565e-06  0.00000000e+00  0.00000000e+00
  0.00000000e+00 -2.43196010e-06  1.03436565e-06  1.62491059e-05
  0.00000000e+00  0.00000000e+00  0.00000000e+00 -8.45410703e-07
  0.00000000e+00  0.00000000e+00  0.00000000e+00  0.00000000e+00
  0.00000000e+00  0.00000000e+00  0.00000000e+00  0.00000000e+00
  0.00000000e+00  0.00000000e+00  0.00000000e+00  0.00000000e+00
  0.00000000e+00  0.00000000e+00  0.00000000e+00  0.00000000e+00
  0.00000000e+00  0.00000000e+00 -2.43196010e-06 -8.45410703e-07
  0.00000000e+00  0.00000000e+00  0.00000000e+00  3.84577606e-06]","[[-0.00038201  0.01194033]
 [-0.00034039 -0.00239655]]",[],0.0,0.0
1787562002.1216886,1.7682508163402817,0.8256446642687972,2.250119830694512,"[ 1.73788881e-05  2.25814798e-07  0.00000000e+00  0.00000000e+00
  0.00000000e+00 -1.33253041e-06  2.25814798e-07  1.29318464e-05
  0.00000000e+00  0.00000000e+00  0.00000000e+00 -1.16519055e-06
  0.00000000e+00  0.00000000e+00  0.00000000e+00  0.00000000e+00
  0.00000000e+00  0.00000000e+00  0.00000000e+00  0.00000000e+00
  0.00000000e+00  0.00000000e+00  0.00000000e+00  0.00000000e+00
  0.00000000e+00  0.00000000e+00  0.00000000e+00  0.00000000e+00
  0.00000000e+00  0.00000000e+00 -1.33253041e-06 -1.16519055e-06
  0.00000000e+00  0.00000000e+00  0.00000000e+00  4.27000436e-06]","[[-0.00022879  0.01253685]
 [-0.00027995 -0.00259896]]",[],0.0,0.0
1787562002.1683936,1.7682508163402817,0.8256446642687972,2.250119830694512,"[ 1.73788881e-05  2.25814798e-07  0.00000000e+00  0.00000000e+00
  0.00000000e+00 -1.33253041e-06  2.25814798e-07  1.29318464e-05
  0.00000000e+00  0.00000000e+00  0.00000000e+00 -1.16519055e-06
  0.00000000e+00  0.00000000e+00  0.00000000e+00  0.00000000e+00
  0.00000000e+00  0.00000000e+00  0.00000000e+00  0.00000000e+00
  0.00000000e+00  0.00000000e+00  0.00000000e+00  0.00000000e+00
  0.00000000e+00  0.00000000e+00  0.00000000e+00  0.00000000e+00
  0.00000000e+00  0.00000000e+00 -1.33253041e-06 -1.16519055e-06
  0.00000000e+00  0.00000000e+00  0.00000000e+00  4.27000436e-06]","[[-0.00022879  0.01253685]
 [-0.00027995 -0.00259896]]",[],0.0,0.0
1787562002.2262125,1.7682508163402817,0.8256446642687972,2.250119830694512,"[ 1.73788881e-05  2.25814798e-07  0.00000000e+00  0.00000000e+00
  0.00000000e+00 -1.33253041e-06  2.25814798e-07  1.29318464e-05
  0.00000000e+00  0.00000000e+00  0.00000000e+00 -1.16519055e-06
  0.00000000e+00  0.00000000e+00  0.00000000e+00  0.00000000e+00
  0.00000000e+00  0.00000000e+00  0.00000000e+00  0.00000000e+00
  0.00000000e+00  0.00000000e+00  0.00000000e+00  0.00000000e+00
  0.00000000e+00  0.00000000e+00  0.00000000e+00  0.00000000e+00
  0.00000000e+00  0.00000000e+00 -1.33253041e-06 -1.16519055e-06
  0.00000000e+00  0.00000000e+00  0.00000000e+00  4.27000436e-06]","[[-0.00022879  0.01253685]
 [-0.00027995 -0.00259896]]",[],0.0,0.0
1787562002.2729597,1.7682508163402817,0.8256446642687972,2.250119830694512,"[ 1.73788881e-05  2.25814798e-07  0.00000000e+00  0.00000000e+00
  0.00000000e+00 -1.33253041e-06  2.25814798e-07  1.29318464e-05
  0.00000000e+00  0.00000000e+00  0.00000000e+00 -1.16519055e-06
  0.00000000e+00  0.00000000e+00  0.00000000e+00  0.00000000e+00
  0.00000000e+00  0.00000000e+00  0.00000000e+00  0.00000000e+00
  0.00000000e+00  0.00000000e+00  0.00000000e+00  0.00000000e+00
  0.00000000e+00  0.00000000e+00  0.00000000e+00  0.00000000e+00
  0.00000000e+00  0.00000000e+00 -1.33253041e-06 -1.16519055e-06
  0.00000000e+00  0.00000000e+00  0.00000000e+00  4.27000436e-06]","[[-0.00022879  0.01253685]
 [-0.00027995 -0.00259896]]",[],0.0,0.0
1787562002.3205044,1.7682508163402817,0.8256446642687972,2.250119830694512,"[ 1.73788881e-05  2.25814798e-07  0.00000000e+00  0.00000000e+00
  0.00000000e+00 -1.33253041e-06  2.25814798e-07  1.29318464e-05
  0.00000000e+00  0.00000000e+00  0.00000000e+00 -1.16519055e-06
  0.00000000e+00  0.00000000e+00  0.00000000e+00  0.00000000e+00
  0.00000000e+00  0.00000000e+00  0.00000000e+00  0.00000000e+00
  0.00000000e+00  0.00000000e+00  0.00000000e+00  0.00000000e+00
  0.00000000e+00  0.00000000e+00  0.00000000e+00  0.00000000e+00
  0.00000000e+00  0.00000000e+00 -1.33253041e-06 -1.16519055e-06
  0.00000000e+00  0.00000000e+00  0.00000000e+00  4.27000436e-06]","[[-0.00022879  0.01253685]
 [-0.00027995 -0.00259896]]",[],0.0,0.0
1787562002.3747826,1.7682508163402817,0.8256446642687972,2.250119830694512,"[ 1.73788881e-05  2.25814798e-07  0.00000000e+00  0.00000000e+00
  0.00000000e+00 -1.33253041e-06  2.25814798e-07  1.29318464e-05
  0.00000000e+00  0.00000000e+00  0.00000000e+00 -1.16519055e-06
  0.00000000e+00  0.00000000e+00  0.00000000e+00  0.00000000e+00
  0.00000000e+00  0.00000000e+00  0.00000000e+00  0.00000000e+00
  0.00000000e+00  0.00000000e+00  0.00000000e+00  0.00000000e+00
  0.00000000e+00  0.00000000e+00  0.00000000e+00  0.00000000e+00
  0.00000000e+00  0.00000000e+00 -1.33253041e-06 -1.16519055e-06
  0.00000000e+00  0.00000000e+00  0.00000000e+00  4.27000436e-06]","[[-0.00022879  0.01253685]
 [-0.00027995 -0.00259896]]",[],0.0,0.0
1787562002.418567,1.7682508163402817,0.8256446642687972,2.250119830694512,"[ 1.73788881e-05  2.25814798e-07  0.00000000e+00  0.00000000e+00
  0.00000000e+00 -1.33253041e-06  2.25814798e-07  1.29318464e-05
  0.00000000e+00  0.00000000e+00  0.00000000e+00 -1.16519055e-06
  0.00000000e+00  0.00000000e+00  0.00000000e+00  0.00000000e+00
  0.00000000e+00  0.00000000e+00  0.00000000e+00  0.00000000e+00
  0.00000000e+00  0.00000000e+00  0.00000000e+00  0.00000000e+00
  0.00000000e+00  0.00000000e+00  0.00000000e+00  0.00000000e+00
  0.00000000e+00  0.00000000e+00 -1.33253041e-06 -1.16519055e-06
  0.00000000e+00  0.00000000e+00  0.00000000e+00  4.27000436e-06]","[[-0.00022879  0.01253685]
 [-0.00027995 -0.00259896]]",[],0.0,0.0
1787562002.4696476,1.7682508163402817,0.8256446642687972,2.250119830694512,"[ 1.73788881e-05  2.25814798e-07  0.00000000e+00  0.00000000e+00
  0.00000000e+00 -1.33253041e-06  2.25814798e-07  1.29318464e-05
  0.00000000e+00  0.00000000e+00  0.00000000e+00 -1.16519055e-06
  0.00000000e+00  0.00000000e+00  0.00000000e+00  0.00000000e+00
  0.00000000e+00  0.00000000e+00  0.00000000e+00  0.00000000e+00
  0.00000000e+00  0.00000000e+00  0.00000000e+00  0.00000000e+00
  0.00000000e+00  0.00000000e+00  0.00000000e+00  0.00000000e+00
  0.00000000e+00  0.00000000e+00 -1.33253041e-06 -1.16519055e-06
  0.00000000e+00  0.00000000e+00  0.00000000e+00  4.27000436e-06]","[[-0.00022879  0.01253685]
 [-0.00027995 -0.00259896]]",[],0.0,0.0
1787562002.5189173,1.7682508163402817,0.8256446642687972,2.250119830694512,"[ 1.73788881e-05  2.25814798e-07  0.00000000e+00  0.00000000e+00
  0.00000000e+00 -1.33253041e-06  2.25814798e-07  1.29318464e-05
  0.00000000e+00  0.00000000e+00  0.00000000e+00 -1.16519055e-06
  0.00000000e+00  0.00000000e+00  0.00000000e+00  0.00000000e+00
  0.00000000e+00  0.00000000e+00  0.00000000e+00  0.00000000e+00
  0.00000000e+00  0.00000000e+00  0.00000000e+00  0.00000000e+00
  0.00000000e+00  0.00000000e+00  0.00000000e+00  0.00000000e+00
  0.00000000e+00  0.00000000e+00 -1.33253041e-06 -1.16519055e-06
  0.00000000e+00  0.00000000e+00  0.00000000e+00  4.27000436e-06]","[[-0.00022879  0.01253685]
 [-0.00027995 -0.00259896]]",[],0.0,0.0
1787562002.586028,1.7682508163402817,0.8256446642687972,2.250119830694512,"[ 1.73788881e-05  2.25814798e-07  0.00000000e+00  0.00000000e+00
  0.00000000e+00 -1.33253041e-06  2.25814798e-07  1.29318464e-05
  0.00000000e+00  0.00000000e+00  0.00000000e+00 -1.16519055e-06
  0.00000000e+00  0.00000000e+00  0.00000000e+00  0.00000000e+00
  0.00000000e+00  0.00000000e+00  0.00000000e+00  0.00000000e+00
  0.00000000e+00  0.00000000e+00  0.00000000e+00  0.00000000e+00
  0.00000000e+00  0.00000000e+00  0.00000000e+00  0.00000000e+00
  0.00000000e+00  0.00000000e+00 -1.33253041e-06 -1.16519055e-06
  0.00000000e+00  0.00000000e+00  0.00000000e+00  4.27000436e-06]","[[-0.00022879  0.01253685]
 [-0.00027995 -0.00259896]]",[],0.0,0.0
1787562002.6279154,1.7682508163402817,0.8256446642687972,2.250119830694512,"[ 1.73788881e-05  2.25814798e-07  0.00000000e+00  0.00000000e+00
  0.00000000e+00 -1.33253041e-06  2.25814798e-07  1.29318464e-05
  0.00000000e+00  0.00000000e+00  0.00000000e+00 -1.16519055e-06
  0.00000000e+00  0.00000000e+00  0.00000000e+00  0.00000000e+00
  0.00000000e+00  0.00000000e+00  0.00000000e+00  0.00000000e+00
  0.00000000e+00  0.00000000e+00  0.00000000e+00  0.00000000e+00
  0.00000000e+00  0.00000000e+00  0.00000000e+00  0.00000000e+00
  0.00000000e+00  0.00000000e+00 -1.33253041e-06 -1.16519055e-06
  0.00000000e+00  0.00000000e+00  0.00000000e+00  4.27000436e-06]","[[-0.00022879  0.01253685]
 [-0.00027995 -0.00259896]]",[],0.0,0.0
1787562002.670445,1.7682508163402817,0.8256446642687972,2.250119830694512,"[ 1.73788881e-05  2.25814798e-07  0.00000000e+00  0.00000000e+00
  0.00000000e+00 -1.33253041e-06  2.25814798e-07  1.29318464e-05
  0.00000000e+00  0.00000000e+00  0.00000000e+00 -1.16519055e-06
  0.00000000e+00  0.00000000e+00  0.00000000e+00  0.00000000e+00
  0.00000000e+00  0.00000000e+00  0.00000000e+00  0.00000000e+00
  0.00000000e+00  0.00000000e+00  0.00000000e+00  0.00000000e+00
  0.00000000e+00  0.00000000e+00  0.00000000e+00  0.00000000e+00
  0.00000000e+00  0.00000000e+00 -1.33253041e-06 -1.16519055e-06
  0.00000000e+00  0.00000000e+00  0.00000000e+00  4.27000436e-06]","[[-0.00022879  0.01253685]
 [-0.00027995 -0.00259896]]",[],0.0,0.0
1787562002.722286,1.7682508163402817,0.8256446642687972,2.250119830694512,"[ 1.73788881e-05  2.25814798e-07  0.00000000e+00  0.00000000e+00
  0.00000000e+00 -1.33253041e-06  2.25814798e-07  1.29318464e-05
  0.00000000e+00  0.00000000e+00  0.00000000e+00 -1.16519055e-06
  0.00000000e+00  0.00000000e+00  0.00000000e+00  0.00000000e+00
  0.00000000e+00  0.00000000e+00  0.00000000e+00  0.00000000e+00
  0.00000000e+00  0.00000000e+00  0.00000000e+00  0.00000000e+00
  0.00000000e+00  0.00000000e+00  0.00000000e+00  0.00000000e+00
  0.00000000e+00  0.00000000e+00 -1.33253041e-06 -1.16519055e-06
  0.00000000e+00  0.00000000e+00  0.00000000e+00  4.27000436e-06]","[[-0.00022879  0.01253685]
 [-0.00027995 -0.00259896]]",[],0.0,0.0
1787562002.7856455,1.7682508163402817,0.8256446642687972,2.250119830694512,"[ 1.73788881e-05  2.25814798e-07  0.00000000e+00  0.00000000e+00
  0.00000000e+00 -1.33253041e-06  2.25814798e-07  1.29318464e-05
  0.00000000e+00  0.00000000e+00  0.00000000e+00 -1.16519055e-06
  0.00000000e+00  0.00000000e+00  0.00000000e+00  0.00000000e+00
  0.00000000e+00  0.00000000e+00  0.00000000e+00  0.00000000e+00
  0.00000000e+00  0.00000000e+00  0.00000000e+00  0.00000000e+00
  0.00000000e+00  0.00000000e+00  0.00000000e+00  0.00000000e+00
  0.00000000e+00  0.00000000e+00 -1.33253041e-06 -1.16519055e-06
  0.00000000e+00  0.00000000e+00  0.00000000e+00  4.27000436e-06]","[[-0.00022879  0.01253685]
 [-0.00027995 -0.00259896]]",[],0.0,0.0
1787562002.8330722,1.7682508163402817,0.8256446642687972,2.250119830694512,"[ 1.73788881e-05  2.25814798e-07  0.00000000e+00  0.00000000e+00
  0.00000000e+00 -1.33253041e-06  2.25814798e-07  1.29318464e-05
  0.00000000e+00  0.00000000e+00  0.00000000e+00 -1.16519055e-06
  0.00000000e+00  0.00000000e+00  0.00000000e+00  0.00000000e+00
  0.00000000e+00  0.00000000e+00  0.00000000e+00  0.00000000e+00
  0.00000000e+00  0.00000000e+00  0.00000000e+00  0.00000000e+00
  0.00000000e+00  0.00000000e+00  0.00000000e+00  0.00000000e+00
  0.00000000e+00  0.00000000e+00 -1.33253041e-06 -1.16519055e-06
  0.00000000e+00  0.00000000e+00  0.00000000e+00  4.27000436e-06]","[[-0.00022879  0.01253685]
 [-0.00027995 -0.00259896]]",[],0.0,0.0
1787562002.87049,1.7682508163402817,0.8256446642687972,2.250119830694512,"[ 1.73788881e-05  2.25814798e-07  0.00000000e+00  0.00000000e+00
  0.00000000e+00 -1.33253041e-06  2.25814798e-07  1.29318464e-05
  0.00000000e+00  0.00000000e+00  0.00000000e+00 -1.16519055e-06
  0.00000000e+00  0.00000000e+00  0.00000000e+00  0.00000000e+00
  0.00000000e+00  0.00000000e+00  0.00000000e+00  0.00000000e+00
  0.00000000e+00  0.00000000e+00  0.00000000e+00  0.00000000e+00
  0.00000000e+00  0.00000000e+00  0.00000000e+00  0.00000000e+00
  0.00000000e+00  0.00000000e+00 -1.33253041e-06 -1.16519055e-06
  0.00000000e+00  0.00000000e+00  0.00000000e+00  4.27000436e-06]","[[-0.00022879  0.01253685]
 [-0.00027995 -0.00259896]]",[],0.0,0.0
1787562002.9251018,1.7682508163402817,0.8256446642687972,2.250119830694512,"[ 1.73788881e-05  2.25814798e-07  0.00000000e+00  0.00000000e+00
  0.00000000e+00 -1.33253041e-06  2.25814798e-07  1.29318464e-05
  0.00000000e+00  0.00000000e+00  0.00000000e+00 -1.16519055e-06
  0.00000000e+00  0.00000000e+00  0.00000000e+00  0.00000000e+00
  0.00000000e+00  0.00000000e+00  0.00000000e+00  0.00000000e+00
  0.00000000e+00  0.00000000e+00  0.00000000e+00  0.00000000e+00
  0.00000000e+00  0.00000000e+00  0.00000000e+00  0.00000000e+00
  0.00000000e+00  0.00000000e+00 -1.33253041e-06 -1.16519055e-06
  0.00000000e+00  0.00000000e+00  0.00000000e+00  4.27000436e-06]","[[-0.00022879  0.01253685]
 [-0.00027995 -0.00259896]]",[],0.0,0.0
1787562002.985918,1.7682508163402817,0.8256446642687972,2.250119830694512,"[ 1.73788881e-05  2.25814798e-07  0.00000000e+00  0.00000000e+00
  0.00000000e+00 -1.33253041e-06  2.25814798e-07  1.29318464e-05
  0.00000000e+00  0.00000000e+00  0.00000000e+00 -1.16519055e-06
  0.00000000e+00  0.00000000e+00  0.00000000e+00  0.00000000e+00
  0.00000000e+00  0.00000000e+00  0.00000000e+00  0.00000000e+00
  0.00000000e+00  0.00000000e+00  0.00000000e+00  0.00000000e+00
  0.00000000e+00  0.00000000e+00  0.00000000e+00  0.00000000e+00
  0.00000000e+00  0.00000000e+00 -1.33253041e-06 -1.16519055e-06
  0.00000000e+00  0.00000000e+00  0.00000000e+00  4.27000436e-06]","[[-0.00022879  0.01253685]
 [-0.00027995 -0.00259896]]",[],0.0,0.0
1787562003.0247214,1.7682508163402817,0.8256446642687972,2.250119830694512,"[ 1.73788881e-05  2.25814798e-07  0.00000000e+00  0.00000000e+00
  0.00000000e+00 -1.33253041e-06  2.25814798e-07  1.29318464e-05
  0.00000000e+00  0.00000000e+00  0.00000000e+00 -1.16519055e-06
  0.00000000e+00  0.00000000e+00  0.00000000e+00  0.00000000e+00
  0.00000000e+00  0.00000000e+00  0.00000000e+00  0.00000000e+00
  0.00000000e+00  0.00000000e+00  0.00000000e+00  0.00000000e+00
  0.00000000e+00  0.00000000e+00  0.00000000e+00  0.00000000e+00
  0.00000000e+00  0.00000000e+00 -1.33253041e-06 -1.16519055e-06
  0.00000000e+00  0.00000000e+00  0.00000000e+00  4.27000436e-06]","[[-0.00022879  0.01253685]
 [-0.00027995 -0.00259896]]",[],0.0,0.0
1787562003.0692122,1.7682508163402817,0.8256446642687972,2.250119830694512,"[ 1.73788881e-05  2.25814798e-07  0.00000000e+00  0.00000000e+00
  0.00000000e+00 -1.33253041e-06  2.25814798e-07  1.29318464e-05
  0.00000000e+00  0.00000000e+00  0.00000000e+00 -1.16519055e-06
  0.00000000e+00  0.00000000e+00  0.00000000e+00  0.00000000e+00
  0.00000000e+00  0.00000000e+00  0.00000000e+00  0.00000000e+00
  0.00000000e+00  0.00000000e+00  0.00000000e+00  0.00000000e+00
  0.00000000e+00  0.00000000e+00  0.00000000e+00  0.00000000e+00
  0.00000000e+00  0.00000000e+00 -1.33253041e-06 -1.16519055e-06
  0.00000000e+00  0.00000000e+00  0.00000000e+00  4.27000436e-06]","[[-0.00022879  0.01253685]
 [-0.00027995 -0.00259896]]",[],0.0,0.0
1787562003.1224883,1.7682508163402817,0.8256446642687972,2.250119830694512,"[ 1.73788881e-05  2.25814798e-07  0.00000000e+00  0.00000000e+00
  0.00000000e+00 -1.33253041e-06  2.25814798e-07  1.29318464e-05
  0.00000000e+00  0.00000000e+00  0.00000000e+00 -1.16519055e-06
  0.00000000e+00  0.00000000e+00  0.00000000e+00  0.00000000e+00
  0.00000000e+00  0.00000000e+00  0.00000000e+00  0.00000000e+00
  0.00000000e+00  0.00000000e+00  0.00000000e+00  0.00000000e+00
  0.00000000e+00  0.00000000e+00  0.00000000e+00  0.00000000e+00
  0.00000000e+00  0.00000000e+00 -1.33253041e-06 -1.16519055e-06
  0.00000000e+00  0.00000000e+00  0.00000000e+00  4.27000436e-06]","[[-0.00022879  0.01253685]
 [-0.00027995 -0.00259896]]",[],0.0,0.0
1787562003.1735034,1.7682508163402817,0.8256446642687972,2.250119830694512,"[ 1.73788881e-05  2.25814798e-07  0.00000000e+00  0.00000000e+00
  0.00000000e+00 -1.33253041e-06  2.25814798e-07  1.29318464e-05
  0.00000000e+00  0.00000000e+00  0.00000000e+00 -1.16519055e-06
  0.00000000e+00  0.00000000e+00  0.00000000e+00  0.00000000e+00
  0.00000000e+00  0.00000000e+00  0.00000000e+00  0.00000000e+00
  0.00000000e+00  0.00000000e+00  0.00000000e+00  0.00000000e+00
  0.00000000e+00  0.00000000e+00  0.00000000e+00  0.00000000e+00
  0.00000000e+00  0.00000000e+00 -1.33253041e-06 -1.16519055e-06
  0.00000000e+00  0.00000000e+00  0.00000000e+00  4.27000436e-06]","[[-0.00022879  0.01253685]
 [-0.00027995 -0.00259896]]",[],0.0,0.0
1787562003.228249,1.7682508163402817,0.8256446642687972,2.250119830694512,"[ 1.73788881e-05  2.25814798e-07  0.00000000e+00  0.00000000e+00
  0.00000000e+00 -1.33253041e-06  2.25814798e-07  1.29318464e-05
  0.00000000e+00  0.00000000e+00  0.00000000e+00 -1.16519055e-06
  0.00000000e+00  0.00000000e+00  0.00000000e+00  0.00000000e+00
  0.00000000e+00  0.00000000e+00  0.00000000e+00  0.00000000e+00
  0.00000000e+00  0.00000000e+00  0.00000000e+00  0.00000000e+00
  0.00000000e+00  0.00000000e+00  0.00000000e+00  0.00000000e+00
  0.00000000e+00  0.00000000e+00 -1.33253041e-06 -1.16519055e-06
  0.00000000e+00  0.00000000e+00  0.00000000e+00  4.27000436e-06]","[[-0.00022879  0.01253685]
 [-0.00027995 -0.00259896]]",[],0.0,0.0
1787562003.2722726,1.7682508163402817,0.8256446642687972,2.250119830694512,"[ 1.73788881e-05  2.25814798e-07  0.00000000e+00  0.00000000e+00
  0.00000000e+00 -1.33253041e-06  2.25814798e-07  1.29318464e-05
  0.00000000e+00  0.00000000e+00  0.00000000e+00 -1.16519055e-06
  0.00000000e+00  0.00000000e+00  0.00000000e+00  0.00000000e+00
  0.00000000e+00  0.00000000e+00  0.00000000e+00  0.00000000e+00
  0.00000000e+00  0.00000000e+00  0.00000000e+00  0.00000000e+00
  0.00000000e+00  0.00000000e+00  0.00000000e+00  0.00000000e+00
  0.00000000e+00  0.00000000e+00 -1.33253041e-06 -1.16519055e-06
  0.00000000e+00  0.00000000e+00  0.00000000e+00  4.27000436e-06]","[[-0.00022879  0.01253685]
 [-0.00027995 -0.00259896]]",[],0.0,0.0
1787562003.3231933,1.7682508163402817,0.8256446642687972,2.250119830694512,"[ 1.73788881e-05  2.25814798e-07  0.00000000e+00  0.00000000e+00
  0.00000000e+00 -1.33253041e-06  2.25814798e-07  1.29318464e-05
  0.00000000e+00  0.00000000e+00  0.00000000e+00 -1.16519055e-06
  0.00000000e+00  0.00000000e+00  0.00000000e+00  0.00000000e+00
  0.00000000e+00  0.00000000e+00  0.00000000e+00  0.00000000e+00
  0.00000000e+00  0.00000000e+00  0.00000000e+00  0.00000000e+00
  0.00000000e+00  0.00000000e+00  0.00000000e+00  0.00000000e+00
  0.00000000e+00  0.00000000e+00 -1.33253041e-06 -1.16519055e-06
  0.00000000e+00  0.00000000e+00  0.00000000e+00  4.27000436e-06]","[[-0.00022879  0.01253685]
 [-0.00027995 -0.00259896]]",[],0.0,0.0
1787562003.3724685,1.7682508163402817,0.8256446642687972,2.250119830694512,"[ 1.73788881e-05  2.25814798e-07  0.00000000e+00  0.00000000e+00
  0.00000000e+00 -1.33253041e-06  2.25814798e-07  1.29318464e-05
  0.00000000e+00  0.00000000e+00  0.00000000e+00 -1.16519055e-06
  0.00000000e+00  0.00000000e+00  0.00000000e+00  0.00000000e+00
  0.00000000e+00  0.00000000e+00  0.00000000e+00  0.00000000e+00
  0.00000000e+00  0.00000000e+00  0.00000000e+00  0.00000000e+00
  0.00000000e+00  0.00000000e+00  0.00000000e+00  0.00000000e+00
  0.00000000e+00  0.00000000e+00 -1.33253041e-06 -1.16519055e-06
  0.00000000e+00  0.00000000e+00  0.00000000e+00  4.27000436e-06]","[[-0.00022879  0.01253685]
 [-0.00027995 -0.00259896]]",[],0.0,0.0
1787562003.4216645,1.7682508163402817,0.8256446642687972,2.250119830694512,"[ 1.73788881e-05  2.25814798e-07  0.00000000e+00  0.00000000e+00
  0.00000000e+00 -1.33253041e-06  2.25814798e-07  1.29318464e-05
  0.00000000e+00  0.00000000e+00  0.00000000e+00 -1.16519055e-06
  0.00000000e+00  0.00000000e+00  0.00000000e+00  0.00000000e+00
  0.00000000e+00  0.00000000e+00  0.00000000e+00  0.00000000e+00
  0.00000000e+00  0.00000000e+00  0.00000000e+00  0.00000000e+00
  0.00000000e+00  0.00000000e+00  0.00000000e+00  0.00000000e+00
  0.00000000e+00  0.00000000e+00 -1.33253041e-06 -1.16519055e-06
  0.00000000e+00  0.00000000e+00  0.00000000e+00  4.27000436e-06]","[[-0.00022879  0.01253685]
 [-0.00027995 -0.00259896]]",[],0.0,0.0
1787562003.4720774,1.7682508163402817,0.8256446642687972,2.250119830694512,"[ 1.73788881e-05  2.25814798e-07  0.00000000e+00  0.00000000e+00
  0.00000000e+00 -1.33253041e-06  2.25814798e-07  1.29318464e-05
  0.00000000e+00  0.00000000e+00  0.00000000e+00 -1.16519055e-06
  0.00000000e+00  0.00000000e+00  0.00000000e+00  0.00000000e+00
  0.00000000e+00  0.00000000e+00  0.00000000e+00  0.00000000e+00
  0.00000000e+00  0.00000000e+00  0.00000000e+00  0.00000000e+00
  0.00000000e+00  0.00000000e+00  0.00000000e+00  0.00000000e+00
  0.00000000e+00  0.00000000e+00 -1.33253041e-06 -1.16519055e-06
  0.00000000e+00  0.00000000e+00  0.00000000e+00  4.27000436e-06]","[[-0.00022879  0.01253685]
 [-0.00027995 -0.00259896]]",[],0.0,0.0
1787562003.5247905,1.7682508163402817,0.8256446642687972,2.250119830694512,"[ 1.73788881e-05  2.25814798e-07  0.00000000e+00  0.00000000e+00
  0.00000000e+00 -1.33253041e-06  2.25814798e-07  1.29318464e-05
  0.00000000e+00  0.00000000e+00  0.00000000e+00 -1.16519055e-06
  0.00000000e+00  0.00000000e+00  0.00000000e+00  0.00000000e+00
  0.00000000e+00  0.00000000e+00  0.00000000e+00  0.00000000e+00
  0.00000000e+00  0.00000000e+00  0.00000000e+00  0.00000000e+00
  0.00000000e+00  0.00000000e+00  0.00000000e+00  0.00000000e+00
  0.00000000e+00  0.00000000e+00 -1.33253041e-06 -1.16519055e-06
  0.00000000e+00  0.00000000e+00  0.00000000e+00  4.27000436e-06]","[[-0.00022879  0.01253685]
 [-0.00027995 -0.00259896]]",[],0.0,0.0
1787562003.5875702,1.7682508163402817,0.8256446642687972,2.250119830694512,"[ 1.73788881e-05  2.25814798e-07  0.00000000e+00  0.00000000e+00
  0.00000000e+00 -1.33253041e-06  2.25814798e-07  1.29318464e-05
  0.00000000e+00  0.00000000e+00  0.00000000e+00 -1.16519055e-06
  0.00000000e+00  0.00000000e+00  0.00000000e+00  0.00000000e+00
  0.00000000e+00  0.00000000e+00  0.00000000e+00  0.00000000e+00
  0.00000000e+00  0.00000000e+00  0.00000000e+00  0.00000000e+00
  0.00000000e+00  0.00000000e+00  0.00000000e+00  0.00000000e+00
  0.00000000e+00  0.00000000e+00 -1.33253041e-06 -1.16519055e-06
  0.00000000e+00  0.00000000e+00  0.00000000e+00  4.27000436e-06]","[[-0.00022879  0.01253685]
 [-0.00027995 -0.00259896]]",[],0.0,0.0
1787562003.6211834,1.7682508163402817,0.8256446642687972,2.250119830694512,"[ 1.73788881e-05  2.25814798e-07  0.00000000e+00  0.00000000e+00
  0.00000000e+00 -1.33253041e-06  2.25814798e-07  1.29318464e-05
  0.00000000e+00  0.00000000e+00  0.00000000e+00 -1.16519055e-06
  0.00000000e+00  0.00000000e+00  0.00000000e+00  0.00000000e+00
  0.00000000e+00  0.00000000e+00  0.00000000e+00  0.00000000e+00
  0.00000000e+00  0.00000000e+00  0.00000000e+00  0.00000000e+00
  0.00000000e+00  0.00000000e+00  0.00000000e+00  0.00000000e+00
  0.00000000e+00  0.00000000e+00 -1.33253041e-06 -1.16519055e-06
  0.00000000e+00  0.00000000e+00  0.00000000e+00  4.27000436e-06]","[[-0.00022879  0.01253685]
 [-0.00027995 -0.00259896]]",[],0.0,0.0
1787562003.677304,1.7682508163402817,0.8256446642687972,2.250119830694512,"[ 1.73788881e-05  2.25814798e-07  0.00000000e+00  0.00000000e+00
  0.00000000e+00 -1.33253041e-06  2.25814798e-07  1.29318464e-05
  0.00000000e+00  0.00000000e+00  0.00000000e+00 -1.16519055e-06
  0.00000000e+00  0.00000000e+00  0.00000000e+00  0.00000000e+00
  0.00000000e+00  0.00000000e+00  0.00000000e+00  0.00000000e+00
  0.00000000e+00  0.00000000e+00  0.00000000e+00  0.00000000e+00
  0.00000000e+00  0.00000000e+00  0.00000000e+00  0.00000000e+00
  0.00000000e+00  0.00000000e+00 -1.33253041e-06 -1.16519055e-06
  0.00000000e+00  0.00000000e+00  0.00000000e+00  4.27000436e-06]","[[-0.00022879  0.01253685]
 [-0.00027995 -0.00259896]]",[],0.0,0.0
1787562003.721226,1.7682508163402817,0.8256446642687972,2.250119830694512,"[ 1.73788881e-05  2.25814798e-07  0.00000000e+00  0.00000000e+00
  0.00000000e+00 -1.33253041e-06  2.25814798e-07  1.29318464e-05
  0.00000000e+00  0.00000000e+00  0.00000000e+00 -1.16519055e-06
  0.00000000e+00  0.00000000e+00  0.00000000e+00  0.00000000e+00
  0.00000000e+00  0.00000000e+00  0.00000000e+00  0.00000000e+00
  0.00000000e+00  0.00000000e+00  0.00000000e+00  0.00000000e+00
  0.00000000e+00  0.00000000e+00  0.00000000e+00  0.00000000e+00
  0.00000000e+00  0.00000000e+00 -1.33253041e-06 -1.16519055e-06
  0.00000000e+00  0.00000000e+00  0.00000000e+00  4.27000436e-06]","[[-0.00022879  0.01253685]
 [-0.00027995 -0.00259896]]",[],0.0,0.0
1787562003.7688632,1.7682508163402817,0.8256446642687972,2.250119830694512,"[ 1.73788881e-05  2.25814798e-07  0.00000000e+00  0.00000000e+00
  0.00000000e+00 -1.33253041e-06  2.25814798e-07  1.29318464e-05
  0.00000000e+00  0.00000000e+00  0.00000000e+00 -1.16519055e-06
  0.00000000e+00  0.00000000e+00  0.00000000e+00  0.00000000e+00
  0.00000000e+00  0.00000000e+00  0.00000000e+00  0.00000000e+00
  0.00000000e+00  0.00000000e+00  0.00000000e+00  0.00000000e+00
  0.00000000e+00  0.00000000e+00  0.00000000e+00  0.00000000e+00
  0.00000000e+00  0.00000000e+00 -1.33253041e-06 -1.16519055e-06
  0.00000000e+00  0.00000000e+00  0.00000000e+00  4.27000436e-06]","[[-0.00022879  0.01253685]
 [-0.00027995 -0.00259896]]",[],0.0,0.0
1787562003.818731,1.7682508163402817,0.8256446642687972,2.250119830694512,"[ 1.73788881e-05  2.25814798e-07  0.00000000e+00  0.00000000e+00
  0.00000000e+00 -1.33253041e-06  2.25814798e-07  1.29318464e-05
  0.00000000e+00  0.00000000e+00  0.00000000e+00 -1.16519055e-06
  0.00000000e+00  0.00000000e+00  0.00000000e+00  0.00000000e+00
  0.00000000e+00  0.00000000e+00  0.00000000e+00  0.00000000e+00
  0.00000000e+00  0.00000000e+00  0.00000000e+00  0.00000000e+00
  0.00000000e+00  0.00000000e+00  0.00000000e+00  0.00000000e+00
  0.00000000e+00  0.00000000e+00 -1.33253041e-06 -1.16519055e-06
  0.00000000e+00  0.00000000e+00  0.00000000e+00  4.27000436e-06]","[[-0.00022879  0.01253685]
 [-0.00027995 -0.00259896]]",[],0.0,0.0
1787562003.873308,1.7682508163402817,0.8256446642687972,2.250119830694512,"[ 1.73788881e-05  2.25814798e-07  0.00000000e+00  0.00000000e+00
  0.00000000e+00 -1.33253041e-06  2.25814798e-07  1.29318464e-05
  0.00000000e+00  0.00000000e+00  0.00000000e+00 -1.16519055e-06
  0.00000000e+00  0.00000000e+00  0.00000000e+00  0.00000000e+00
  0.00000000e+00  0.00000000e+00  0.00000000e+00  0.00000000e+00
  0.00000000e+00  0.00000000e+00  0.00000000e+00  0.00000000e+00
  0.00000000e+00  0.00000000e+00  0.00000000e+00  0.00000000e+00
  0.00000000e+00  0.00000000e+00 -1.33253041e-06 -1.16519055e-06
  0.00000000e+00  0.00000000e+00  0.00000000e+00  4.27000436e-06]","[[-0.00022879  0.01253685]
 [-0.00027995 -0.00259896]]",[],0.0,0.0
1787562003.9260483,1.7682508163402817,0.8256446642687972,2.250119830694512,"[ 1.73788881e-05  2.25814798e-07  0.00000000e+00  0.00000000e+00
  0.00000000e+00 -1.33253041e-06  2.25814798e-07  1.29318464e-05
  0.00000000e+00  0.00000000e+00  0.00000000e+00 -1.16519055e-06
  0.00000000e+00  0.00000000e+00  0.00000000e+00  0.00000000e+00
  0.00000000e+00  0.00000000e+00  0.00000000e+00  0.00000000e+00
  0.00000000e+00  0.00000000e+00  0.00000000e+00  0.00000000e+00
  0.00000000e+00  0.00000000e+00  0.00000000e+00  0.00000000e+00
  0.00000000e+00  0.00000000e+00 -1.33253041e-06 -1.16519055e-06
  0.00000000e+00  0.00000000e+00  0.00000000e+00  4.27000436e-06]","[[-0.00022879  0.01253685]
 [-0.00027995 -0.00259896]]",[],0.0,0.0
1787562003.980404,1.774721743644907,0.8180650276954096,2.363653850809799,"[ 1.35926163e-05 -2.13980427e-07  0.00000000e+00  0.00000000e+00
  0.00000000e+00 -1.10149763e-06 -2.13980427e-07  1.05727271e-05
  0.00000000e+00  0.00000000e+00  0.00000000e+00 -4.97663570e-07
  0.00000000e+00  0.00000000e+00  0.00000000e+00  0.00000000e+00
  0.00000000e+00  0.00000000e+00  0.00000000e+00  0.00000000e+00
  0.00000000e+00  0.00000000e+00  0.00000000e+00  0.00000000e+00
  0.00000000e+00  0.00000000e+00  0.00000000e+00  0.00000000e+00
  0.00000000e+00  0.00000000e+00 -1.10149763e-06 -4.97663570e-07
  0.00000000e+00  0.00000000e+00  0.00000000e+00  3.74552868e-06]","[[ 0.00027768  0.00569194]
 [-0.0001601   0.00497804]]",[],0.0,0.0
1787562004.0196817,1.774721743644907,0.8180650276954096,2.363653850809799,"[ 1.35926163e-05 -2.13980427e-07  0.00000000e+00  0.00000000e+00
  0.00000000e+00 -1.10149763e-06 -2.13980427e-07  1.05727271e-05
  0.00000000e+00  0.00000000e+00  0.00000000e+00 -4.97663570e-07
  0.00000000e+00  0.00000000e+00  0.00000000e+00  0.00000000e+00
  0.00000000e+00  0.00000000e+00  0.00000000e+00  0.00000000e+00
  0.00000000e+00  0.00000000e+00  0.00000000e+00  0.00000000e+00
  0.00000000e+00  0.00000000e+00  0.00000000e+00  0.00000000e+00
  0.00000000e+00  0.00000000e+00 -1.10149763e-06 -4.97663570e-07
  0.00000000e+00  0.00000000e+00  0.00000000e+00  3.74552868e-06]","[[ 0.00027768  0.00569194]
 [-0.0001601   0.00497804]]",[],0.0,0.0
1787562004.0733597,1.774721743644907,0.8180650276954096,2.363653850809799,"[ 1.35926163e-05 -2.13980427e-07  0.00000000e+00  0.00000000e+00
  0.00000000e+00 -1.10149763e-06 -2.13980427e-07  1.05727271e-05
  0.00000000e+00  0.00000000e+00  0.00000000e+00 -4.97663570e-07
  0.00000000e+00  0.00000000e+00  0.00000000e+00  0.00000000e+00
  0.00000000e+00  0.00000000e+00  0.00000000e+00  0.00000000e+00
  0.00000000e+00  0.00000000e+00  0.00000000e+00  0.00000000e+00
  0.00000000e+00  0.00000000e+00  0.00000000e+00  0.00000000e+00
  0.00000000e+00  0.00000000e+00 -1.10149763e-06 -4.97663570e-07
  0.00000000e+00  0.00000000e+00  0.00000000e+00  3.74552868e-06]","[[ 0.00027768  0.00569194]
 [-0.0001601   0.00497804]]",[],0.0,0.0
1787562004.1198428,1.774721743644907,0.8180650276954096,2.363653850809799,"[ 1.35926163e-05 -2.13980427e-07  0.00000000e+00  0.00000000e+00
  0.00000000e+00 -1.10149763e-06 -2.13980427e-07  1.05727271e-05
  0.00000000e+00  0.00000000e+00  0.00000000e+00 -4.97663570e-07
  0.00000000e+00  0.00000000e+00  0.00000000e+00  0.00000000e+00
  0.00000000e+00  0.00000000e+00  0.00000000e+00  0.00000000e+00
  0.00000000e+00  0.00000000e+00  0.00000000e+00  0.00000000e+00
  0.00000000e+00  0.00000000e+00  0.00000000e+00  0.00000000e+00
  0.00000000e+00  0.00000000e+00 -1.10149763e-06 -4.97663570e-07
  0.00000000e+00  0.00000000e+00  0.00000000e+00  3.74552868e-06]","[[ 0.00027768  0.00569194]
 [-0.0001601   0.00497804]]",[],0.0,0.0
1787562004.1713338,1.774721743644907,0.8180650276954096,2.363653850809799,"[ 1.35926163e-05 -2.13980427e-07  0.00000000e+00  0.00000000e+00
  0.00000000e+00 -1.10149763e-06 -2.13980427e-07  1.05727271e-05
  0.00000000e+00  0.00000000e+00  0.00000000e+00 -4.97663570e-07
  0.00000000e+00  0.00000000e+00  0.00000000e+00  0.00000000e+00
  0.00000000e+00  0.00000000e+00  0.00000000e+00  0.00000000e+00
  0.00000000e+00  0.00000000e+00  0.00000000e+00  0.00000000e+00
  0.00000000e+00  0.00000000e+00  0.00000000e+00  0.00000000e+00
  0.00000000e+00  0.00000000e+00 -1.10149763e-06 -4.97663570e-07
  0.00000000e+00  0.00000000e+00  0.00000000e+00  3.74552868e-06]","[[ 0.00027768  0.00569194]
 [-0.0001601   0.00497804]]",[],0.0,0.0
1787562004.2195826,1.774721743644907,0.8180650276954096,2.363653850809799,"[ 1.35926163e-05 -2.13980427e-07  0.00000000e+00  0.00000000e+00
  0.00000000e+00 -1.10149763e-06 -2.13980427e-07  1.05727271e-05
  0.00000000e+00  0.00000000e+00  0.00000000e+00 -4.97663570e-07
  0.00000000e+00  0.00000000e+00  0.00000000e+00  0.00000000e+00
  0.00000000e+00  0.00000000e+00  0.00000000e+00  0.00000000e+00
  0.00000000e+00  0.00000000e+00  0.00000000e+00  0.00000000e+00
  0.00000000e+00  0.00000000e+00  0.00000000e+00  0.00000000e+00
  0.00000000e+00  0.00000000e+00 -1.10149763e-06 -4.97663570e-07
  0.00000000e+00  0.00000000e+00  0.00000000e+00  3.74552868e-06]","[[ 0.00027768  0.00569194]
 [-0.0001601   0.00497804]]",[],0.0,0.0
1787562004.277206,1.774721743644907,0.8180650276954096,2.363653850809799,"[ 1.35926163e-05 -2.13980427e-07  0.00000000e+00  0.00000000e+00
  0.00000000e+00 -1.10149763e-06 -2.13980427e-07  1.05727271e-05
  0.00000000e+00  0.00000000e+00  0.00000000e+00 -4.97663570e-07
  0.00000000e+00  0.00000000e+00  0.00000000e+00  0.00000000e+00
  0.00000000e+00  0.00000000e+00  0.00000000e+00  0.00000000e+00
  0.00000000e+00  0.00000000e+00  0.00000000e+00  0.00000000e+00
  0.00000000e+00  0.00000000e+00  0.00000000e+00  0.00000000e+00
  0.00000000e+00  0.00000000e+00 -1.10149763e-06 -4.97663570e-07
  0.00000000e+00  0.00000000e+00  0.00000000e+00  3.74552868e-06]","[[ 0.00027768  0.00569194]
 [-0.0001601   0.00497804]]",[],0.0,0.0
1787562004.3222091,1.774721743644907,0.8180650276954096,2.363653850809799,"[ 1.35926163e-05 -2.13980427e-07  0.00000000e+00  0.00000000e+00
  0.00000000e+00 -1.10149763e-06 -2.13980427e-07  1.05727271e-05
  0.00000000e+00  0.00000000e+00  0.00000000e+00 -4.97663570e-07
  0.00000000e+00  0.00000000e+00  0.00000000e+00  0.00000000e+00
  0.00000000e+00  0.00000000e+00  0.00000000e+00  0.00000000e+00
  0.00000000e+00  0.00000000e+00  0.00000000e+00  0.00000000e+00
  0.00000000e+00  0.00000000e+00  0.00000000e+00  0.00000000e+00
  0.00000000e+00  0.00000000e+00 -1.10149763e-06 -4.97663570e-07
  0.00000000e+00  0.00000000e+00  0.00000000e+00  3.74552868e-06]","[[ 0.00027768  0.00569194]
 [-0.0001601   0.00497804]]",[],0.0,0.0
1787562004.3749473,1.774721743644907,0.8180650276954096,2.363653850809799,"[ 1.35926163e-05 -2.13980427e-07  0.00000000e+00  0.00000000e+00
  0.00000000e+00 -1.10149763e-06 -2.13980427e-07  1.05727271e-05
  0.00000000e+00  0.00000000e+00  0.00000000e+00 -4.97663570e-07
  0.00000000e+00  0.00000000e+00  0.00000000e+00  0.00000000e+00
  0.00000000e+00  0.00000000e+00  0.00000000e+00  0.00000000e+00
  0.00000000e+00  0.00000000e+00  0.00000000e+00  0.00000000e+00
  0.00000000e+00  0.00000000e+00  0.00000000e+00  0.00000000e+00
  0.00000000e+00  0.00000000e+00 -1.10149763e-06 -4.97663570e-07
  0.00000000e+00  0.00000000e+00  0.00000000e+00  3.74552868e-06]","[[ 0.00027768  0.00569194]
 [-0.0001601   0.00497804]]",[],0.0,0.0
1787562004.4188151,1.774721743644907,0.8180650276954096,2.363653850809799,"[ 1.35926163e-05 -2.13980427e-07  0.00000000e+00  0.00000000e+00
  0.00000000e+00 -1.10149763e-06 -2.13980427e-07  1.05727271e-05
  0.00000000e+00  0.00000000e+00  0.00000000e+00 -4.97663570e-07
  0.00000000e+00  0.00000000e+00  0.00000000e+00  0.00000000e+00
  0.00000000e+00  0.00000000e+00  0.00000000e+00  0.00000000e+00
  0.00000000e+00  0.00000000e+00  0.00000000e+00  0.00000000e+00
  0.00000000e+00  0.00000000e+00  0.00000000e+00  0.00000000e+00
  0.00000000e+00  0.00000000e+00 -1.10149763e-06 -4.97663570e-07
  0.00000000e+00  0.00000000e+00  0.00000000e+00  3.74552868e-06]","[[ 0.00027768  0.00569194]
 [-0.0001601   0.00497804]]",[],0.0,0.0
1787562004.4918811,1.774721743644907,0.8180650276954096,2.363653850809799,"[ 1.35926163e-05 -2.13980427e-07  0.00000000e+00  0.00000000e+00
  0.00000000e+00 -1.10149763e-06 -2.13980427e-07  1.05727271e-05
  0.00000000e+00  0.00000000e+00  0.00000000e+00 -4.97663570e-07
  0.00000000e+00  0.00000000e+00  0.00000000e+00  0.00000000e+00
  0.00000000e+00  0.00000000e+00  0.00000000e+00  0.00000000e+00
  0.00000000e+00  0.00000000e+00  0.00000000e+00  0.00000000e+00
  0.00000000e+00  0.00000000e+00  0.00000000e+00  0.00000000e+00
  0.00000000e+00  0.00000000e+00 -1.10149763e-06 -4.97663570e-07
  0.00000000e+00  0.00000000e+00  0.00000000e+00  3.74552868e-06]","[[ 0.00027768  0.00569194]
 [-0.0001601   0.00497804]]",[],0.0,0.0
1787562004.5185502,1.774721743644907,0.8180650276954096,2.363653850809799,"[ 1.35926163e-05 -2.13980427e-07  0.00000000e+00  0.00000000e+00
  0.00000000e+00 -1.10149763e-06 -2.13980427e-07  1.05727271e-05
  0.00000000e+00  0.00000000e+00  0.00000000e+00 -4.97663570e-07
  0.00000000e+00  0.00000000e+00  0.00000000e+00  0.00000000e+00
  0.00000000e+00  0.00000000e+00  0.00000000e+00  0.00000000e+00
  0.00000000e+00  0.00000000e+00  0.00000000e+00  0.00000000e+00
  0.00000000e+00  0.00000000e+00  0.00000000e+00  0.00000000e+00
  0.00000000e+00  0.00000000e+00 -1.10149763e-06 -4.97663570e-07
  0.00000000e+00  0.00000000e+00  0.00000000e+00  3.74552868e-06]","[[ 0.00027768  0.00569194]
 [-0.0001601   0.00497804]]",[],0.0,0.0
1787562004.5782452,1.774721743644907,0.8180650276954096,2.363653850809799,"[ 1.35926163e-05 -2.13980427e-07  0.00000000e+00  0.00000000e+00
  0.00000000e+00 -1.10149763e-06 -2.13980427e-07  1.05727271e-05
  0.00000000e+00  0.00000000e+00  0.00000000e+00 -4.97663570e-07
  0.00000000e+00  0.00000000e+00  0.00000000e+00  0.00000000e+00
  0.00000000e+00  0.00000000e+00  0.00000000e+00  0.00000000e+00
  0.00000000e+00  0.00000000e+00  0.00000000e+00  0.00000000e+00
  0.00000000e+00  0.00000000e+00  0.00000000e+00  0.00000000e+00
  0.00000000e+00  0.00000000e+00 -1.10149763e-06 -4.97663570e-07
  0.00000000e+00  0.00000000e+00  0.00000000e+00  3.74552868e-06]","[[ 0.00027768  0.00569194]
 [-0.0001601   0.00497804]]",[],0.0,0.0
1787562004.6212645,1.774721743644907,0.8180650276954096,2.363653850809799,"[ 1.35926163e-05 -2.13980427e-07  0.00000000e+00  0.00000000e+00
  0.00000000e+00 -1.10149763e-06 -2.13980427e-07  1.05727271e-05
  0.00000000e+00  0.00000000e+00  0.00000000e+00 -4.97663570e-07
  0.00000000e+00  0.00000000e+00  0.00000000e+00  0.00000000e+00
  0.00000000e+00  0.00000000e+00  0.00000000e+00  0.00000000e+00
  0.00000000e+00  0.00000000e+00  0.00000000e+00  0.00000000e+00
  0.00000000e+00  0.00000000e+00  0.00000000e+00  0.00000000e+00
  0.00000000e+00  0.00000000e+00 -1.10149763e-06 -4.97663570e-07
  0.00000000e+00  0.00000000e+00  0.00000000e+00  3.74552868e-06]","[[ 0.00027768  0.00569194]
 [-0.0001601   0.00497804]]",[],0.0,0.0
1787562004.6692936,1.774721743644907,0.8180650276954096,2.363653850809799,"[ 1.35926163e-05 -2.13980427e-07  0.00000000e+00  0.00000000e+00
  0.00000000e+00 -1.10149763e-06 -2.13980427e-07  1.05727271e-05
  0.00000000e+00  0.00000000e+00  0.00000000e+00 -4.97663570e-07
  0.00000000e+00  0.00000000e+00  0.00000000e+00  0.00000000e+00
  0.00000000e+00  0.00000000e+00  0.00000000e+00  0.00000000e+00
  0.00000000e+00  0.00000000e+00  0.00000000e+00  0.00000000e+00
  0.00000000e+00  0.00000000e+00  0.00000000e+00  0.00000000e+00
  0.00000000e+00  0.00000000e+00 -1.10149763e-06 -4.97663570e-07
  0.00000000e+00  0.00000000e+00  0.00000000e+00  3.74552868e-06]","[[ 0.00027768  0.00569194]
 [-0.0001601   0.00497804]]",[],0.0,0.0
1787562004.7228105,1.774721743644907,0.8180650276954096,2.363653850809799,"[ 1.35926163e-05 -2.13980427e-07  0.00000000e+00  0.00000000e+00
  0.00000000e+00 -1.10149763e-06 -2.13980427e-07  1.05727271e-05
  0.00000000e+00  0.00000000e+00  0.00000000e+00 -4.97663570e-07
  0.00000000e+00  0.00000000e+00  0.00000000e+00  0.00000000e+00
  0.00000000e+00  0.00000000e+00  0.00000000e+00  0.00000000e+00
  0.00000000e+00  0.00000000e+00  0.00000000e+00  0.00000000e+00
  0.00000000e+00  0.00000000e+00  0.00000000e+00  0.00000000e+00
  0.00000000e+00  0.00000000e+00 -1.10149763e-06 -4.97663570e-07
  0.00000000e+00  0.00000000e+00  0.00000000e+00  3.74552868e-06]","[[ 0.00027768  0.00569194]
 [-0.0001601   0.00497804]]",[],0.0,0.0
1787562004.768757,1.774721743644907,0.8180650276954096,2.363653850809799,"[ 1.35926163e-05 -2.13980427e-07  0.00000000e+00  0.00000000e+00
  0.00000000e+00 -1.10149763e-06 -2.13980427e-07  1.05727271e-05
  0.00000000e+00  0.00000000e+00  0.00000000e+00 -4.97663570e-07
  0.00000000e+00  0.00000000e+00  0.00000000e+00  0.00000000e+00
  0.00000000e+00  0.00000000e+00  0.00000000e+00  0.00000000e+00
  0.00000000e+00  0.00000000e+00  0.00000000e+00  0.00000000e+00
  0.00000000e+00  0.00000000e+00  0.00000000e+00  0.00000000e+00
  0.00000000e+00  0.00000000e+00 -1.10149763e-06 -4.97663570e-07
  0.00000000e+00  0.00000000e+00  0.00000000e+00  3.74552868e-06]","[[ 0.00027768  0.00569194]
 [-0.0001601   0.00497804]]",[],0.0,0.0
1787562004.8185482,1.774721743644907,0.8180650276954096,2.363653850809799,"[ 1.35926163e-05 -2.13980427e-07  0.00000000e+00  0.00000000e+00
  0.00000000e+00 -1.10149763e-06 -2.13980427e-07  1.05727271e-05
  0.00000000e+00  0.00000000e+00  0.00000000e+00 -4.97663570e-07
  0.00000000e+00  0.00000000e+00  0.00000000e+00  0.00000000e+00
  0.00000000e+00  0.00000000e+00  0.00000000e+00  0.00000000e+00
  0.00000000e+00  0.00000000e+00  0.00000000e+00  0.00000000e+00
  0.00000000e+00  0.00000000e+00  0.00000000e+00  0.00000000e+00
  0.00000000e+00  0.00000000e+00 -1.10149763e-06 -4.97663570e-07
  0.00000000e+00  0.00000000e+00  0.00000000e+00  3.74552868e-06]","[[ 0.00027768  0.00569194]
 [-0.0001601   0.00497804]]",[],0.0,0.0
1787562004.8686934,1.774721743644907,0.8180650276954096,2.363653850809799,"[ 1.35926163e-05 -2.13980427e-07  0.00000000e+00  0.00000000e+00
  0.00000000e+00 -1.10149763e-06 -2.13980427e-07  1.05727271e-05
  0.00000000e+00  0.00000000e+00  0.00000000e+00 -4.97663570e-07
  0.00000000e+00  0.00000000e+00  0.00000000e+00  0.00000000e+00
  0.00000000e+00  0.00000000e+00  0.00000000e+00  0.00000000e+00
  0.00000000e+00  0.00000000e+00  0.00000000e+00  0.00000000e+00
  0.00000000e+00  0.00000000e+00  0.00000000e+00  0.00000000e+00
  0.00000000e+00  0.00000000e+00 -1.10149763e-06 -4.97663570e-07
  0.00000000e+00  0.00000000e+00  0.00000000e+00  3.74552868e-06]","[[ 0.00027768  0.00569194]
 [-0.0001601   0.00497804]]",[],0.0,0.0
1787562004.9187295,1.774721743644907,0.8180650276954096,2.363653850809799,"[ 1.35926163e-05 -2.13980427e-07  0.00000000e+00  0.00000000e+00
  0.00000000e+00 -1.10149763e-06 -2.13980427e-07  1.05727271e-05
  0.00000000e+00  0.00000000e+00  0.00000000e+00 -4.97663570e-07
  0.00000000e+00  0.00000000e+00  0.00000000e+00  0.00000000e+00
  0.00000000e+00  0.00000000e+00  0.00000000e+00  0.00000000e+00
  0.00000000e+00  0.00000000e+00  0.00000000e+00  0.00000000e+00
  0.00000000e+00  0.00000000e+00  0.00000000e+00  0.00000000e+00
  0.00000000e+00  0.00000000e+00 -1.10149763e-06 -4.97663570e-07
  0.00000000e+00  0.00000000e+00  0.00000000e+00  3.74552868e-06]","[[ 0.00027768  0.00569194]
 [-0.0001601   0.00497804]]",[],0.0,0.0
1787562004.9699464,1.774721743644907,0.8180650276954096,2.363653850809799,"[ 1.35926163e-05 -2.13980427e-07  0.00000000e+00  0.00000000e+00
  0.00000000e+00 -1.10149763e-06 -2.13980427e-07  1.05727271e-05
  0.00000000e+00  0.00000000e+00  0.00000000e+00 -4.97663570e-07
  0.00000000e+00  0.00000000e+00  0.00000000e+00  0.00000000e+00
  0.00000000e+00  0.00000000e+00  0.00000000e+00  0.00000000e+00
  0.00000000e+00  0.00000000e+00  0.00000000e+00  0.00000000e+00
  0.00000000e+00  0.00000000e+00  0.00000000e+00  0.00000000e+00
  0.00000000e+00  0.00000000e+00 -1.10149763e-06 -4.97663570e-07
  0.00000000e+00  0.00000000e+00  0.00000000e+00  3.74552868e-06]","[[ 0.00027768  0.00569194]
 [-0.0001601   0.00497804]]",[],0.0,0.0
1787562005.018747,1.7772859510152201,0.8040927141659832,2.362859461050512,"[ 1.21402282e-05 -1.01182962e-08  0.00000000e+00  0.00000000e+00
  0.00000000e+00 -1.45464287e-08 -1.01182962e-08  9.75496073e-06
  0.00000000e+00  0.00000000e+00  0.00000000e+00 -4.09484081e-08
  0.00000000e+00  0.00000000e+00  0.00000000e+00  0.00000000e+00
  0.00000000e+00  0.00000000e+00  0.00000000e+00  0.00000000e+00
  0.00000000e+00  0.00000000e+00  0.00000000e+00  0.00000000e+00
  0.00000000e+00  0.00000000e+00  0.00000000e+00  0.00000000e+00
  0.00000000e+00  0.00000000e+00 -1.45464287e-08 -4.09484081e-08
  0.00000000e+00  0.00000000e+00  0.00000000e+00  6.08536348e-06]","[[ 0.00024522  0.00354595]
 [-0.00014407  0.00394261]]",[],0.0,0.0
1787562005.0690734,1.7772859510152201,0.8040927141659832,2.362859461050512,"[ 1.21402282e-05 -1.01182962e-08  0.00000000e+00  0.00000000e+00
  0.00000000e+00 -1.45464287e-08 -1.01182962e-08  9.75496073e-06
  0.00000000e+00  0.00000000e+00  0.00000000e+00 -4.09484081e-08
  0.00000000e+00  0.00000000e+00  0.00000000e+00  0.00000000e+00
  0.00000000e+00  0.00000000e+00  0.00000000e+00  0.00000000e+00
  0.00000000e+00  0.00000000e+00  0.00000000e+00  0.00000000e+00
  0.00000000e+00  0.00000000e+00  0.00000000e+00  0.00000000e+00
  0.00000000e+00  0.00000000e+00 -1.45464287e-08 -4.09484081e-08
  0.00000000e+00  0.00000000e+00  0.00000000e+00  6.08536348e-06]","[[ 0.00024522  0.00354595]
 [-0.00014407  0.00394261]]",[],0.0,0.0
1787562005.1193984,1.7772859510152201,0.8040927141659832,2.362859461050512,"[ 1.21402282e-05 -1.01182962e-08  0.00000000e+00  0.00000000e+00
  0.00000000e+00 -1.45464287e-08 -1.01182962e-08  9.75496073e-06
  0.00000000e+00  0.00000000e+00  0.00000000e+00 -4.09484081e-08
  0.00000000e+00  0.00000000e+00  0.00000000e+00  0.00000000e+00
  0.00000000e+00  0.00000000e+00  0.00000000e+00  0.00000000e+00
  0.00000000e+00  0.00000000e+00  0.00000000e+00  0.00000000e+00
  0.00000000e+00  0.00000000e+00  0.00000000e+00  0.00000000e+00
  0.00000000e+00  0.00000000e+00 -1.45464287e-08 -4.09484081e-08
  0.00000000e+00  0.00000000e+00  0.00000000e+00  6.08536348e-06]","[[ 0.00024522  0.00354595]
 [-0.00014407  0.00394261]]",[],0.0,0.0
1787562005.1686947,1.7772859510152201,0.8040927141659832,2.362859461050512,"[ 1.21402282e-05 -1.01182962e-08  0.00000000e+00  0.00000000e+00
  0.00000000e+00 -1.45464287e-08 -1.01182962e-08  9.75496073e-06
  0.00000000e+00  0.00000000e+00  0.00000000e+00 -4.09484081e-08
  0.00000000e+00  0.00000000e+00  0.00000000e+00  0.00000000e+00
  0.00000000e+00  0.00000000e+00  0.00000000e+00  0.00000000e+00
  0.00000000e+00  0.00000000e+00  0.00000000e+00  0.00000000e+00
  0.00000000e+00  0.00000000e+00  0.00000000e+00  0.00000000e+00
  0.00000000e+00  0.00000000e+00 -1.45464287e-08 -4.09484081e-08
  0.00000000e+00  0.00000000e+00  0.00000000e+00  6.08536348e-06]","[[ 0.00024522  0.00354595]
 [-0.00014407  0.00394261]]",[],0.0,0.0
1787562005.2327836,1.7772859510152201,0.8040927141659832,2.362859461050512,"[ 1.21402282e-05 -1.01182962e-08  0.00000000e+00  0.00000000e+00
  0.00000000e+00 -1.45464287e-08 -1.01182962e-08  9.75496073e-06
  0.00000000e+00  0.00000000e+00  0.00000000e+00 -4.09484081e-08
  0.00000000e+00  0.00000000e+00  0.00000000e+00  0.00000000e+00
  0.00000000e+00  0.00000000e+00  0.00000000e+00  0.00000000e+00
  0.00000000e+00  0.00000000e+00  0.00000000e+00  0.00000000e+00
  0.00000000e+00  0.00000000e+00  0.00000000e+00  0.00000000e+00
  0.00000000e+00  0.00000000e+00 -1.45464287e-08 -4.09484081e-08
  0.00000000e+00  0.00000000e+00  0.00000000e+00  6.08536348e-06]","[[ 0.00024522  0.00354595]
 [-0.00014407  0.00394261]]",[],0.0,0.0
1787562005.2696238,1.7772859510152201,0.8040927141659832,2.362859461050512,"[ 1.21402282e-05 -1.01182962e-08  0.00000000e+00  0.00000000e+00
  0.00000000e+00 -1.45464287e-08 -1.01182962e-08  9.75496073e-06
  0.00000000e+00  0.00000000e+00  0.00000000e+00 -4.09484081e-08
  0.00000000e+00  0.00000000e+00  0.00000000e+00  0.00000000e+00
  0.00000000e+00  0.00000000e+00  0.00000000e+00  0.00000000e+00
  0.00000000e+00  0.00000000e+00  0.00000000e+00  0.00000000e+00
  0.00000000e+00  0.00000000e+00  0.00000000e+00  0.00000000e+00
  0.00000000e+00  0.00000000e+00 -1.45464287e-08 -4.09484081e-08
  0.00000000e+00  0.00000000e+00  0.00000000e+00  6.08536348e-06]","[[ 0.00024522  0.00354595]
 [-0.00014407  0.00394261]]",[],0.0,0.0
1787562005.3195693,1.7772859510152201,0.8040927141659832,2.362859461050512,"[ 1.21402282e-05 -1.01182962e-08  0.00000000e+00  0.00000000e+00
  0.00000000e+00 -1.45464287e-08 -1.01182962e-08  9.75496073e-06
  0.00000000e+00  0.00000000e+00  0.00000000e+00 -4.09484081e-08
  0.00000000e+00  0.00000000e+00  0.00000000e+00  0.00000000e+00
  0.00000000e+00  0.00000000e+00  0.00000000e+00  0.00000000e+00
  0.00000000e+00  0.00000000e+00  0.00000000e+00  0.00000000e+00
  0.00000000e+00  0.00000000e+00  0.00000000e+00  0.00000000e+00
  0.00000000e+00  0.00000000e+00 -1.45464287e-08 -4.09484081e-08
  0.00000000e+00  0.00000000e+00  0.00000000e+00  6.08536348e-06]","[[ 0.00024522  0.00354595]
 [-0.00014407  0.00394261]]",[],0.0,0.0
1787562005.3718982,1.7772859510152201,0.8040927141659832,2.362859461050512,"[ 1.21402282e-05 -1.01182962e-08  0.00000000e+00  0.00000000e+00
  0.00000000e+00 -1.45464287e-08 -1.01182962e-08  9.75496073e-06
  0.00000000e+00  0.00000000e+00  0.00000000e+00 -4.09484081e-08
  0.00000000e+00  0.00000000e+00  0.00000000e+00  0.00000000e+00
  0.00000000e+00  0.00000000e+00  0.00000000e+00  0.00000000e+00
  0.00000000e+00  0.00000000e+00  0.00000000e+00  0.00000000e+00
  0.00000000e+00  0.00000000e+00  0.00000000e+00  0.00000000e+00
  0.00000000e+00  0.00000000e+00 -1.45464287e-08 -4.09484081e-08
  0.00000000e+00  0.00000000e+00  0.00000000e+00  6.08536348e-06]","[[ 0.00024522  0.00354595]
 [-0.00014407  0.00394261]]",[],0.0,0.0
1787562005.44062,1.7772859510152201,0.8040927141659832,2.362859461050512,"[ 1.21402282e-05 -1.01182962e-08  0.00000000e+00  0.00000000e+00
  0.00000000e+00 -1.45464287e-08 -1.01182962e-08  9.75496073e-06
  0.00000000e+00  0.00000000e+00  0.00000000e+00 -4.09484081e-08
  0.00000000e+00  0.00000000e+00  0.00000000e+00  0.00000000e+00
  0.00000000e+00  0.00000000e+00  0.00000000e+00  0.00000000e+00
  0.00000000e+00  0.00000000e+00  0.00000000e+00  0.00000000e+00
  0.00000000e+00  0.00000000e+00  0.00000000e+00  0.00000000e+00
  0.00000000e+00  0.00000000e+00 -1.45464287e-08 -4.09484081e-08
  0.00000000e+00  0.00000000e+00  0.00000000e+00  6.08536348e-06]","[[ 0.00024522  0.00354595]
 [-0.00014407  0.00394261]]",[],0.0,0.0
1787562005.4715755,1.7772859510152201,0.8040927141659832,2.362859461050512,"[ 1.21402282e-05 -1.01182962e-08  0.00000000e+00  0.00000000e+00
  0.00000000e+00 -1.45464287e-08 -1.01182962e-08  9.75496073e-06
  0.00000000e+00  0.00000000e+00  0.00000000e+00 -4.09484081e-08
  0.00000000e+00  0.00000000e+00  0.00000000e+00  0.00000000e+00
  0.00000000e+00  0.00000000e+00  0.00000000e+00  0.00000000e+00
  0.00000000e+00  0.00000000e+00  0.00000000e+00  0.00000000e+00
  0.00000000e+00  0.00000000e+00  0.00000000e+00  0.00000000e+00
  0.00000000e+00  0.00000000e+00 -1.45464287e-08 -4.09484081e-08
  0.00000000e+00  0.00000000e+00  0.00000000e+00  6.08536348e-06]","[[ 0.00024522  0.00354595]
 [-0.00014407  0.00394261]]",[],0.0,0.0
1787562005.5244524,1.7772859510152201,0.8040927141659832,2.362859461050512,"[ 1.21402282e-05 -1.01182962e-08  0.00000000e+00  0.00000000e+00
  0.00000000e+00 -1.45464287e-08 -1.01182962e-08  9.75496073e-06
  0.00000000e+00  0.00000000e+00  0.00000000e+00 -4.09484081e-08
  0.00000000e+00  0.00000000e+00  0.00000000e+00  0.00000000e+00
  0.00000000e+00  0.00000000e+00  0.00000000e+00  0.00000000e+00
  0.00000000e+00  0.00000000e+00  0.00000000e+00  0.00000000e+00
  0.00000000e+00  0.00000000e+00  0.00000000e+00  0.00000000e+00
  0.00000000e+00  0.00000000e+00 -1.45464287e-08 -4.09484081e-08
  0.00000000e+00  0.00000000e+00  0.00000000e+00  6.08536348e-06]","[[ 0.00024522  0.00354595]
 [-0.00014407  0.00394261]]",[],0.0,0.0
1787562005.5706906,1.7772859510152201,0.8040927141659832,2.362859461050512,"[ 1.21402282e-05 -1.01182962e-08  0.00000000e+00  0.00000000e+00
  0.00000000e+00 -1.45464287e-08 -1.01182962e-08  9.75496073e-06
  0.00000000e+00  0.00000000e+00  0.00000000e+00 -4.09484081e-08
  0.00000000e+00  0.00000000e+00  0.00000000e+00  0.00000000e+00
  0.00000000e+00  0.00000000e+00  0.00000000e+00  0.00000000e+00
