time,x,y,yaw,cov_prop,K_gain,innovation,v_ekf,omega_ekf
1787153049.402951,1.4152787698551912,0.8434656566029333,1.8697335487710376,"[ 8.11723774e-05  2.46204860e-06  0.00000000e+00  0.00000000e+00
  0.00000000e+00 -7.00086175e-06  2.46204860e-06  5.01082295e-05
  0.00000000e+00  0.00000000e+00  0.00000000e+00  1.10887520e-08
  0.00000000e+00  0.00000000e+00  0.00000000e+00  0.00000000e+00
  0.00000000e+00  0.00000000e+00  0.00000000e+00  0.00000000e+00
  0.00000000e+00  0.00000000e+00  0.00000000e+00  0.00000000e+00
  0.00000000e+00  0.00000000e+00  0.00000000e+00  0.00000000e+00
  0.00000000e+00  0.00000000e+00 -7.00086175e-06  1.10887520e-08
  0.00000000e+00  0.00000000e+00  0.00000000e+00  4.42992199e-06]","[[-0.00148567  0.03251236]
 [-0.00092493 -0.01283313]]",[],0.0,0.0
1787153049.4502165,1.4152787698551912,0.8434656566029333,1.8697335487710376,"[ 8.11723774e-05  2.46204860e-06  0.00000000e+00  0.00000000e+00
  0.00000000e+00 -7.00086175e-06  2.46204860e-06  5.01082295e-05
  0.00000000e+00  0.00000000e+00  0.00000000e+00  1.10887520e-08
  0.00000000e+00  0.00000000e+00  0.00000000e+00  0.00000000e+00
  0.00000000e+00  0.00000000e+00  0.00000000e+00  0.00000000e+00
  0.00000000e+00  0.00000000e+00  0.00000000e+00  0.00000000e+00
  0.00000000e+00  0.00000000e+00  0.00000000e+00  0.00000000e+00
  0.00000000e+00  0.00000000e+00 -7.00086175e-06  1.10887520e-08
  0.00000000e+00  0.00000000e+00  0.00000000e+00  4.42992199e-06]","[[-0.00148567  0.03251236]
 [-0.00092493 -0.01283313]]",[],0.0,0.0
1787153049.5624835,1.4152787698551912,0.8434656566029333,1.8697335487710376,"[ 8.11723774e-05  2.46204860e-06  0.00000000e+00  0.00000000e+00
  0.00000000e+00 -7.00086175e-06  2.46204860e-06  5.01082295e-05
  0.00000000e+00  0.00000000e+00  0.00000000e+00  1.10887520e-08
  0.00000000e+00  0.00000000e+00  0.00000000e+00  0.00000000e+00
  0.00000000e+00  0.00000000e+00  0.00000000e+00  0.00000000e+00
  0.00000000e+00  0.00000000e+00  0.00000000e+00  0.00000000e+00
  0.00000000e+00  0.00000000e+00  0.00000000e+00  0.00000000e+00
  0.00000000e+00  0.00000000e+00 -7.00086175e-06  1.10887520e-08
  0.00000000e+00  0.00000000e+00  0.00000000e+00  4.42992199e-06]","[[-0.00148567  0.03251236]
 [-0.00092493 -0.01283313]]",[],0.0,0.0
1787153049.6009276,1.4152787698551912,0.8434656566029333,1.8697335487710376,"[ 8.11723774e-05  2.46204860e-06  0.00000000e+00  0.00000000e+00
  0.00000000e+00 -7.00086175e-06  2.46204860e-06  5.01082295e-05
  0.00000000e+00  0.00000000e+00  0.00000000e+00  1.10887520e-08
  0.00000000e+00  0.00000000e+00  0.00000000e+00  0.00000000e+00
  0.00000000e+00  0.00000000e+00  0.00000000e+00  0.00000000e+00
  0.00000000e+00  0.00000000e+00  0.00000000e+00  0.00000000e+00
  0.00000000e+00  0.00000000e+00  0.00000000e+00  0.00000000e+00
  0.00000000e+00  0.00000000e+00 -7.00086175e-06  1.10887520e-08
  0.00000000e+00  0.00000000e+00  0.00000000e+00  4.42992199e-06]","[[-0.00148567  0.03251236]
 [-0.00092493 -0.01283313]]",[],0.0,0.0
1787153049.6488917,1.4152787698551912,0.8434656566029333,1.8697335487710376,"[ 8.11723774e-05  2.46204860e-06  0.00000000e+00  0.00000000e+00
  0.00000000e+00 -7.00086175e-06  2.46204860e-06  5.01082295e-05
  0.00000000e+00  0.00000000e+00  0.00000000e+00  1.10887520e-08
  0.00000000e+00  0.00000000e+00  0.00000000e+00  0.00000000e+00
  0.00000000e+00  0.00000000e+00  0.00000000e+00  0.00000000e+00
  0.00000000e+00  0.00000000e+00  0.00000000e+00  0.00000000e+00
  0.00000000e+00  0.00000000e+00  0.00000000e+00  0.00000000e+00
  0.00000000e+00  0.00000000e+00 -7.00086175e-06  1.10887520e-08
  0.00000000e+00  0.00000000e+00  0.00000000e+00  4.42992199e-06]","[[-0.00148567  0.03251236]
 [-0.00092493 -0.01283313]]",[],0.0,0.0
1787153049.6891148,1.4152787698551912,0.8434656566029333,1.8697335487710376,"[ 8.11723774e-05  2.46204860e-06  0.00000000e+00  0.00000000e+00
  0.00000000e+00 -7.00086175e-06  2.46204860e-06  5.01082295e-05
  0.00000000e+00  0.00000000e+00  0.00000000e+00  1.10887520e-08
  0.00000000e+00  0.00000000e+00  0.00000000e+00  0.00000000e+00
  0.00000000e+00  0.00000000e+00  0.00000000e+00  0.00000000e+00
  0.00000000e+00  0.00000000e+00  0.00000000e+00  0.00000000e+00
  0.00000000e+00  0.00000000e+00  0.00000000e+00  0.00000000e+00
  0.00000000e+00  0.00000000e+00 -7.00086175e-06  1.10887520e-08
  0.00000000e+00  0.00000000e+00  0.00000000e+00  4.42992199e-06]","[[-0.00148567  0.03251236]
 [-0.00092493 -0.01283313]]",[],0.0,0.0
1787153049.7398772,1.4152787698551912,0.8434656566029333,1.8697335487710376,"[ 8.11723774e-05  2.46204860e-06  0.00000000e+00  0.00000000e+00
  0.00000000e+00 -7.00086175e-06  2.46204860e-06  5.01082295e-05
  0.00000000e+00  0.00000000e+00  0.00000000e+00  1.10887520e-08
  0.00000000e+00  0.00000000e+00  0.00000000e+00  0.00000000e+00
  0.00000000e+00  0.00000000e+00  0.00000000e+00  0.00000000e+00
  0.00000000e+00  0.00000000e+00  0.00000000e+00  0.00000000e+00
  0.00000000e+00  0.00000000e+00  0.00000000e+00  0.00000000e+00
  0.00000000e+00  0.00000000e+00 -7.00086175e-06  1.10887520e-08
  0.00000000e+00  0.00000000e+00  0.00000000e+00  4.42992199e-06]","[[-0.00148567  0.03251236]
 [-0.00092493 -0.01283313]]",[],0.0,0.0
1787153049.7884903,1.4152787698551912,0.8434656566029333,1.8697335487710376,"[ 8.11723774e-05  2.46204860e-06  0.00000000e+00  0.00000000e+00
  0.00000000e+00 -7.00086175e-06  2.46204860e-06  5.01082295e-05
  0.00000000e+00  0.00000000e+00  0.00000000e+00  1.10887520e-08
  0.00000000e+00  0.00000000e+00  0.00000000e+00  0.00000000e+00
  0.00000000e+00  0.00000000e+00  0.00000000e+00  0.00000000e+00
  0.00000000e+00  0.00000000e+00  0.00000000e+00  0.00000000e+00
  0.00000000e+00  0.00000000e+00  0.00000000e+00  0.00000000e+00
  0.00000000e+00  0.00000000e+00 -7.00086175e-06  1.10887520e-08
  0.00000000e+00  0.00000000e+00  0.00000000e+00  4.42992199e-06]","[[-0.00148567  0.03251236]
 [-0.00092493 -0.01283313]]",[],0.0,0.0
1787153049.839144,1.4152787698551912,0.8434656566029333,1.8697335487710376,"[ 8.11723774e-05  2.46204860e-06  0.00000000e+00  0.00000000e+00
  0.00000000e+00 -7.00086175e-06  2.46204860e-06  5.01082295e-05
  0.00000000e+00  0.00000000e+00  0.00000000e+00  1.10887520e-08
  0.00000000e+00  0.00000000e+00  0.00000000e+00  0.00000000e+00
  0.00000000e+00  0.00000000e+00  0.00000000e+00  0.00000000e+00
  0.00000000e+00  0.00000000e+00  0.00000000e+00  0.00000000e+00
  0.00000000e+00  0.00000000e+00  0.00000000e+00  0.00000000e+00
  0.00000000e+00  0.00000000e+00 -7.00086175e-06  1.10887520e-08
  0.00000000e+00  0.00000000e+00  0.00000000e+00  4.42992199e-06]","[[-0.00148567  0.03251236]
 [-0.00092493 -0.01283313]]",[],0.0,0.0
1787153049.892127,1.4152787698551912,0.8434656566029333,1.8697335487710376,"[ 8.11723774e-05  2.46204860e-06  0.00000000e+00  0.00000000e+00
  0.00000000e+00 -7.00086175e-06  2.46204860e-06  5.01082295e-05
  0.00000000e+00  0.00000000e+00  0.00000000e+00  1.10887520e-08
  0.00000000e+00  0.00000000e+00  0.00000000e+00  0.00000000e+00
  0.00000000e+00  0.00000000e+00  0.00000000e+00  0.00000000e+00
  0.00000000e+00  0.00000000e+00  0.00000000e+00  0.00000000e+00
  0.00000000e+00  0.00000000e+00  0.00000000e+00  0.00000000e+00
  0.00000000e+00  0.00000000e+00 -7.00086175e-06  1.10887520e-08
  0.00000000e+00  0.00000000e+00  0.00000000e+00  4.42992199e-06]","[[-0.00148567  0.03251236]
 [-0.00092493 -0.01283313]]",[],0.0,0.0
1787153049.9388945,1.4152787698551912,0.8434656566029333,1.8697335487710376,"[ 8.11723774e-05  2.46204860e-06  0.00000000e+00  0.00000000e+00
  0.00000000e+00 -7.00086175e-06  2.46204860e-06  5.01082295e-05
  0.00000000e+00  0.00000000e+00  0.00000000e+00  1.10887520e-08
  0.00000000e+00  0.00000000e+00  0.00000000e+00  0.00000000e+00
  0.00000000e+00  0.00000000e+00  0.00000000e+00  0.00000000e+00
  0.00000000e+00  0.00000000e+00  0.00000000e+00  0.00000000e+00
  0.00000000e+00  0.00000000e+00  0.00000000e+00  0.00000000e+00
  0.00000000e+00  0.00000000e+00 -7.00086175e-06  1.10887520e-08
  0.00000000e+00  0.00000000e+00  0.00000000e+00  4.42992199e-06]","[[-0.00148567  0.03251236]
 [-0.00092493 -0.01283313]]",[],0.0,0.0
1787153049.9886026,1.4152787698551912,0.8434656566029333,1.8697335487710376,"[ 8.11723774e-05  2.46204860e-06  0.00000000e+00  0.00000000e+00
  0.00000000e+00 -7.00086175e-06  2.46204860e-06  5.01082295e-05
  0.00000000e+00  0.00000000e+00  0.00000000e+00  1.10887520e-08
  0.00000000e+00  0.00000000e+00  0.00000000e+00  0.00000000e+00
  0.00000000e+00  0.00000000e+00  0.00000000e+00  0.00000000e+00
  0.00000000e+00  0.00000000e+00  0.00000000e+00  0.00000000e+00
  0.00000000e+00  0.00000000e+00  0.00000000e+00  0.00000000e+00
  0.00000000e+00  0.00000000e+00 -7.00086175e-06  1.10887520e-08
  0.00000000e+00  0.00000000e+00  0.00000000e+00  4.42992199e-06]","[[-0.00148567  0.03251236]
 [-0.00092493 -0.01283313]]",[],0.0,0.0
1787153050.0411615,1.4152787698551912,0.8434656566029333,1.8697335487710376,"[ 8.11723774e-05  2.46204860e-06  0.00000000e+00  0.00000000e+00
  0.00000000e+00 -7.00086175e-06  2.46204860e-06  5.01082295e-05
  0.00000000e+00  0.00000000e+00  0.00000000e+00  1.10887520e-08
  0.00000000e+00  0.00000000e+00  0.00000000e+00  0.00000000e+00
  0.00000000e+00  0.00000000e+00  0.00000000e+00  0.00000000e+00
  0.00000000e+00  0.00000000e+00  0.00000000e+00  0.00000000e+00
  0.00000000e+00  0.00000000e+00  0.00000000e+00  0.00000000e+00
  0.00000000e+00  0.00000000e+00 -7.00086175e-06  1.10887520e-08
  0.00000000e+00  0.00000000e+00  0.00000000e+00  4.42992199e-06]","[[-0.00148567  0.03251236]
 [-0.00092493 -0.01283313]]",[],0.0,0.0
1787153050.088958,1.4152787698551912,0.8434656566029333,1.8697335487710376,"[ 8.11723774e-05  2.46204860e-06  0.00000000e+00  0.00000000e+00
  0.00000000e+00 -7.00086175e-06  2.46204860e-06  5.01082295e-05
  0.00000000e+00  0.00000000e+00  0.00000000e+00  1.10887520e-08
  0.00000000e+00  0.00000000e+00  0.00000000e+00  0.00000000e+00
  0.00000000e+00  0.00000000e+00  0.00000000e+00  0.00000000e+00
  0.00000000e+00  0.00000000e+00  0.00000000e+00  0.00000000e+00
  0.00000000e+00  0.00000000e+00  0.00000000e+00  0.00000000e+00
  0.00000000e+00  0.00000000e+00 -7.00086175e-06  1.10887520e-08
  0.00000000e+00  0.00000000e+00  0.00000000e+00  4.42992199e-06]","[[-0.00148567  0.03251236]
 [-0.00092493 -0.01283313]]",[],0.0,0.0
1787153050.1390438,1.4152787698551912,0.8434656566029333,1.8697335487710376,"[ 8.11723774e-05  2.46204860e-06  0.00000000e+00  0.00000000e+00
  0.00000000e+00 -7.00086175e-06  2.46204860e-06  5.01082295e-05
  0.00000000e+00  0.00000000e+00  0.00000000e+00  1.10887520e-08
  0.00000000e+00  0.00000000e+00  0.00000000e+00  0.00000000e+00
  0.00000000e+00  0.00000000e+00  0.00000000e+00  0.00000000e+00
  0.00000000e+00  0.00000000e+00  0.00000000e+00  0.00000000e+00
  0.00000000e+00  0.00000000e+00  0.00000000e+00  0.00000000e+00
  0.00000000e+00  0.00000000e+00 -7.00086175e-06  1.10887520e-08
  0.00000000e+00  0.00000000e+00  0.00000000e+00  4.42992199e-06]","[[-0.00148567  0.03251236]
 [-0.00092493 -0.01283313]]",[],0.0,0.0
1787153050.1910627,1.4152787698551912,0.8434656566029333,1.8697335487710376,"[ 8.11723774e-05  2.46204860e-06  0.00000000e+00  0.00000000e+00
  0.00000000e+00 -7.00086175e-06  2.46204860e-06  5.01082295e-05
  0.00000000e+00  0.00000000e+00  0.00000000e+00  1.10887520e-08
  0.00000000e+00  0.00000000e+00  0.00000000e+00  0.00000000e+00
  0.00000000e+00  0.00000000e+00  0.00000000e+00  0.00000000e+00
  0.00000000e+00  0.00000000e+00  0.00000000e+00  0.00000000e+00
  0.00000000e+00  0.00000000e+00  0.00000000e+00  0.00000000e+00
  0.00000000e+00  0.00000000e+00 -7.00086175e-06  1.10887520e-08
  0.00000000e+00  0.00000000e+00  0.00000000e+00  4.42992199e-06]","[[-0.00148567  0.03251236]
 [-0.00092493 -0.01283313]]",[],0.0,0.0
1787153050.2385569,1.4152787698551912,0.8434656566029333,1.8697335487710376,"[ 8.11723774e-05  2.46204860e-06  0.00000000e+00  0.00000000e+00
  0.00000000e+00 -7.00086175e-06  2.46204860e-06  5.01082295e-05
  0.00000000e+00  0.00000000e+00  0.00000000e+00  1.10887520e-08
  0.00000000e+00  0.00000000e+00  0.00000000e+00  0.00000000e+00
  0.00000000e+00  0.00000000e+00  0.00000000e+00  0.00000000e+00
  0.00000000e+00  0.00000000e+00  0.00000000e+00  0.00000000e+00
  0.00000000e+00  0.00000000e+00  0.00000000e+00  0.00000000e+00
  0.00000000e+00  0.00000000e+00 -7.00086175e-06  1.10887520e-08
  0.00000000e+00  0.00000000e+00  0.00000000e+00  4.42992199e-06]","[[-0.00148567  0.03251236]
 [-0.00092493 -0.01283313]]",[],0.0,0.0
1787153050.2911575,1.4152787698551912,0.8434656566029333,1.8697335487710376,"[ 8.11723774e-05  2.46204860e-06  0.00000000e+00  0.00000000e+00
  0.00000000e+00 -7.00086175e-06  2.46204860e-06  5.01082295e-05
  0.00000000e+00  0.00000000e+00  0.00000000e+00  1.10887520e-08
  0.00000000e+00  0.00000000e+00  0.00000000e+00  0.00000000e+00
  0.00000000e+00  0.00000000e+00  0.00000000e+00  0.00000000e+00
  0.00000000e+00  0.00000000e+00  0.00000000e+00  0.00000000e+00
  0.00000000e+00  0.00000000e+00  0.00000000e+00  0.00000000e+00
  0.00000000e+00  0.00000000e+00 -7.00086175e-06  1.10887520e-08
  0.00000000e+00  0.00000000e+00  0.00000000e+00  4.42992199e-06]","[[-0.00148567  0.03251236]
 [-0.00092493 -0.01283313]]",[],0.0,0.0
1787153050.3415012,1.4152787698551912,0.8434656566029333,1.8697335487710376,"[ 8.11723774e-05  2.46204860e-06  0.00000000e+00  0.00000000e+00
  0.00000000e+00 -7.00086175e-06  2.46204860e-06  5.01082295e-05
  0.00000000e+00  0.00000000e+00  0.00000000e+00  1.10887520e-08
  0.00000000e+00  0.00000000e+00  0.00000000e+00  0.00000000e+00
  0.00000000e+00  0.00000000e+00  0.00000000e+00  0.00000000e+00
  0.00000000e+00  0.00000000e+00  0.00000000e+00  0.00000000e+00
  0.00000000e+00  0.00000000e+00  0.00000000e+00  0.00000000e+00
  0.00000000e+00  0.00000000e+00 -7.00086175e-06  1.10887520e-08
  0.00000000e+00  0.00000000e+00  0.00000000e+00  4.42992199e-06]","[[-0.00148567  0.03251236]
 [-0.00092493 -0.01283313]]",[],0.0,0.0
1787153050.392925,1.3983908707498038,0.823774809270922,1.9468478942267842,"[ 3.78595301e-05  2.92888254e-07  0.00000000e+00  0.00000000e+00
  0.00000000e+00 -2.99734408e-06  2.92888254e-07  2.48606364e-05
  0.00000000e+00  0.00000000e+00  0.00000000e+00 -6.88174630e-08
  0.00000000e+00  0.00000000e+00  0.00000000e+00  0.00000000e+00
  0.00000000e+00  0.00000000e+00  0.00000000e+00  0.00000000e+00
  0.00000000e+00  0.00000000e+00  0.00000000e+00  0.00000000e+00
  0.00000000e+00  0.00000000e+00  0.00000000e+00  0.00000000e+00
  0.00000000e+00  0.00000000e+00 -2.99734408e-06 -6.88174630e-08
  0.00000000e+00  0.00000000e+00  0.00000000e+00  3.58950575e-06]","[[-0.00015676  0.03498179]
 [-0.00061487 -0.00281191]]",[],0.0,0.0
1787153050.4389274,1.3983908707498038,0.823774809270922,1.9468478942267842,"[ 3.78595301e-05  2.92888254e-07  0.00000000e+00  0.00000000e+00
  0.00000000e+00 -2.99734408e-06  2.92888254e-07  2.48606364e-05
  0.00000000e+00  0.00000000e+00  0.00000000e+00 -6.88174630e-08
  0.00000000e+00  0.00000000e+00  0.00000000e+00  0.00000000e+00
  0.00000000e+00  0.00000000e+00  0.00000000e+00  0.00000000e+00
  0.00000000e+00  0.00000000e+00  0.00000000e+00  0.00000000e+00
  0.00000000e+00  0.00000000e+00  0.00000000e+00  0.00000000e+00
  0.00000000e+00  0.00000000e+00 -2.99734408e-06 -6.88174630e-08
  0.00000000e+00  0.00000000e+00  0.00000000e+00  3.58950575e-06]","[[-0.00015676  0.03498179]
 [-0.00061487 -0.00281191]]",[],0.0,0.0
1787153050.491094,1.3983908707498038,0.823774809270922,1.9468478942267842,"[ 3.78595301e-05  2.92888254e-07  0.00000000e+00  0.00000000e+00
  0.00000000e+00 -2.99734408e-06  2.92888254e-07  2.48606364e-05
  0.00000000e+00  0.00000000e+00  0.00000000e+00 -6.88174630e-08
  0.00000000e+00  0.00000000e+00  0.00000000e+00  0.00000000e+00
  0.00000000e+00  0.00000000e+00  0.00000000e+00  0.00000000e+00
  0.00000000e+00  0.00000000e+00  0.00000000e+00  0.00000000e+00
  0.00000000e+00  0.00000000e+00  0.00000000e+00  0.00000000e+00
  0.00000000e+00  0.00000000e+00 -2.99734408e-06 -6.88174630e-08
  0.00000000e+00  0.00000000e+00  0.00000000e+00  3.58950575e-06]","[[-0.00015676  0.03498179]
 [-0.00061487 -0.00281191]]",[],0.0,0.0
1787153050.5397463,1.3983908707498038,0.823774809270922,1.9468478942267842,"[ 3.78595301e-05  2.92888254e-07  0.00000000e+00  0.00000000e+00
  0.00000000e+00 -2.99734408e-06  2.92888254e-07  2.48606364e-05
  0.00000000e+00  0.00000000e+00  0.00000000e+00 -6.88174630e-08
  0.00000000e+00  0.00000000e+00  0.00000000e+00  0.00000000e+00
  0.00000000e+00  0.00000000e+00  0.00000000e+00  0.00000000e+00
  0.00000000e+00  0.00000000e+00  0.00000000e+00  0.00000000e+00
  0.00000000e+00  0.00000000e+00  0.00000000e+00  0.00000000e+00
  0.00000000e+00  0.00000000e+00 -2.99734408e-06 -6.88174630e-08
  0.00000000e+00  0.00000000e+00  0.00000000e+00  3.58950575e-06]","[[-0.00015676  0.03498179]
 [-0.00061487 -0.00281191]]",[],0.0,0.0
1787153050.5890818,1.3983908707498038,0.823774809270922,1.9468478942267842,"[ 3.78595301e-05  2.92888254e-07  0.00000000e+00  0.00000000e+00
  0.00000000e+00 -2.99734408e-06  2.92888254e-07  2.48606364e-05
  0.00000000e+00  0.00000000e+00  0.00000000e+00 -6.88174630e-08
  0.00000000e+00  0.00000000e+00  0.00000000e+00  0.00000000e+00
  0.00000000e+00  0.00000000e+00  0.00000000e+00  0.00000000e+00
  0.00000000e+00  0.00000000e+00  0.00000000e+00  0.00000000e+00
  0.00000000e+00  0.00000000e+00  0.00000000e+00  0.00000000e+00
  0.00000000e+00  0.00000000e+00 -2.99734408e-06 -6.88174630e-08
  0.00000000e+00  0.00000000e+00  0.00000000e+00  3.58950575e-06]","[[-0.00015676  0.03498179]
 [-0.00061487 -0.00281191]]",[],0.0,0.0
1787153050.6400213,1.3983908707498038,0.823774809270922,1.9468478942267842,"[ 3.78595301e-05  2.92888254e-07  0.00000000e+00  0.00000000e+00
  0.00000000e+00 -2.99734408e-06  2.92888254e-07  2.48606364e-05
  0.00000000e+00  0.00000000e+00  0.00000000e+00 -6.88174630e-08
  0.00000000e+00  0.00000000e+00  0.00000000e+00  0.00000000e+00
  0.00000000e+00  0.00000000e+00  0.00000000e+00  0.00000000e+00
  0.00000000e+00  0.00000000e+00  0.00000000e+00  0.00000000e+00
  0.00000000e+00  0.00000000e+00  0.00000000e+00  0.00000000e+00
  0.00000000e+00  0.00000000e+00 -2.99734408e-06 -6.88174630e-08
  0.00000000e+00  0.00000000e+00  0.00000000e+00  3.58950575e-06]","[[-0.00015676  0.03498179]
 [-0.00061487 -0.00281191]]",[],0.0,0.0
1787153050.688776,1.3983908707498038,0.823774809270922,1.9468478942267842,"[ 3.78595301e-05  2.92888254e-07  0.00000000e+00  0.00000000e+00
  0.00000000e+00 -2.99734408e-06  2.92888254e-07  2.48606364e-05
  0.00000000e+00  0.00000000e+00  0.00000000e+00 -6.88174630e-08
  0.00000000e+00  0.00000000e+00  0.00000000e+00  0.00000000e+00
  0.00000000e+00  0.00000000e+00  0.00000000e+00  0.00000000e+00
  0.00000000e+00  0.00000000e+00  0.00000000e+00  0.00000000e+00
  0.00000000e+00  0.00000000e+00  0.00000000e+00  0.00000000e+00
  0.00000000e+00  0.00000000e+00 -2.99734408e-06 -6.88174630e-08
  0.00000000e+00  0.00000000e+00  0.00000000e+00  3.58950575e-06]","[[-0.00015676  0.03498179]
 [-0.00061487 -0.00281191]]",[],0.0,0.0
1787153050.7393336,1.3983908707498038,0.823774809270922,1.9468478942267842,"[ 3.78595301e-05  2.92888254e-07  0.00000000e+00  0.00000000e+00
  0.00000000e+00 -2.99734408e-06  2.92888254e-07  2.48606364e-05
  0.00000000e+00  0.00000000e+00  0.00000000e+00 -6.88174630e-08
  0.00000000e+00  0.00000000e+00  0.00000000e+00  0.00000000e+00
  0.00000000e+00  0.00000000e+00  0.00000000e+00  0.00000000e+00
  0.00000000e+00  0.00000000e+00  0.00000000e+00  0.00000000e+00
  0.00000000e+00  0.00000000e+00  0.00000000e+00  0.00000000e+00
  0.00000000e+00  0.00000000e+00 -2.99734408e-06 -6.88174630e-08
  0.00000000e+00  0.00000000e+00  0.00000000e+00  3.58950575e-06]","[[-0.00015676  0.03498179]
 [-0.00061487 -0.00281191]]",[],0.0,0.0
1787153050.7933638,1.3983908707498038,0.823774809270922,1.9468478942267842,"[ 3.78595301e-05  2.92888254e-07  0.00000000e+00  0.00000000e+00
  0.00000000e+00 -2.99734408e-06  2.92888254e-07  2.48606364e-05
  0.00000000e+00  0.00000000e+00  0.00000000e+00 -6.88174630e-08
  0.00000000e+00  0.00000000e+00  0.00000000e+00  0.00000000e+00
  0.00000000e+00  0.00000000e+00  0.00000000e+00  0.00000000e+00
  0.00000000e+00  0.00000000e+00  0.00000000e+00  0.00000000e+00
  0.00000000e+00  0.00000000e+00  0.00000000e+00  0.00000000e+00
  0.00000000e+00  0.00000000e+00 -2.99734408e-06 -6.88174630e-08
  0.00000000e+00  0.00000000e+00  0.00000000e+00  3.58950575e-06]","[[-0.00015676  0.03498179]
 [-0.00061487 -0.00281191]]",[],0.0,0.0
1787153050.842936,1.3983908707498038,0.823774809270922,1.9468478942267842,"[ 3.78595301e-05  2.92888254e-07  0.00000000e+00  0.00000000e+00
  0.00000000e+00 -2.99734408e-06  2.92888254e-07  2.48606364e-05
  0.00000000e+00  0.00000000e+00  0.00000000e+00 -6.88174630e-08
  0.00000000e+00  0.00000000e+00  0.00000000e+00  0.00000000e+00
  0.00000000e+00  0.00000000e+00  0.00000000e+00  0.00000000e+00
  0.00000000e+00  0.00000000e+00  0.00000000e+00  0.00000000e+00
  0.00000000e+00  0.00000000e+00  0.00000000e+00  0.00000000e+00
  0.00000000e+00  0.00000000e+00 -2.99734408e-06 -6.88174630e-08
  0.00000000e+00  0.00000000e+00  0.00000000e+00  3.58950575e-06]","[[-0.00015676  0.03498179]
 [-0.00061487 -0.00281191]]",[],0.0,0.0
1787153050.896938,1.3983908707498038,0.823774809270922,1.9468478942267842,"[ 3.78595301e-05  2.92888254e-07  0.00000000e+00  0.00000000e+00
  0.00000000e+00 -2.99734408e-06  2.92888254e-07  2.48606364e-05
  0.00000000e+00  0.00000000e+00  0.00000000e+00 -6.88174630e-08
  0.00000000e+00  0.00000000e+00  0.00000000e+00  0.00000000e+00
  0.00000000e+00  0.00000000e+00  0.00000000e+00  0.00000000e+00
  0.00000000e+00  0.00000000e+00  0.00000000e+00  0.00000000e+00
  0.00000000e+00  0.00000000e+00  0.00000000e+00  0.00000000e+00
  0.00000000e+00  0.00000000e+00 -2.99734408e-06 -6.88174630e-08
  0.00000000e+00  0.00000000e+00  0.00000000e+00  3.58950575e-06]","[[-0.00015676  0.03498179]
 [-0.00061487 -0.00281191]]",[],0.0,0.0
1787153050.9400449,1.3983908707498038,0.823774809270922,1.9468478942267842,"[ 3.78595301e-05  2.92888254e-07  0.00000000e+00  0.00000000e+00
  0.00000000e+00 -2.99734408e-06  2.92888254e-07  2.48606364e-05
  0.00000000e+00  0.00000000e+00  0.00000000e+00 -6.88174630e-08
  0.00000000e+00  0.00000000e+00  0.00000000e+00  0.00000000e+00
  0.00000000e+00  0.00000000e+00  0.00000000e+00  0.00000000e+00
  0.00000000e+00  0.00000000e+00  0.00000000e+00  0.00000000e+00
  0.00000000e+00  0.00000000e+00  0.00000000e+00  0.00000000e+00
  0.00000000e+00  0.00000000e+00 -2.99734408e-06 -6.88174630e-08
  0.00000000e+00  0.00000000e+00  0.00000000e+00  3.58950575e-06]","[[-0.00015676  0.03498179]
 [-0.00061487 -0.00281191]]",[],0.0,0.0
1787153050.989558,1.3983908707498038,0.823774809270922,1.9468478942267842,"[ 3.78595301e-05  2.92888254e-07  0.00000000e+00  0.00000000e+00
  0.00000000e+00 -2.99734408e-06  2.92888254e-07  2.48606364e-05
  0.00000000e+00  0.00000000e+00  0.00000000e+00 -6.88174630e-08
  0.00000000e+00  0.00000000e+00  0.00000000e+00  0.00000000e+00
  0.00000000e+00  0.00000000e+00  0.00000000e+00  0.00000000e+00
  0.00000000e+00  0.00000000e+00  0.00000000e+00  0.00000000e+00
  0.00000000e+00  0.00000000e+00  0.00000000e+00  0.00000000e+00
  0.00000000e+00  0.00000000e+00 -2.99734408e-06 -6.88174630e-08
  0.00000000e+00  0.00000000e+00  0.00000000e+00  3.58950575e-06]","[[-0.00015676  0.03498179]
 [-0.00061487 -0.00281191]]",[],0.0,0.0
1787153051.038424,1.3983908707498038,0.823774809270922,1.9468478942267842,"[ 3.78595301e-05  2.92888254e-07  0.00000000e+00  0.00000000e+00
  0.00000000e+00 -2.99734408e-06  2.92888254e-07  2.48606364e-05
  0.00000000e+00  0.00000000e+00  0.00000000e+00 -6.88174630e-08
  0.00000000e+00  0.00000000e+00  0.00000000e+00  0.00000000e+00
  0.00000000e+00  0.00000000e+00  0.00000000e+00  0.00000000e+00
  0.00000000e+00  0.00000000e+00  0.00000000e+00  0.00000000e+00
  0.00000000e+00  0.00000000e+00  0.00000000e+00  0.00000000e+00
  0.00000000e+00  0.00000000e+00 -2.99734408e-06 -6.88174630e-08
  0.00000000e+00  0.00000000e+00  0.00000000e+00  3.58950575e-06]","[[-0.00015676  0.03498179]
 [-0.00061487 -0.00281191]]",[],0.0,0.0
1787153051.0890017,1.3983908707498038,0.823774809270922,1.9468478942267842,"[ 3.78595301e-05  2.92888254e-07  0.00000000e+00  0.00000000e+00
  0.00000000e+00 -2.99734408e-06  2.92888254e-07  2.48606364e-05
  0.00000000e+00  0.00000000e+00  0.00000000e+00 -6.88174630e-08
  0.00000000e+00  0.00000000e+00  0.00000000e+00  0.00000000e+00
  0.00000000e+00  0.00000000e+00  0.00000000e+00  0.00000000e+00
  0.00000000e+00  0.00000000e+00  0.00000000e+00  0.00000000e+00
  0.00000000e+00  0.00000000e+00  0.00000000e+00  0.00000000e+00
  0.00000000e+00  0.00000000e+00 -2.99734408e-06 -6.88174630e-08
  0.00000000e+00  0.00000000e+00  0.00000000e+00  3.58950575e-06]","[[-0.00015676  0.03498179]
 [-0.00061487 -0.00281191]]",[],0.0,0.0
1787153051.1410766,1.3983908707498038,0.823774809270922,1.9468478942267842,"[ 3.78595301e-05  2.92888254e-07  0.00000000e+00  0.00000000e+00
  0.00000000e+00 -2.99734408e-06  2.92888254e-07  2.48606364e-05
  0.00000000e+00  0.00000000e+00  0.00000000e+00 -6.88174630e-08
  0.00000000e+00  0.00000000e+00  0.00000000e+00  0.00000000e+00
  0.00000000e+00  0.00000000e+00  0.00000000e+00  0.00000000e+00
  0.00000000e+00  0.00000000e+00  0.00000000e+00  0.00000000e+00
  0.00000000e+00  0.00000000e+00  0.00000000e+00  0.00000000e+00
  0.00000000e+00  0.00000000e+00 -2.99734408e-06 -6.88174630e-08
  0.00000000e+00  0.00000000e+00  0.00000000e+00  3.58950575e-06]","[[-0.00015676  0.03498179]
 [-0.00061487 -0.00281191]]",[],0.0,0.0
1787153051.19466,1.3983908707498038,0.823774809270922,1.9468478942267842,"[ 3.78595301e-05  2.92888254e-07  0.00000000e+00  0.00000000e+00
  0.00000000e+00 -2.99734408e-06  2.92888254e-07  2.48606364e-05
  0.00000000e+00  0.00000000e+00  0.00000000e+00 -6.88174630e-08
  0.00000000e+00  0.00000000e+00  0.00000000e+00  0.00000000e+00
  0.00000000e+00  0.00000000e+00  0.00000000e+00  0.00000000e+00
  0.00000000e+00  0.00000000e+00  0.00000000e+00  0.00000000e+00
  0.00000000e+00  0.00000000e+00  0.00000000e+00  0.00000000e+00
  0.00000000e+00  0.00000000e+00 -2.99734408e-06 -6.88174630e-08
  0.00000000e+00  0.00000000e+00  0.00000000e+00  3.58950575e-06]","[[-0.00015676  0.03498179]
 [-0.00061487 -0.00281191]]",[],0.0,0.0
1787153051.2387984,1.3983908707498038,0.823774809270922,1.9468478942267842,"[ 3.78595301e-05  2.92888254e-07  0.00000000e+00  0.00000000e+00
  0.00000000e+00 -2.99734408e-06  2.92888254e-07  2.48606364e-05
  0.00000000e+00  0.00000000e+00  0.00000000e+00 -6.88174630e-08
  0.00000000e+00  0.00000000e+00  0.00000000e+00  0.00000000e+00
  0.00000000e+00  0.00000000e+00  0.00000000e+00  0.00000000e+00
  0.00000000e+00  0.00000000e+00  0.00000000e+00  0.00000000e+00
  0.00000000e+00  0.00000000e+00  0.00000000e+00  0.00000000e+00
  0.00000000e+00  0.00000000e+00 -2.99734408e-06 -6.88174630e-08
  0.00000000e+00  0.00000000e+00  0.00000000e+00  3.58950575e-06]","[[-0.00015676  0.03498179]
 [-0.00061487 -0.00281191]]",[],0.0,0.0
1787153051.289252,1.3983908707498038,0.823774809270922,1.9468478942267842,"[ 3.78595301e-05  2.92888254e-07  0.00000000e+00  0.00000000e+00
  0.00000000e+00 -2.99734408e-06  2.92888254e-07  2.48606364e-05
  0.00000000e+00  0.00000000e+00  0.00000000e+00 -6.88174630e-08
  0.00000000e+00  0.00000000e+00  0.00000000e+00  0.00000000e+00
  0.00000000e+00  0.00000000e+00  0.00000000e+00  0.00000000e+00
  0.00000000e+00  0.00000000e+00  0.00000000e+00  0.00000000e+00
  0.00000000e+00  0.00000000e+00  0.00000000e+00  0.00000000e+00
  0.00000000e+00  0.00000000e+00 -2.99734408e-06 -6.88174630e-08
  0.00000000e+00  0.00000000e+00  0.00000000e+00  3.58950575e-06]","[[-0.00015676  0.03498179]
 [-0.00061487 -0.00281191]]",[],0.0,0.0
1787153051.33925,1.3982094355598806,0.8125865989276352,1.9887646169010331,"[ 2.39331323e-05 -1.38671752e-07  0.00000000e+00  0.00000000e+00
  0.00000000e+00 -1.64537936e-06 -1.38671752e-07  1.64500620e-05
  0.00000000e+00  0.00000000e+00  0.00000000e+00 -1.68856796e-07
  0.00000000e+00  0.00000000e+00  0.00000000e+00  0.00000000e+00
  0.00000000e+00  0.00000000e+00  0.00000000e+00  0.00000000e+00
  0.00000000e+00  0.00000000e+00  0.00000000e+00  0.00000000e+00
  0.00000000e+00  0.00000000e+00  0.00000000e+00  0.00000000e+00
  0.00000000e+00  0.00000000e+00 -1.64537936e-06 -1.68856796e-07
  0.00000000e+00  0.00000000e+00  0.00000000e+00  3.35528316e-06]","[[ 0.00019109  0.02077624]
 [-0.00039156  0.00428465]]",[],0.0,0.0
1787153051.392301,1.3982094355598806,0.8125865989276352,1.9887646169010331,"[ 2.39331323e-05 -1.38671752e-07  0.00000000e+00  0.00000000e+00
  0.00000000e+00 -1.64537936e-06 -1.38671752e-07  1.64500620e-05
  0.00000000e+00  0.00000000e+00  0.00000000e+00 -1.68856796e-07
  0.00000000e+00  0.00000000e+00  0.00000000e+00  0.00000000e+00
  0.00000000e+00  0.00000000e+00  0.00000000e+00  0.00000000e+00
  0.00000000e+00  0.00000000e+00  0.00000000e+00  0.00000000e+00
  0.00000000e+00  0.00000000e+00  0.00000000e+00  0.00000000e+00
  0.00000000e+00  0.00000000e+00 -1.64537936e-06 -1.68856796e-07
  0.00000000e+00  0.00000000e+00  0.00000000e+00  3.35528316e-06]","[[ 0.00019109  0.02077624]
 [-0.00039156  0.00428465]]",[],0.0,0.0
1787153051.442251,1.3982094355598806,0.8125865989276352,1.9887646169010331,"[ 2.39331323e-05 -1.38671752e-07  0.00000000e+00  0.00000000e+00
  0.00000000e+00 -1.64537936e-06 -1.38671752e-07  1.64500620e-05
  0.00000000e+00  0.00000000e+00  0.00000000e+00 -1.68856796e-07
  0.00000000e+00  0.00000000e+00  0.00000000e+00  0.00000000e+00
  0.00000000e+00  0.00000000e+00  0.00000000e+00  0.00000000e+00
  0.00000000e+00  0.00000000e+00  0.00000000e+00  0.00000000e+00
  0.00000000e+00  0.00000000e+00  0.00000000e+00  0.00000000e+00
  0.00000000e+00  0.00000000e+00 -1.64537936e-06 -1.68856796e-07
  0.00000000e+00  0.00000000e+00  0.00000000e+00  3.35528316e-06]","[[ 0.00019109  0.02077624]
 [-0.00039156  0.00428465]]",[],0.0,0.0
1787153051.4888017,1.3982094355598806,0.8125865989276352,1.9887646169010331,"[ 2.39331323e-05 -1.38671752e-07  0.00000000e+00  0.00000000e+00
  0.00000000e+00 -1.64537936e-06 -1.38671752e-07  1.64500620e-05
  0.00000000e+00  0.00000000e+00  0.00000000e+00 -1.68856796e-07
  0.00000000e+00  0.00000000e+00  0.00000000e+00  0.00000000e+00
  0.00000000e+00  0.00000000e+00  0.00000000e+00  0.00000000e+00
  0.00000000e+00  0.00000000e+00  0.00000000e+00  0.00000000e+00
  0.00000000e+00  0.00000000e+00  0.00000000e+00  0.00000000e+00
  0.00000000e+00  0.00000000e+00 -1.64537936e-06 -1.68856796e-07
  0.00000000e+00  0.00000000e+00  0.00000000e+00  3.35528316e-06]","[[ 0.00019109  0.02077624]
 [-0.00039156  0.00428465]]",[],0.0,0.0
1787153051.5391846,1.3982094355598806,0.8125865989276352,1.9887646169010331,"[ 2.39331323e-05 -1.38671752e-07  0.00000000e+00  0.00000000e+00
  0.00000000e+00 -1.64537936e-06 -1.38671752e-07  1.64500620e-05
  0.00000000e+00  0.00000000e+00  0.00000000e+00 -1.68856796e-07
  0.00000000e+00  0.00000000e+00  0.00000000e+00  0.00000000e+00
  0.00000000e+00  0.00000000e+00  0.00000000e+00  0.00000000e+00
  0.00000000e+00  0.00000000e+00  0.00000000e+00  0.00000000e+00
  0.00000000e+00  0.00000000e+00  0.00000000e+00  0.00000000e+00
  0.00000000e+00  0.00000000e+00 -1.64537936e-06 -1.68856796e-07
  0.00000000e+00  0.00000000e+00  0.00000000e+00  3.35528316e-06]","[[ 0.00019109  0.02077624]
 [-0.00039156  0.00428465]]",[],0.0,0.0
1787153051.588359,1.3982094355598806,0.8125865989276352,1.9887646169010331,"[ 2.39331323e-05 -1.38671752e-07  0.00000000e+00  0.00000000e+00
  0.00000000e+00 -1.64537936e-06 -1.38671752e-07  1.64500620e-05
  0.00000000e+00  0.00000000e+00  0.00000000e+00 -1.68856796e-07
  0.00000000e+00  0.00000000e+00  0.00000000e+00  0.00000000e+00
  0.00000000e+00  0.00000000e+00  0.00000000e+00  0.00000000e+00
  0.00000000e+00  0.00000000e+00  0.00000000e+00  0.00000000e+00
  0.00000000e+00  0.00000000e+00  0.00000000e+00  0.00000000e+00
  0.00000000e+00  0.00000000e+00 -1.64537936e-06 -1.68856796e-07
  0.00000000e+00  0.00000000e+00  0.00000000e+00  3.35528316e-06]","[[ 0.00019109  0.02077624]
 [-0.00039156  0.00428465]]",[],0.0,0.0
1787153051.6399107,1.3982094355598806,0.8125865989276352,1.9887646169010331,"[ 2.39331323e-05 -1.38671752e-07  0.00000000e+00  0.00000000e+00
  0.00000000e+00 -1.64537936e-06 -1.38671752e-07  1.64500620e-05
  0.00000000e+00  0.00000000e+00  0.00000000e+00 -1.68856796e-07
  0.00000000e+00  0.00000000e+00  0.00000000e+00  0.00000000e+00
  0.00000000e+00  0.00000000e+00  0.00000000e+00  0.00000000e+00
  0.00000000e+00  0.00000000e+00  0.00000000e+00  0.00000000e+00
  0.00000000e+00  0.00000000e+00  0.00000000e+00  0.00000000e+00
  0.00000000e+00  0.00000000e+00 -1.64537936e-06 -1.68856796e-07
  0.00000000e+00  0.00000000e+00  0.00000000e+00  3.35528316e-06]","[[ 0.00019109  0.02077624]
 [-0.00039156  0.00428465]]",[],0.0,0.0
1787153051.6901658,1.3982094355598806,0.8125865989276352,1.9887646169010331,"[ 2.39331323e-05 -1.38671752e-07  0.00000000e+00  0.00000000e+00
  0.00000000e+00 -1.64537936e-06 -1.38671752e-07  1.64500620e-05
  0.00000000e+00  0.00000000e+00  0.00000000e+00 -1.68856796e-07
  0.00000000e+00  0.00000000e+00  0.00000000e+00  0.00000000e+00
  0.00000000e+00  0.00000000e+00  0.00000000e+00  0.00000000e+00
  0.00000000e+00  0.00000000e+00  0.00000000e+00  0.00000000e+00
  0.00000000e+00  0.00000000e+00  0.00000000e+00  0.00000000e+00
  0.00000000e+00  0.00000000e+00 -1.64537936e-06 -1.68856796e-07
  0.00000000e+00  0.00000000e+00  0.00000000e+00  3.35528316e-06]","[[ 0.00019109  0.02077624]
 [-0.00039156  0.00428465]]",[],0.0,0.0
1787153051.7421901,1.3982094355598806,0.8125865989276352,1.9887646169010331,"[ 2.39331323e-05 -1.38671752e-07  0.00000000e+00  0.00000000e+00
  0.00000000e+00 -1.64537936e-06 -1.38671752e-07  1.64500620e-05
  0.00000000e+00  0.00000000e+00  0.00000000e+00 -1.68856796e-07
  0.00000000e+00  0.00000000e+00  0.00000000e+00  0.00000000e+00
  0.00000000e+00  0.00000000e+00  0.00000000e+00  0.00000000e+00
  0.00000000e+00  0.00000000e+00  0.00000000e+00  0.00000000e+00
  0.00000000e+00  0.00000000e+00  0.00000000e+00  0.00000000e+00
  0.00000000e+00  0.00000000e+00 -1.64537936e-06 -1.68856796e-07
  0.00000000e+00  0.00000000e+00  0.00000000e+00  3.35528316e-06]","[[ 0.00019109  0.02077624]
 [-0.00039156  0.00428465]]",[],0.0,0.0
1787153051.7895288,1.3982094355598806,0.8125865989276352,1.9887646169010331,"[ 2.39331323e-05 -1.38671752e-07  0.00000000e+00  0.00000000e+00
  0.00000000e+00 -1.64537936e-06 -1.38671752e-07  1.64500620e-05
  0.00000000e+00  0.00000000e+00  0.00000000e+00 -1.68856796e-07
  0.00000000e+00  0.00000000e+00  0.00000000e+00  0.00000000e+00
  0.00000000e+00  0.00000000e+00  0.00000000e+00  0.00000000e+00
  0.00000000e+00  0.00000000e+00  0.00000000e+00  0.00000000e+00
  0.00000000e+00  0.00000000e+00  0.00000000e+00  0.00000000e+00
  0.00000000e+00  0.00000000e+00 -1.64537936e-06 -1.68856796e-07
  0.00000000e+00  0.00000000e+00  0.00000000e+00  3.35528316e-06]","[[ 0.00019109  0.02077624]
 [-0.00039156  0.00428465]]",[],0.0,0.0
1787153051.8385715,1.3982094355598806,0.8125865989276352,1.9887646169010331,"[ 2.39331323e-05 -1.38671752e-07  0.00000000e+00  0.00000000e+00
  0.00000000e+00 -1.64537936e-06 -1.38671752e-07  1.64500620e-05
  0.00000000e+00  0.00000000e+00  0.00000000e+00 -1.68856796e-07
  0.00000000e+00  0.00000000e+00  0.00000000e+00  0.00000000e+00
  0.00000000e+00  0.00000000e+00  0.00000000e+00  0.00000000e+00
  0.00000000e+00  0.00000000e+00  0.00000000e+00  0.00000000e+00
  0.00000000e+00  0.00000000e+00  0.00000000e+00  0.00000000e+00
  0.00000000e+00  0.00000000e+00 -1.64537936e-06 -1.68856796e-07
  0.00000000e+00  0.00000000e+00  0.00000000e+00  3.35528316e-06]","[[ 0.00019109  0.02077624]
 [-0.00039156  0.00428465]]",[],0.0,0.0
1787153051.8885899,1.3982094355598806,0.8125865989276352,1.9887646169010331,"[ 2.39331323e-05 -1.38671752e-07  0.00000000e+00  0.00000000e+00
  0.00000000e+00 -1.64537936e-06 -1.38671752e-07  1.64500620e-05
  0.00000000e+00  0.00000000e+00  0.00000000e+00 -1.68856796e-07
  0.00000000e+00  0.00000000e+00  0.00000000e+00  0.00000000e+00
  0.00000000e+00  0.00000000e+00  0.00000000e+00  0.00000000e+00
  0.00000000e+00  0.00000000e+00  0.00000000e+00  0.00000000e+00
  0.00000000e+00  0.00000000e+00  0.00000000e+00  0.00000000e+00
  0.00000000e+00  0.00000000e+00 -1.64537936e-06 -1.68856796e-07
  0.00000000e+00  0.00000000e+00  0.00000000e+00  3.35528316e-06]","[[ 0.00019109  0.02077624]
 [-0.00039156  0.00428465]]",[],0.0,0.0
1787153051.939962,1.3982094355598806,0.8125865989276352,1.9887646169010331,"[ 2.39331323e-05 -1.38671752e-07  0.00000000e+00  0.00000000e+00
  0.00000000e+00 -1.64537936e-06 -1.38671752e-07  1.64500620e-05
  0.00000000e+00  0.00000000e+00  0.00000000e+00 -1.68856796e-07
  0.00000000e+00  0.00000000e+00  0.00000000e+00  0.00000000e+00
  0.00000000e+00  0.00000000e+00  0.00000000e+00  0.00000000e+00
  0.00000000e+00  0.00000000e+00  0.00000000e+00  0.00000000e+00
  0.00000000e+00  0.00000000e+00  0.00000000e+00  0.00000000e+00
  0.00000000e+00  0.00000000e+00 -1.64537936e-06 -1.68856796e-07
  0.00000000e+00  0.00000000e+00  0.00000000e+00  3.35528316e-06]","[[ 0.00019109  0.02077624]
 [-0.00039156  0.00428465]]",[],0.0,0.0
1787153051.9943192,1.3982094355598806,0.8125865989276352,1.9887646169010331,"[ 2.39331323e-05 -1.38671752e-07  0.00000000e+00  0.00000000e+00
  0.00000000e+00 -1.64537936e-06 -1.38671752e-07  1.64500620e-05
  0.00000000e+00  0.00000000e+00  0.00000000e+00 -1.68856796e-07
  0.00000000e+00  0.00000000e+00  0.00000000e+00  0.00000000e+00
  0.00000000e+00  0.00000000e+00  0.00000000e+00  0.00000000e+00
  0.00000000e+00  0.00000000e+00  0.00000000e+00  0.00000000e+00
  0.00000000e+00  0.00000000e+00  0.00000000e+00  0.00000000e+00
  0.00000000e+00  0.00000000e+00 -1.64537936e-06 -1.68856796e-07
  0.00000000e+00  0.00000000e+00  0.00000000e+00  3.35528316e-06]","[[ 0.00019109  0.02077624]
 [-0.00039156  0.00428465]]",[],0.0,0.0
1787153052.0426517,1.3982094355598806,0.8125865989276352,1.9887646169010331,"[ 2.39331323e-05 -1.38671752e-07  0.00000000e+00  0.00000000e+00
  0.00000000e+00 -1.64537936e-06 -1.38671752e-07  1.64500620e-05
  0.00000000e+00  0.00000000e+00  0.00000000e+00 -1.68856796e-07
  0.00000000e+00  0.00000000e+00  0.00000000e+00  0.00000000e+00
  0.00000000e+00  0.00000000e+00  0.00000000e+00  0.00000000e+00
  0.00000000e+00  0.00000000e+00  0.00000000e+00  0.00000000e+00
  0.00000000e+00  0.00000000e+00  0.00000000e+00  0.00000000e+00
  0.00000000e+00  0.00000000e+00 -1.64537936e-06 -1.68856796e-07
  0.00000000e+00  0.00000000e+00  0.00000000e+00  3.35528316e-06]","[[ 0.00019109  0.02077624]
 [-0.00039156  0.00428465]]",[],0.0,0.0
1787153052.0894563,1.3982094355598806,0.8125865989276352,1.9887646169010331,"[ 2.39331323e-05 -1.38671752e-07  0.00000000e+00  0.00000000e+00
  0.00000000e+00 -1.64537936e-06 -1.38671752e-07  1.64500620e-05
  0.00000000e+00  0.00000000e+00  0.00000000e+00 -1.68856796e-07
  0.00000000e+00  0.00000000e+00  0.00000000e+00  0.00000000e+00
  0.00000000e+00  0.00000000e+00  0.00000000e+00  0.00000000e+00
  0.00000000e+00  0.00000000e+00  0.00000000e+00  0.00000000e+00
  0.00000000e+00  0.00000000e+00  0.00000000e+00  0.00000000e+00
  0.00000000e+00  0.00000000e+00 -1.64537936e-06 -1.68856796e-07
  0.00000000e+00  0.00000000e+00  0.00000000e+00  3.35528316e-06]","[[ 0.00019109  0.02077624]
 [-0.00039156  0.00428465]]",[],0.0,0.0
1787153052.1449077,1.3982094355598806,0.8125865989276352,1.9887646169010331,"[ 2.39331323e-05 -1.38671752e-07  0.00000000e+00  0.00000000e+00
  0.00000000e+00 -1.64537936e-06 -1.38671752e-07  1.64500620e-05
  0.00000000e+00  0.00000000e+00  0.00000000e+00 -1.68856796e-07
  0.00000000e+00  0.00000000e+00  0.00000000e+00  0.00000000e+00
  0.00000000e+00  0.00000000e+00  0.00000000e+00  0.00000000e+00
  0.00000000e+00  0.00000000e+00  0.00000000e+00  0.00000000e+00
  0.00000000e+00  0.00000000e+00  0.00000000e+00  0.00000000e+00
  0.00000000e+00  0.00000000e+00 -1.64537936e-06 -1.68856796e-07
  0.00000000e+00  0.00000000e+00  0.00000000e+00  3.35528316e-06]","[[ 0.00019109  0.02077624]
 [-0.00039156  0.00428465]]",[],0.0,0.0
1787153052.1889453,1.3982094355598806,0.8125865989276352,1.9887646169010331,"[ 2.39331323e-05 -1.38671752e-07  0.00000000e+00  0.00000000e+00
  0.00000000e+00 -1.64537936e-06 -1.38671752e-07  1.64500620e-05
  0.00000000e+00  0.00000000e+00  0.00000000e+00 -1.68856796e-07
  0.00000000e+00  0.00000000e+00  0.00000000e+00  0.00000000e+00
  0.00000000e+00  0.00000000e+00  0.00000000e+00  0.00000000e+00
  0.00000000e+00  0.00000000e+00  0.00000000e+00  0.00000000e+00
  0.00000000e+00  0.00000000e+00  0.00000000e+00  0.00000000e+00
  0.00000000e+00  0.00000000e+00 -1.64537936e-06 -1.68856796e-07
  0.00000000e+00  0.00000000e+00  0.00000000e+00  3.35528316e-06]","[[ 0.00019109  0.02077624]
 [-0.00039156  0.00428465]]",[],0.0,0.0
1787153052.2404163,1.3904246299414744,0.8008284245407976,2.048699038591119,"[ 1.74165229e-05 -4.71339416e-08  0.00000000e+00  0.00000000e+00
  0.00000000e+00 -1.25143832e-06 -4.71339416e-08  1.25642748e-05
  0.00000000e+00  0.00000000e+00  0.00000000e+00 -5.19232328e-08
  0.00000000e+00  0.00000000e+00  0.00000000e+00  0.00000000e+00
  0.00000000e+00  0.00000000e+00  0.00000000e+00  0.00000000e+00
  0.00000000e+00  0.00000000e+00  0.00000000e+00  0.00000000e+00
  0.00000000e+00  0.00000000e+00  0.00000000e+00  0.00000000e+00
  0.00000000e+00  0.00000000e+00 -1.25143832e-06 -5.19232328e-08
  0.00000000e+00  0.00000000e+00  0.00000000e+00  3.46020732e-06]","[[ 0.00013705  0.01516318]
 [-0.00029878  0.00315713]]",[],0.0,0.0
1787153052.2886498,1.3904246299414744,0.8008284245407976,2.048699038591119,"[ 1.74165229e-05 -4.71339416e-08  0.00000000e+00  0.00000000e+00
  0.00000000e+00 -1.25143832e-06 -4.71339416e-08  1.25642748e-05
  0.00000000e+00  0.00000000e+00  0.00000000e+00 -5.19232328e-08
  0.00000000e+00  0.00000000e+00  0.00000000e+00  0.00000000e+00
  0.00000000e+00  0.00000000e+00  0.00000000e+00  0.00000000e+00
  0.00000000e+00  0.00000000e+00  0.00000000e+00  0.00000000e+00
  0.00000000e+00  0.00000000e+00  0.00000000e+00  0.00000000e+00
  0.00000000e+00  0.00000000e+00 -1.25143832e-06 -5.19232328e-08
  0.00000000e+00  0.00000000e+00  0.00000000e+00  3.46020732e-06]","[[ 0.00013705  0.01516318]
 [-0.00029878  0.00315713]]",[],0.0,0.0
1787153052.3402255,1.3904246299414744,0.8008284245407976,2.048699038591119,"[ 1.74165229e-05 -4.71339416e-08  0.00000000e+00  0.00000000e+00
  0.00000000e+00 -1.25143832e-06 -4.71339416e-08  1.25642748e-05
  0.00000000e+00  0.00000000e+00  0.00000000e+00 -5.19232328e-08
  0.00000000e+00  0.00000000e+00  0.00000000e+00  0.00000000e+00
  0.00000000e+00  0.00000000e+00  0.00000000e+00  0.00000000e+00
  0.00000000e+00  0.00000000e+00  0.00000000e+00  0.00000000e+00
  0.00000000e+00  0.00000000e+00  0.00000000e+00  0.00000000e+00
  0.00000000e+00  0.00000000e+00 -1.25143832e-06 -5.19232328e-08
  0.00000000e+00  0.00000000e+00  0.00000000e+00  3.46020732e-06]","[[ 0.00013705  0.01516318]
 [-0.00029878  0.00315713]]",[],0.0,0.0
1787153052.3899972,1.3904246299414744,0.8008284245407976,2.048699038591119,"[ 1.74165229e-05 -4.71339416e-08  0.00000000e+00  0.00000000e+00
  0.00000000e+00 -1.25143832e-06 -4.71339416e-08  1.25642748e-05
  0.00000000e+00  0.00000000e+00  0.00000000e+00 -5.19232328e-08
  0.00000000e+00  0.00000000e+00  0.00000000e+00  0.00000000e+00
  0.00000000e+00  0.00000000e+00  0.00000000e+00  0.00000000e+00
  0.00000000e+00  0.00000000e+00  0.00000000e+00  0.00000000e+00
  0.00000000e+00  0.00000000e+00  0.00000000e+00  0.00000000e+00
  0.00000000e+00  0.00000000e+00 -1.25143832e-06 -5.19232328e-08
  0.00000000e+00  0.00000000e+00  0.00000000e+00  3.46020732e-06]","[[ 0.00013705  0.01516318]
 [-0.00029878  0.00315713]]",[],0.0,0.0
1787153052.4416282,1.3904246299414744,0.8008284245407976,2.048699038591119,"[ 1.74165229e-05 -4.71339416e-08  0.00000000e+00  0.00000000e+00
  0.00000000e+00 -1.25143832e-06 -4.71339416e-08  1.25642748e-05
  0.00000000e+00  0.00000000e+00  0.00000000e+00 -5.19232328e-08
  0.00000000e+00  0.00000000e+00  0.00000000e+00  0.00000000e+00
  0.00000000e+00  0.00000000e+00  0.00000000e+00  0.00000000e+00
  0.00000000e+00  0.00000000e+00  0.00000000e+00  0.00000000e+00
  0.00000000e+00  0.00000000e+00  0.00000000e+00  0.00000000e+00
  0.00000000e+00  0.00000000e+00 -1.25143832e-06 -5.19232328e-08
  0.00000000e+00  0.00000000e+00  0.00000000e+00  3.46020732e-06]","[[ 0.00013705  0.01516318]
 [-0.00029878  0.00315713]]",[],0.0,0.0
1787153052.4889214,1.3904246299414744,0.8008284245407976,2.048699038591119,"[ 1.74165229e-05 -4.71339416e-08  0.00000000e+00  0.00000000e+00
  0.00000000e+00 -1.25143832e-06 -4.71339416e-08  1.25642748e-05
  0.00000000e+00  0.00000000e+00  0.00000000e+00 -5.19232328e-08
  0.00000000e+00  0.00000000e+00  0.00000000e+00  0.00000000e+00
  0.00000000e+00  0.00000000e+00  0.00000000e+00  0.00000000e+00
  0.00000000e+00  0.00000000e+00  0.00000000e+00  0.00000000e+00
  0.00000000e+00  0.00000000e+00  0.00000000e+00  0.00000000e+00
  0.00000000e+00  0.00000000e+00 -1.25143832e-06 -5.19232328e-08
  0.00000000e+00  0.00000000e+00  0.00000000e+00  3.46020732e-06]","[[ 0.00013705  0.01516318]
 [-0.00029878  0.00315713]]",[],0.0,0.0
1787153052.5391078,1.3904246299414744,0.8008284245407976,2.048699038591119,"[ 1.74165229e-05 -4.71339416e-08  0.00000000e+00  0.00000000e+00
  0.00000000e+00 -1.25143832e-06 -4.71339416e-08  1.25642748e-05
  0.00000000e+00  0.00000000e+00  0.00000000e+00 -5.19232328e-08
  0.00000000e+00  0.00000000e+00  0.00000000e+00  0.00000000e+00
  0.00000000e+00  0.00000000e+00  0.00000000e+00  0.00000000e+00
  0.00000000e+00  0.00000000e+00  0.00000000e+00  0.00000000e+00
  0.00000000e+00  0.00000000e+00  0.00000000e+00  0.00000000e+00
  0.00000000e+00  0.00000000e+00 -1.25143832e-06 -5.19232328e-08
  0.00000000e+00  0.00000000e+00  0.00000000e+00  3.46020732e-06]","[[ 0.00013705  0.01516318]
 [-0.00029878  0.00315713]]",[],0.0,0.0
1787153052.5890331,1.3904246299414744,0.8008284245407976,2.048699038591119,"[ 1.74165229e-05 -4.71339416e-08  0.00000000e+00  0.00000000e+00
  0.00000000e+00 -1.25143832e-06 -4.71339416e-08  1.25642748e-05
  0.00000000e+00  0.00000000e+00  0.00000000e+00 -5.19232328e-08
  0.00000000e+00  0.00000000e+00  0.00000000e+00  0.00000000e+00
  0.00000000e+00  0.00000000e+00  0.00000000e+00  0.00000000e+00
  0.00000000e+00  0.00000000e+00  0.00000000e+00  0.00000000e+00
  0.00000000e+00  0.00000000e+00  0.00000000e+00  0.00000000e+00
  0.00000000e+00  0.00000000e+00 -1.25143832e-06 -5.19232328e-08
  0.00000000e+00  0.00000000e+00  0.00000000e+00  3.46020732e-06]","[[ 0.00013705  0.01516318]
 [-0.00029878  0.00315713]]",[],0.0,0.0
1787153052.6435752,1.3904246299414744,0.8008284245407976,2.048699038591119,"[ 1.74165229e-05 -4.71339416e-08  0.00000000e+00  0.00000000e+00
  0.00000000e+00 -1.25143832e-06 -4.71339416e-08  1.25642748e-05
  0.00000000e+00  0.00000000e+00  0.00000000e+00 -5.19232328e-08
  0.00000000e+00  0.00000000e+00  0.00000000e+00  0.00000000e+00
  0.00000000e+00  0.00000000e+00  0.00000000e+00  0.00000000e+00
  0.00000000e+00  0.00000000e+00  0.00000000e+00  0.00000000e+00
  0.00000000e+00  0.00000000e+00  0.00000000e+00  0.00000000e+00
  0.00000000e+00  0.00000000e+00 -1.25143832e-06 -5.19232328e-08
  0.00000000e+00  0.00000000e+00  0.00000000e+00  3.46020732e-06]","[[ 0.00013705  0.01516318]
 [-0.00029878  0.00315713]]",[],0.0,0.0
1787153052.6895733,1.3904246299414744,0.8008284245407976,2.048699038591119,"[ 1.74165229e-05 -4.71339416e-08  0.00000000e+00  0.00000000e+00
  0.00000000e+00 -1.25143832e-06 -4.71339416e-08  1.25642748e-05
  0.00000000e+00  0.00000000e+00  0.00000000e+00 -5.19232328e-08
  0.00000000e+00  0.00000000e+00  0.00000000e+00  0.00000000e+00
  0.00000000e+00  0.00000000e+00  0.00000000e+00  0.00000000e+00
  0.00000000e+00  0.00000000e+00  0.00000000e+00  0.00000000e+00
  0.00000000e+00  0.00000000e+00  0.00000000e+00  0.00000000e+00
  0.00000000e+00  0.00000000e+00 -1.25143832e-06 -5.19232328e-08
  0.00000000e+00  0.00000000e+00  0.00000000e+00  3.46020732e-06]","[[ 0.00013705  0.01516318]
 [-0.00029878  0.00315713]]",[],0.0,0.0
1787153052.7494488,1.3904246299414744,0.8008284245407976,2.048699038591119,"[ 1.74165229e-05 -4.71339416e-08  0.00000000e+00  0.00000000e+00
  0.00000000e+00 -1.25143832e-06 -4.71339416e-08  1.25642748e-05
  0.00000000e+00  0.00000000e+00  0.00000000e+00 -5.19232328e-08
  0.00000000e+00  0.00000000e+00  0.00000000e+00  0.00000000e+00
  0.00000000e+00  0.00000000e+00  0.00000000e+00  0.00000000e+00
  0.00000000e+00  0.00000000e+00  0.00000000e+00  0.00000000e+00
  0.00000000e+00  0.00000000e+00  0.00000000e+00  0.00000000e+00
  0.00000000e+00  0.00000000e+00 -1.25143832e-06 -5.19232328e-08
  0.00000000e+00  0.00000000e+00  0.00000000e+00  3.46020732e-06]","[[ 0.00013705  0.01516318]
 [-0.00029878  0.00315713]]",[],0.0,0.0
1787153052.7993386,1.3904246299414744,0.8008284245407976,2.048699038591119,"[ 1.74165229e-05 -4.71339416e-08  0.00000000e+00  0.00000000e+00
  0.00000000e+00 -1.25143832e-06 -4.71339416e-08  1.25642748e-05
  0.00000000e+00  0.00000000e+00  0.00000000e+00 -5.19232328e-08
  0.00000000e+00  0.00000000e+00  0.00000000e+00  0.00000000e+00
  0.00000000e+00  0.00000000e+00  0.00000000e+00  0.00000000e+00
  0.00000000e+00  0.00000000e+00  0.00000000e+00  0.00000000e+00
  0.00000000e+00  0.00000000e+00  0.00000000e+00  0.00000000e+00
  0.00000000e+00  0.00000000e+00 -1.25143832e-06 -5.19232328e-08
  0.00000000e+00  0.00000000e+00  0.00000000e+00  3.46020732e-06]","[[ 0.00013705  0.01516318]
 [-0.00029878  0.00315713]]",[],0.0,0.0
1787153052.8387496,1.3904246299414744,0.8008284245407976,2.048699038591119,"[ 1.74165229e-05 -4.71339416e-08  0.00000000e+00  0.00000000e+00
  0.00000000e+00 -1.25143832e-06 -4.71339416e-08  1.25642748e-05
  0.00000000e+00  0.00000000e+00  0.00000000e+00 -5.19232328e-08
  0.00000000e+00  0.00000000e+00  0.00000000e+00  0.00000000e+00
  0.00000000e+00  0.00000000e+00  0.00000000e+00  0.00000000e+00
  0.00000000e+00  0.00000000e+00  0.00000000e+00  0.00000000e+00
  0.00000000e+00  0.00000000e+00  0.00000000e+00  0.00000000e+00
  0.00000000e+00  0.00000000e+00 -1.25143832e-06 -5.19232328e-08
  0.00000000e+00  0.00000000e+00  0.00000000e+00  3.46020732e-06]","[[ 0.00013705  0.01516318]
 [-0.00029878  0.00315713]]",[],0.0,0.0
1787153052.8920367,1.3904246299414744,0.8008284245407976,2.048699038591119,"[ 1.74165229e-05 -4.71339416e-08  0.00000000e+00  0.00000000e+00
  0.00000000e+00 -1.25143832e-06 -4.71339416e-08  1.25642748e-05
  0.00000000e+00  0.00000000e+00  0.00000000e+00 -5.19232328e-08
  0.00000000e+00  0.00000000e+00  0.00000000e+00  0.00000000e+00
  0.00000000e+00  0.00000000e+00  0.00000000e+00  0.00000000e+00
  0.00000000e+00  0.00000000e+00  0.00000000e+00  0.00000000e+00
  0.00000000e+00  0.00000000e+00  0.00000000e+00  0.00000000e+00
  0.00000000e+00  0.00000000e+00 -1.25143832e-06 -5.19232328e-08
  0.00000000e+00  0.00000000e+00  0.00000000e+00  3.46020732e-06]","[[ 0.00013705  0.01516318]
 [-0.00029878  0.00315713]]",[],0.0,0.0
1787153052.9389498,1.3904246299414744,0.8008284245407976,2.048699038591119,"[ 1.74165229e-05 -4.71339416e-08  0.00000000e+00  0.00000000e+00
  0.00000000e+00 -1.25143832e-06 -4.71339416e-08  1.25642748e-05
  0.00000000e+00  0.00000000e+00  0.00000000e+00 -5.19232328e-08
  0.00000000e+00  0.00000000e+00  0.00000000e+00  0.00000000e+00
  0.00000000e+00  0.00000000e+00  0.00000000e+00  0.00000000e+00
  0.00000000e+00  0.00000000e+00  0.00000000e+00  0.00000000e+00
  0.00000000e+00  0.00000000e+00  0.00000000e+00  0.00000000e+00
  0.00000000e+00  0.00000000e+00 -1.25143832e-06 -5.19232328e-08
  0.00000000e+00  0.00000000e+00  0.00000000e+00  3.46020732e-06]","[[ 0.00013705  0.01516318]
 [-0.00029878  0.00315713]]",[],0.0,0.0
1787153052.9904408,1.3904246299414744,0.8008284245407976,2.048699038591119,"[ 1.74165229e-05 -4.71339416e-08  0.00000000e+00  0.00000000e+00
  0.00000000e+00 -1.25143832e-06 -4.71339416e-08  1.25642748e-05
  0.00000000e+00  0.00000000e+00  0.00000000e+00 -5.19232328e-08
  0.00000000e+00  0.00000000e+00  0.00000000e+00  0.00000000e+00
  0.00000000e+00  0.00000000e+00  0.00000000e+00  0.00000000e+00
  0.00000000e+00  0.00000000e+00  0.00000000e+00  0.00000000e+00
  0.00000000e+00  0.00000000e+00  0.00000000e+00  0.00000000e+00
  0.00000000e+00  0.00000000e+00 -1.25143832e-06 -5.19232328e-08
  0.00000000e+00  0.00000000e+00  0.00000000e+00  3.46020732e-06]","[[ 0.00013705  0.01516318]
 [-0.00029878  0.00315713]]",[],0.0,0.0
1787153053.0420651,1.3904246299414744,0.8008284245407976,2.048699038591119,"[ 1.74165229e-05 -4.71339416e-08  0.00000000e+00  0.00000000e+00
  0.00000000e+00 -1.25143832e-06 -4.71339416e-08  1.25642748e-05
  0.00000000e+00  0.00000000e+00  0.00000000e+00 -5.19232328e-08
  0.00000000e+00  0.00000000e+00  0.00000000e+00  0.00000000e+00
  0.00000000e+00  0.00000000e+00  0.00000000e+00  0.00000000e+00
  0.00000000e+00  0.00000000e+00  0.00000000e+00  0.00000000e+00
  0.00000000e+00  0.00000000e+00  0.00000000e+00  0.00000000e+00
  0.00000000e+00  0.00000000e+00 -1.25143832e-06 -5.19232328e-08
  0.00000000e+00  0.00000000e+00  0.00000000e+00  3.46020732e-06]","[[ 0.00013705  0.01516318]
 [-0.00029878  0.00315713]]",[],0.0,0.0
1787153053.0890133,1.3904246299414744,0.8008284245407976,2.048699038591119,"[ 1.74165229e-05 -4.71339416e-08  0.00000000e+00  0.00000000e+00
  0.00000000e+00 -1.25143832e-06 -4.71339416e-08  1.25642748e-05
  0.00000000e+00  0.00000000e+00  0.00000000e+00 -5.19232328e-08
  0.00000000e+00  0.00000000e+00  0.00000000e+00  0.00000000e+00
  0.00000000e+00  0.00000000e+00  0.00000000e+00  0.00000000e+00
  0.00000000e+00  0.00000000e+00  0.00000000e+00  0.00000000e+00
  0.00000000e+00  0.00000000e+00  0.00000000e+00  0.00000000e+00
  0.00000000e+00  0.00000000e+00 -1.25143832e-06 -5.19232328e-08
  0.00000000e+00  0.00000000e+00  0.00000000e+00  3.46020732e-06]","[[ 0.00013705  0.01516318]
 [-0.00029878  0.00315713]]",[],0.0,0.0
1787153053.1417482,1.3904246299414744,0.8008284245407976,2.048699038591119,"[ 1.74165229e-05 -4.71339416e-08  0.00000000e+00  0.00000000e+00
  0.00000000e+00 -1.25143832e-06 -4.71339416e-08  1.25642748e-05
  0.00000000e+00  0.00000000e+00  0.00000000e+00 -5.19232328e-08
  0.00000000e+00  0.00000000e+00  0.00000000e+00  0.00000000e+00
  0.00000000e+00  0.00000000e+00  0.00000000e+00  0.00000000e+00
  0.00000000e+00  0.00000000e+00  0.00000000e+00  0.00000000e+00
  0.00000000e+00  0.00000000e+00  0.00000000e+00  0.00000000e+00
  0.00000000e+00  0.00000000e+00 -1.25143832e-06 -5.19232328e-08
  0.00000000e+00  0.00000000e+00  0.00000000e+00  3.46020732e-06]","[[ 0.00013705  0.01516318]
 [-0.00029878  0.00315713]]",[],0.0,0.0
1787153053.1884406,1.3965990039343434,0.7962718814955059,2.0946383774722923,"[ 1.40562567e-05  1.26460172e-08  0.00000000e+00  0.00000000e+00
  0.00000000e+00 -1.15859543e-06  1.26460172e-08  1.01996419e-05
  0.00000000e+00  0.00000000e+00  0.00000000e+00 -1.58110358e-07
  0.00000000e+00  0.00000000e+00  0.00000000e+00  0.00000000e+00
  0.00000000e+00  0.00000000e+00  0.00000000e+00  0.00000000e+00
  0.00000000e+00  0.00000000e+00  0.00000000e+00  0.00000000e+00
  0.00000000e+00  0.00000000e+00  0.00000000e+00  0.00000000e+00
  0.00000000e+00  0.00000000e+00 -1.15859543e-06 -1.58110358e-07
  0.00000000e+00  0.00000000e+00  0.00000000e+00  3.49874851e-06]","[[-0.00021463  0.00902689]
 [-0.00020224 -0.00370748]]",[],0.0,0.0
1787153053.2451801,1.3965990039343434,0.7962718814955059,2.0946383774722923,"[ 1.40562567e-05  1.26460172e-08  0.00000000e+00  0.00000000e+00
  0.00000000e+00 -1.15859543e-06  1.26460172e-08  1.01996419e-05
  0.00000000e+00  0.00000000e+00  0.00000000e+00 -1.58110358e-07
  0.00000000e+00  0.00000000e+00  0.00000000e+00  0.00000000e+00
  0.00000000e+00  0.00000000e+00  0.00000000e+00  0.00000000e+00
  0.00000000e+00  0.00000000e+00  0.00000000e+00  0.00000000e+00
  0.00000000e+00  0.00000000e+00  0.00000000e+00  0.00000000e+00
  0.00000000e+00  0.00000000e+00 -1.15859543e-06 -1.58110358e-07
  0.00000000e+00  0.00000000e+00  0.00000000e+00  3.49874851e-06]","[[-0.00021463  0.00902689]
 [-0.00020224 -0.00370748]]",[],0.0,0.0
1787153053.290204,1.3965990039343434,0.7962718814955059,2.0946383774722923,"[ 1.40562567e-05  1.26460172e-08  0.00000000e+00  0.00000000e+00
  0.00000000e+00 -1.15859543e-06  1.26460172e-08  1.01996419e-05
  0.00000000e+00  0.00000000e+00  0.00000000e+00 -1.58110358e-07
  0.00000000e+00  0.00000000e+00  0.00000000e+00  0.00000000e+00
  0.00000000e+00  0.00000000e+00  0.00000000e+00  0.00000000e+00
  0.00000000e+00  0.00000000e+00  0.00000000e+00  0.00000000e+00
  0.00000000e+00  0.00000000e+00  0.00000000e+00  0.00000000e+00
  0.00000000e+00  0.00000000e+00 -1.15859543e-06 -1.58110358e-07
  0.00000000e+00  0.00000000e+00  0.00000000e+00  3.49874851e-06]","[[-0.00021463  0.00902689]
 [-0.00020224 -0.00370748]]",[],0.0,0.0
1787153053.340648,1.3965990039343434,0.7962718814955059,2.0946383774722923,"[ 1.40562567e-05  1.26460172e-08  0.00000000e+00  0.00000000e+00
  0.00000000e+00 -1.15859543e-06  1.26460172e-08  1.01996419e-05
  0.00000000e+00  0.00000000e+00  0.00000000e+00 -1.58110358e-07
  0.00000000e+00  0.00000000e+00  0.00000000e+00  0.00000000e+00
  0.00000000e+00  0.00000000e+00  0.00000000e+00  0.00000000e+00
  0.00000000e+00  0.00000000e+00  0.00000000e+00  0.00000000e+00
  0.00000000e+00  0.00000000e+00  0.00000000e+00  0.00000000e+00
  0.00000000e+00  0.00000000e+00 -1.15859543e-06 -1.58110358e-07
  0.00000000e+00  0.00000000e+00  0.00000000e+00  3.49874851e-06]","[[-0.00021463  0.00902689]
 [-0.00020224 -0.00370748]]",[],0.0,0.0
1787153053.389056,1.3965990039343434,0.7962718814955059,2.0946383774722923,"[ 1.40562567e-05  1.26460172e-08  0.00000000e+00  0.00000000e+00
  0.00000000e+00 -1.15859543e-06  1.26460172e-08  1.01996419e-05
  0.00000000e+00  0.00000000e+00  0.00000000e+00 -1.58110358e-07
  0.00000000e+00  0.00000000e+00  0.00000000e+00  0.00000000e+00
  0.00000000e+00  0.00000000e+00  0.00000000e+00  0.00000000e+00
  0.00000000e+00  0.00000000e+00  0.00000000e+00  0.00000000e+00
  0.00000000e+00  0.00000000e+00  0.00000000e+00  0.00000000e+00
  0.00000000e+00  0.00000000e+00 -1.15859543e-06 -1.58110358e-07
  0.00000000e+00  0.00000000e+00  0.00000000e+00  3.49874851e-06]","[[-0.00021463  0.00902689]
 [-0.00020224 -0.00370748]]",[],0.0,0.0
1787153053.4390697,1.3965990039343434,0.7962718814955059,2.0946383774722923,"[ 1.40562567e-05  1.26460172e-08  0.00000000e+00  0.00000000e+00
  0.00000000e+00 -1.15859543e-06  1.26460172e-08  1.01996419e-05
  0.00000000e+00  0.00000000e+00  0.00000000e+00 -1.58110358e-07
  0.00000000e+00  0.00000000e+00  0.00000000e+00  0.00000000e+00
  0.00000000e+00  0.00000000e+00  0.00000000e+00  0.00000000e+00
  0.00000000e+00  0.00000000e+00  0.00000000e+00  0.00000000e+00
  0.00000000e+00  0.00000000e+00  0.00000000e+00  0.00000000e+00
  0.00000000e+00  0.00000000e+00 -1.15859543e-06 -1.58110358e-07
  0.00000000e+00  0.00000000e+00  0.00000000e+00  3.49874851e-06]","[[-0.00021463  0.00902689]
 [-0.00020224 -0.00370748]]",[],0.0,0.0
1787153053.489197,1.3965990039343434,0.7962718814955059,2.0946383774722923,"[ 1.40562567e-05  1.26460172e-08  0.00000000e+00  0.00000000e+00
  0.00000000e+00 -1.15859543e-06  1.26460172e-08  1.01996419e-05
  0.00000000e+00  0.00000000e+00  0.00000000e+00 -1.58110358e-07
  0.00000000e+00  0.00000000e+00  0.00000000e+00  0.00000000e+00
  0.00000000e+00  0.00000000e+00  0.00000000e+00  0.00000000e+00
  0.00000000e+00  0.00000000e+00  0.00000000e+00  0.00000000e+00
  0.00000000e+00  0.00000000e+00  0.00000000e+00  0.00000000e+00
  0.00000000e+00  0.00000000e+00 -1.15859543e-06 -1.58110358e-07
  0.00000000e+00  0.00000000e+00  0.00000000e+00  3.49874851e-06]","[[-0.00021463  0.00902689]
 [-0.00020224 -0.00370748]]",[],0.0,0.0
1787153053.538444,1.3965990039343434,0.7962718814955059,2.0946383774722923,"[ 1.40562567e-05  1.26460172e-08  0.00000000e+00  0.00000000e+00
  0.00000000e+00 -1.15859543e-06  1.26460172e-08  1.01996419e-05
  0.00000000e+00  0.00000000e+00  0.00000000e+00 -1.58110358e-07
  0.00000000e+00  0.00000000e+00  0.00000000e+00  0.00000000e+00
  0.00000000e+00  0.00000000e+00  0.00000000e+00  0.00000000e+00
  0.00000000e+00  0.00000000e+00  0.00000000e+00  0.00000000e+00
  0.00000000e+00  0.00000000e+00  0.00000000e+00  0.00000000e+00
  0.00000000e+00  0.00000000e+00 -1.15859543e-06 -1.58110358e-07
  0.00000000e+00  0.00000000e+00  0.00000000e+00  3.49874851e-06]","[[-0.00021463  0.00902689]
 [-0.00020224 -0.00370748]]",[],0.0,0.0
1787153053.5893662,1.3965990039343434,0.7962718814955059,2.0946383774722923,"[ 1.40562567e-05  1.26460172e-08  0.00000000e+00  0.00000000e+00
  0.00000000e+00 -1.15859543e-06  1.26460172e-08  1.01996419e-05
  0.00000000e+00  0.00000000e+00  0.00000000e+00 -1.58110358e-07
  0.00000000e+00  0.00000000e+00  0.00000000e+00  0.00000000e+00
  0.00000000e+00  0.00000000e+00  0.00000000e+00  0.00000000e+00
  0.00000000e+00  0.00000000e+00  0.00000000e+00  0.00000000e+00
  0.00000000e+00  0.00000000e+00  0.00000000e+00  0.00000000e+00
  0.00000000e+00  0.00000000e+00 -1.15859543e-06 -1.58110358e-07
  0.00000000e+00  0.00000000e+00  0.00000000e+00  3.49874851e-06]","[[-0.00021463  0.00902689]
 [-0.00020224 -0.00370748]]",[],0.0,0.0
1787153053.6411645,1.3965990039343434,0.7962718814955059,2.0946383774722923,"[ 1.40562567e-05  1.26460172e-08  0.00000000e+00  0.00000000e+00
  0.00000000e+00 -1.15859543e-06  1.26460172e-08  1.01996419e-05
  0.00000000e+00  0.00000000e+00  0.00000000e+00 -1.58110358e-07
  0.00000000e+00  0.00000000e+00  0.00000000e+00  0.00000000e+00
  0.00000000e+00  0.00000000e+00  0.00000000e+00  0.00000000e+00
  0.00000000e+00  0.00000000e+00  0.00000000e+00  0.00000000e+00
  0.00000000e+00  0.00000000e+00  0.00000000e+00  0.00000000e+00
  0.00000000e+00  0.00000000e+00 -1.15859543e-06 -1.58110358e-07
  0.00000000e+00  0.00000000e+00  0.00000000e+00  3.49874851e-06]","[[-0.00021463  0.00902689]
 [-0.00020224 -0.00370748]]",[],0.0,0.0
1787153053.6900513,1.3965990039343434,0.7962718814955059,2.0946383774722923,"[ 1.40562567e-05  1.26460172e-08  0.00000000e+00  0.00000000e+00
  0.00000000e+00 -1.15859543e-06  1.26460172e-08  1.01996419e-05
  0.00000000e+00  0.00000000e+00  0.00000000e+00 -1.58110358e-07
  0.00000000e+00  0.00000000e+00  0.00000000e+00  0.00000000e+00
  0.00000000e+00  0.00000000e+00  0.00000000e+00  0.00000000e+00
  0.00000000e+00  0.00000000e+00  0.00000000e+00  0.00000000e+00
  0.00000000e+00  0.00000000e+00  0.00000000e+00  0.00000000e+00
  0.00000000e+00  0.00000000e+00 -1.15859543e-06 -1.58110358e-07
  0.00000000e+00  0.00000000e+00  0.00000000e+00  3.49874851e-06]","[[-0.00021463  0.00902689]
 [-0.00020224 -0.00370748]]",[],0.0,0.0
1787153053.7387574,1.3965990039343434,0.7962718814955059,2.0946383774722923,"[ 1.40562567e-05  1.26460172e-08  0.00000000e+00  0.00000000e+00
  0.00000000e+00 -1.15859543e-06  1.26460172e-08  1.01996419e-05
  0.00000000e+00  0.00000000e+00  0.00000000e+00 -1.58110358e-07
  0.00000000e+00  0.00000000e+00  0.00000000e+00  0.00000000e+00
  0.00000000e+00  0.00000000e+00  0.00000000e+00  0.00000000e+00
  0.00000000e+00  0.00000000e+00  0.00000000e+00  0.00000000e+00
  0.00000000e+00  0.00000000e+00  0.00000000e+00  0.00000000e+00
  0.00000000e+00  0.00000000e+00 -1.15859543e-06 -1.58110358e-07
  0.00000000e+00  0.00000000e+00  0.00000000e+00  3.49874851e-06]","[[-0.00021463  0.00902689]
 [-0.00020224 -0.00370748]]",[],0.0,0.0
1787153053.7931316,1.3965990039343434,0.7962718814955059,2.0946383774722923,"[ 1.40562567e-05  1.26460172e-08  0.00000000e+00  0.00000000e+00
  0.00000000e+00 -1.15859543e-06  1.26460172e-08  1.01996419e-05
  0.00000000e+00  0.00000000e+00  0.00000000e+00 -1.58110358e-07
  0.00000000e+00  0.00000000e+00  0.00000000e+00  0.00000000e+00
  0.00000000e+00  0.00000000e+00  0.00000000e+00  0.00000000e+00
  0.00000000e+00  0.00000000e+00  0.00000000e+00  0.00000000e+00
  0.00000000e+00  0.00000000e+00  0.00000000e+00  0.00000000e+00
  0.00000000e+00  0.00000000e+00 -1.15859543e-06 -1.58110358e-07
  0.00000000e+00  0.00000000e+00  0.00000000e+00  3.49874851e-06]","[[-0.00021463  0.00902689]
 [-0.00020224 -0.00370748]]",[],0.0,0.0
1787153053.8387806,1.3965990039343434,0.7962718814955059,2.0946383774722923,"[ 1.40562567e-05  1.26460172e-08  0.00000000e+00  0.00000000e+00
  0.00000000e+00 -1.15859543e-06  1.26460172e-08  1.01996419e-05
  0.00000000e+00  0.00000000e+00  0.00000000e+00 -1.58110358e-07
  0.00000000e+00  0.00000000e+00  0.00000000e+00  0.00000000e+00
  0.00000000e+00  0.00000000e+00  0.00000000e+00  0.00000000e+00
  0.00000000e+00  0.00000000e+00  0.00000000e+00  0.00000000e+00
  0.00000000e+00  0.00000000e+00  0.00000000e+00  0.00000000e+00
  0.00000000e+00  0.00000000e+00 -1.15859543e-06 -1.58110358e-07
  0.00000000e+00  0.00000000e+00  0.00000000e+00  3.49874851e-06]","[[-0.00021463  0.00902689]
 [-0.00020224 -0.00370748]]",[],0.0,0.0
1787153053.8886328,1.3965990039343434,0.7962718814955059,2.0946383774722923,"[ 1.40562567e-05  1.26460172e-08  0.00000000e+00  0.00000000e+00
  0.00000000e+00 -1.15859543e-06  1.26460172e-08  1.01996419e-05
  0.00000000e+00  0.00000000e+00  0.00000000e+00 -1.58110358e-07
  0.00000000e+00  0.00000000e+00  0.00000000e+00  0.00000000e+00
  0.00000000e+00  0.00000000e+00  0.00000000e+00  0.00000000e+00
  0.00000000e+00  0.00000000e+00  0.00000000e+00  0.00000000e+00
  0.00000000e+00  0.00000000e+00  0.00000000e+00  0.00000000e+00
  0.00000000e+00  0.00000000e+00 -1.15859543e-06 -1.58110358e-07
  0.00000000e+00  0.00000000e+00  0.00000000e+00  3.49874851e-06]","[[-0.00021463  0.00902689]
 [-0.00020224 -0.00370748]]",[],0.0,0.0
1787153053.943355,1.3965990039343434,0.7962718814955059,2.0946383774722923,"[ 1.40562567e-05  1.26460172e-08  0.00000000e+00  0.00000000e+00
  0.00000000e+00 -1.15859543e-06  1.26460172e-08  1.01996419e-05
  0.00000000e+00  0.00000000e+00  0.00000000e+00 -1.58110358e-07
  0.00000000e+00  0.00000000e+00  0.00000000e+00  0.00000000e+00
  0.00000000e+00  0.00000000e+00  0.00000000e+00  0.00000000e+00
  0.00000000e+00  0.00000000e+00  0.00000000e+00  0.00000000e+00
  0.00000000e+00  0.00000000e+00  0.00000000e+00  0.00000000e+00
  0.00000000e+00  0.00000000e+00 -1.15859543e-06 -1.58110358e-07
  0.00000000e+00  0.00000000e+00  0.00000000e+00  3.49874851e-06]","[[-0.00021463  0.00902689]
 [-0.00020224 -0.00370748]]",[],0.0,0.0
1787153053.9900014,1.3965990039343434,0.7962718814955059,2.0946383774722923,"[ 1.40562567e-05  1.26460172e-08  0.00000000e+00  0.00000000e+00
  0.00000000e+00 -1.15859543e-06  1.26460172e-08  1.01996419e-05
  0.00000000e+00  0.00000000e+00  0.00000000e+00 -1.58110358e-07
  0.00000000e+00  0.00000000e+00  0.00000000e+00  0.00000000e+00
  0.00000000e+00  0.00000000e+00  0.00000000e+00  0.00000000e+00
  0.00000000e+00  0.00000000e+00  0.00000000e+00  0.00000000e+00
  0.00000000e+00  0.00000000e+00  0.00000000e+00  0.00000000e+00
  0.00000000e+00  0.00000000e+00 -1.15859543e-06 -1.58110358e-07
  0.00000000e+00  0.00000000e+00  0.00000000e+00  3.49874851e-06]","[[-0.00021463  0.00902689]
 [-0.00020224 -0.00370748]]",[],0.0,0.0
1787153054.0406964,1.3965990039343434,0.7962718814955059,2.0946383774722923,"[ 1.40562567e-05  1.26460172e-08  0.00000000e+00  0.00000000e+00
  0.00000000e+00 -1.15859543e-06  1.26460172e-08  1.01996419e-05
  0.00000000e+00  0.00000000e+00  0.00000000e+00 -1.58110358e-07
  0.00000000e+00  0.00000000e+00  0.00000000e+00  0.00000000e+00
  0.00000000e+00  0.00000000e+00  0.00000000e+00  0.00000000e+00
  0.00000000e+00  0.00000000e+00  0.00000000e+00  0.00000000e+00
  0.00000000e+00  0.00000000e+00  0.00000000e+00  0.00000000e+00
  0.00000000e+00  0.00000000e+00 -1.15859543e-06 -1.58110358e-07
  0.00000000e+00  0.00000000e+00  0.00000000e+00  3.49874851e-06]","[[-0.00021463  0.00902689]
 [-0.00020224 -0.00370748]]",[],0.0,0.0
1787153054.0887666,1.3965990039343434,0.7962718814955059,2.0946383774722923,"[ 1.40562567e-05  1.26460172e-08  0.00000000e+00  0.00000000e+00
  0.00000000e+00 -1.15859543e-06  1.26460172e-08  1.01996419e-05
  0.00000000e+00  0.00000000e+00  0.00000000e+00 -1.58110358e-07
  0.00000000e+00  0.00000000e+00  0.00000000e+00  0.00000000e+00
  0.00000000e+00  0.00000000e+00  0.00000000e+00  0.00000000e+00
  0.00000000e+00  0.00000000e+00  0.00000000e+00  0.00000000e+00
  0.00000000e+00  0.00000000e+00  0.00000000e+00  0.00000000e+00
  0.00000000e+00  0.00000000e+00 -1.15859543e-06 -1.58110358e-07
  0.00000000e+00  0.00000000e+00  0.00000000e+00  3.49874851e-06]","[[-0.00021463  0.00902689]
 [-0.00020224 -0.00370748]]",[],0.0,0.0
1787153054.1404183,1.4001385665969268,0.7912833497009988,2.1605277500265228,"[ 1.17546289e-05 -5.23348159e-09  0.00000000e+00  0.00000000e+00
  0.00000000e+00 -9.24789255e-07 -5.23348159e-09  8.67252220e-06
  0.00000000e+00  0.00000000e+00  0.00000000e+00  2.67070374e-08
  0.00000000e+00  0.00000000e+00  0.00000000e+00  0.00000000e+00
  0.00000000e+00  0.00000000e+00  0.00000000e+00  0.00000000e+00
  0.00000000e+00  0.00000000e+00  0.00000000e+00  0.00000000e+00
  0.00000000e+00  0.00000000e+00  0.00000000e+00  0.00000000e+00
  0.00000000e+00  0.00000000e+00 -9.24789255e-07  2.67070374e-08
  0.00000000e+00  0.00000000e+00  0.00000000e+00  3.49547265e-06]","[[-0.00017848  0.0074959 ]
 [-0.0001721  -0.00341418]]",[],0.0,0.0
1787153054.1884623,1.4001385665969268,0.7912833497009988,2.1605277500265228,"[ 1.17546289e-05 -5.23348159e-09  0.00000000e+00  0.00000000e+00
  0.00000000e+00 -9.24789255e-07 -5.23348159e-09  8.67252220e-06
  0.00000000e+00  0.00000000e+00  0.00000000e+00  2.67070374e-08
  0.00000000e+00  0.00000000e+00  0.00000000e+00  0.00000000e+00
  0.00000000e+00  0.00000000e+00  0.00000000e+00  0.00000000e+00
  0.00000000e+00  0.00000000e+00  0.00000000e+00  0.00000000e+00
  0.00000000e+00  0.00000000e+00  0.00000000e+00  0.00000000e+00
  0.00000000e+00  0.00000000e+00 -9.24789255e-07  2.67070374e-08
  0.00000000e+00  0.00000000e+00  0.00000000e+00  3.49547265e-06]","[[-0.00017848  0.0074959 ]
 [-0.0001721  -0.00341418]]",[],0.0,0.0
1787153054.2473881,1.4001385665969268,0.7912833497009988,2.1605277500265228,"[ 1.17546289e-05 -5.23348159e-09  0.00000000e+00  0.00000000e+00
  0.00000000e+00 -9.24789255e-07 -5.23348159e-09  8.67252220e-06
  0.00000000e+00  0.00000000e+00  0.00000000e+00  2.67070374e-08
  0.00000000e+00  0.00000000e+00  0.00000000e+00  0.00000000e+00
  0.00000000e+00  0.00000000e+00  0.00000000e+00  0.00000000e+00
  0.00000000e+00  0.00000000e+00  0.00000000e+00  0.00000000e+00
  0.00000000e+00  0.00000000e+00  0.00000000e+00  0.00000000e+00
  0.00000000e+00  0.00000000e+00 -9.24789255e-07  2.67070374e-08
  0.00000000e+00  0.00000000e+00  0.00000000e+00  3.49547265e-06]","[[-0.00017848  0.0074959 ]
 [-0.0001721  -0.00341418]]",[],0.0,0.0
1787153054.2901163,1.4001385665969268,0.7912833497009988,2.1605277500265228,"[ 1.17546289e-05 -5.23348159e-09  0.00000000e+00  0.00000000e+00
  0.00000000e+00 -9.24789255e-07 -5.23348159e-09  8.67252220e-06
  0.00000000e+00  0.00000000e+00  0.00000000e+00  2.67070374e-08
  0.00000000e+00  0.00000000e+00  0.00000000e+00  0.00000000e+00
  0.00000000e+00  0.00000000e+00  0.00000000e+00  0.00000000e+00
  0.00000000e+00  0.00000000e+00  0.00000000e+00  0.00000000e+00
  0.00000000e+00  0.00000000e+00  0.00000000e+00  0.00000000e+00
  0.00000000e+00  0.00000000e+00 -9.24789255e-07  2.67070374e-08
  0.00000000e+00  0.00000000e+00  0.00000000e+00  3.49547265e-06]","[[-0.00017848  0.0074959 ]
 [-0.0001721  -0.00341418]]",[],0.0,0.0
1787153054.349268,1.4001385665969268,0.7912833497009988,2.1605277500265228,"[ 1.17546289e-05 -5.23348159e-09  0.00000000e+00  0.00000000e+00
  0.00000000e+00 -9.24789255e-07 -5.23348159e-09  8.67252220e-06
  0.00000000e+00  0.00000000e+00  0.00000000e+00  2.67070374e-08
  0.00000000e+00  0.00000000e+00  0.00000000e+00  0.00000000e+00
  0.00000000e+00  0.00000000e+00  0.00000000e+00  0.00000000e+00
  0.00000000e+00  0.00000000e+00  0.00000000e+00  0.00000000e+00
  0.00000000e+00  0.00000000e+00  0.00000000e+00  0.00000000e+00
  0.00000000e+00  0.00000000e+00 -9.24789255e-07  2.67070374e-08
  0.00000000e+00  0.00000000e+00  0.00000000e+00  3.49547265e-06]","[[-0.00017848  0.0074959 ]
 [-0.0001721  -0.00341418]]",[],0.0,0.0
1787153054.3942103,1.4001385665969268,0.7912833497009988,2.1605277500265228,"[ 1.17546289e-05 -5.23348159e-09  0.00000000e+00  0.00000000e+00
  0.00000000e+00 -9.24789255e-07 -5.23348159e-09  8.67252220e-06
  0.00000000e+00  0.00000000e+00  0.00000000e+00  2.67070374e-08
  0.00000000e+00  0.00000000e+00  0.00000000e+00  0.00000000e+00
  0.00000000e+00  0.00000000e+00  0.00000000e+00  0.00000000e+00
  0.00000000e+00  0.00000000e+00  0.00000000e+00  0.00000000e+00
  0.00000000e+00  0.00000000e+00  0.00000000e+00  0.00000000e+00
  0.00000000e+00  0.00000000e+00 -9.24789255e-07  2.67070374e-08
  0.00000000e+00  0.00000000e+00  0.00000000e+00  3.49547265e-06]","[[-0.00017848  0.0074959 ]
 [-0.0001721  -0.00341418]]",[],0.0,0.0
1787153054.456379,1.4001385665969268,0.7912833497009988,2.1605277500265228,"[ 1.17546289e-05 -5.23348159e-09  0.00000000e+00  0.00000000e+00
  0.00000000e+00 -9.24789255e-07 -5.23348159e-09  8.67252220e-06
  0.00000000e+00  0.00000000e+00  0.00000000e+00  2.67070374e-08
  0.00000000e+00  0.00000000e+00  0.00000000e+00  0.00000000e+00
  0.00000000e+00  0.00000000e+00  0.00000000e+00  0.00000000e+00
  0.00000000e+00  0.00000000e+00  0.00000000e+00  0.00000000e+00
  0.00000000e+00  0.00000000e+00  0.00000000e+00  0.00000000e+00
  0.00000000e+00  0.00000000e+00 -9.24789255e-07  2.67070374e-08
  0.00000000e+00  0.00000000e+00  0.00000000e+00  3.49547265e-06]","[[-0.00017848  0.0074959 ]
 [-0.0001721  -0.00341418]]",[],0.0,0.0
1787153054.48945,1.4001385665969268,0.7912833497009988,2.1605277500265228,"[ 1.17546289e-05 -5.23348159e-09  0.00000000e+00  0.00000000e+00
  0.00000000e+00 -9.24789255e-07 -5.23348159e-09  8.67252220e-06
  0.00000000e+00  0.00000000e+00  0.00000000e+00  2.67070374e-08
  0.00000000e+00  0.00000000e+00  0.00000000e+00  0.00000000e+00
  0.00000000e+00  0.00000000e+00  0.00000000e+00  0.00000000e+00
  0.00000000e+00  0.00000000e+00  0.00000000e+00  0.00000000e+00
  0.00000000e+00  0.00000000e+00  0.00000000e+00  0.00000000e+00
  0.00000000e+00  0.00000000e+00 -9.24789255e-07  2.67070374e-08
  0.00000000e+00  0.00000000e+00  0.00000000e+00  3.49547265e-06]","[[-0.00017848  0.0074959 ]
 [-0.0001721  -0.00341418]]",[],0.0,0.0
1787153054.5440836,1.4001385665969268,0.7912833497009988,2.1605277500265228,"[ 1.17546289e-05 -5.23348159e-09  0.00000000e+00  0.00000000e+00
  0.00000000e+00 -9.24789255e-07 -5.23348159e-09  8.67252220e-06
  0.00000000e+00  0.00000000e+00  0.00000000e+00  2.67070374e-08
  0.00000000e+00  0.00000000e+00  0.00000000e+00  0.00000000e+00
  0.00000000e+00  0.00000000e+00  0.00000000e+00  0.00000000e+00
  0.00000000e+00  0.00000000e+00  0.00000000e+00  0.00000000e+00
  0.00000000e+00  0.00000000e+00  0.00000000e+00  0.00000000e+00
  0.00000000e+00  0.00000000e+00 -9.24789255e-07  2.67070374e-08
  0.00000000e+00  0.00000000e+00  0.00000000e+00  3.49547265e-06]","[[-0.00017848  0.0074959 ]
 [-0.0001721  -0.00341418]]",[],0.0,0.0
1787153054.5950668,1.4001385665969268,0.7912833497009988,2.1605277500265228,"[ 1.17546289e-05 -5.23348159e-09  0.00000000e+00  0.00000000e+00
  0.00000000e+00 -9.24789255e-07 -5.23348159e-09  8.67252220e-06
  0.00000000e+00  0.00000000e+00  0.00000000e+00  2.67070374e-08
  0.00000000e+00  0.00000000e+00  0.00000000e+00  0.00000000e+00
  0.00000000e+00  0.00000000e+00  0.00000000e+00  0.00000000e+00
  0.00000000e+00  0.00000000e+00  0.00000000e+00  0.00000000e+00
  0.00000000e+00  0.00000000e+00  0.00000000e+00  0.00000000e+00
  0.00000000e+00  0.00000000e+00 -9.24789255e-07  2.67070374e-08
  0.00000000e+00  0.00000000e+00  0.00000000e+00  3.49547265e-06]","[[-0.00017848  0.0074959 ]
 [-0.0001721  -0.00341418]]",[],0.0,0.0
1787153054.6465898,1.4001385665969268,0.7912833497009988,2.1605277500265228,"[ 1.17546289e-05 -5.23348159e-09  0.00000000e+00  0.00000000e+00
  0.00000000e+00 -9.24789255e-07 -5.23348159e-09  8.67252220e-06
  0.00000000e+00  0.00000000e+00  0.00000000e+00  2.67070374e-08
  0.00000000e+00  0.00000000e+00  0.00000000e+00  0.00000000e+00
  0.00000000e+00  0.00000000e+00  0.00000000e+00  0.00000000e+00
  0.00000000e+00  0.00000000e+00  0.00000000e+00  0.00000000e+00
  0.00000000e+00  0.00000000e+00  0.00000000e+00  0.00000000e+00
  0.00000000e+00  0.00000000e+00 -9.24789255e-07  2.67070374e-08
  0.00000000e+00  0.00000000e+00  0.00000000e+00  3.49547265e-06]","[[-0.00017848  0.0074959 ]
 [-0.0001721  -0.00341418]]",[],0.0,0.0
1787153054.6987252,1.4001385665969268,0.7912833497009988,2.1605277500265228,"[ 1.17546289e-05 -5.23348159e-09  0.00000000e+00  0.00000000e+00
  0.00000000e+00 -9.24789255e-07 -5.23348159e-09  8.67252220e-06
  0.00000000e+00  0.00000000e+00  0.00000000e+00  2.67070374e-08
  0.00000000e+00  0.00000000e+00  0.00000000e+00  0.00000000e+00
  0.00000000e+00  0.00000000e+00  0.00000000e+00  0.00000000e+00
  0.00000000e+00  0.00000000e+00  0.00000000e+00  0.00000000e+00
  0.00000000e+00  0.00000000e+00  0.00000000e+00  0.00000000e+00
  0.00000000e+00  0.00000000e+00 -9.24789255e-07  2.67070374e-08
  0.00000000e+00  0.00000000e+00  0.00000000e+00  3.49547265e-06]","[[-0.00017848  0.0074959 ]
 [-0.0001721  -0.00341418]]",[],0.0,0.0
1787153054.7584162,1.4001385665969268,0.7912833497009988,2.1605277500265228,"[ 1.17546289e-05 -5.23348159e-09  0.00000000e+00  0.00000000e+00
  0.00000000e+00 -9.24789255e-07 -5.23348159e-09  8.67252220e-06
  0.00000000e+00  0.00000000e+00  0.00000000e+00  2.67070374e-08
  0.00000000e+00  0.00000000e+00  0.00000000e+00  0.00000000e+00
  0.00000000e+00  0.00000000e+00  0.00000000e+00  0.00000000e+00
  0.00000000e+00  0.00000000e+00  0.00000000e+00  0.00000000e+00
  0.00000000e+00  0.00000000e+00  0.00000000e+00  0.00000000e+00
  0.00000000e+00  0.00000000e+00 -9.24789255e-07  2.67070374e-08
  0.00000000e+00  0.00000000e+00  0.00000000e+00  3.49547265e-06]","[[-0.00017848  0.0074959 ]
 [-0.0001721  -0.00341418]]",[],0.0,0.0
1787153054.795605,1.4001385665969268,0.7912833497009988,2.1605277500265228,"[ 1.17546289e-05 -5.23348159e-09  0.00000000e+00  0.00000000e+00
  0.00000000e+00 -9.24789255e-07 -5.23348159e-09  8.67252220e-06
  0.00000000e+00  0.00000000e+00  0.00000000e+00  2.67070374e-08
  0.00000000e+00  0.00000000e+00  0.00000000e+00  0.00000000e+00
  0.00000000e+00  0.00000000e+00  0.00000000e+00  0.00000000e+00
  0.00000000e+00  0.00000000e+00  0.00000000e+00  0.00000000e+00
  0.00000000e+00  0.00000000e+00  0.00000000e+00  0.00000000e+00
  0.00000000e+00  0.00000000e+00 -9.24789255e-07  2.67070374e-08
  0.00000000e+00  0.00000000e+00  0.00000000e+00  3.49547265e-06]","[[-0.00017848  0.0074959 ]
 [-0.0001721  -0.00341418]]",[],0.0,0.0
1787153054.8461845,1.4001385665969268,0.7912833497009988,2.1605277500265228,"[ 1.17546289e-05 -5.23348159e-09  0.00000000e+00  0.00000000e+00
  0.00000000e+00 -9.24789255e-07 -5.23348159e-09  8.67252220e-06
  0.00000000e+00  0.00000000e+00  0.00000000e+00  2.67070374e-08
  0.00000000e+00  0.00000000e+00  0.00000000e+00  0.00000000e+00
  0.00000000e+00  0.00000000e+00  0.00000000e+00  0.00000000e+00
  0.00000000e+00  0.00000000e+00  0.00000000e+00  0.00000000e+00
  0.00000000e+00  0.00000000e+00  0.00000000e+00  0.00000000e+00
  0.00000000e+00  0.00000000e+00 -9.24789255e-07  2.67070374e-08
  0.00000000e+00  0.00000000e+00  0.00000000e+00  3.49547265e-06]","[[-0.00017848  0.0074959 ]
 [-0.0001721  -0.00341418]]",[],0.0,0.0
1787153054.902352,1.4001385665969268,0.7912833497009988,2.1605277500265228,"[ 1.17546289e-05 -5.23348159e-09  0.00000000e+00  0.00000000e+00
  0.00000000e+00 -9.24789255e-07 -5.23348159e-09  8.67252220e-06
  0.00000000e+00  0.00000000e+00  0.00000000e+00  2.67070374e-08
  0.00000000e+00  0.00000000e+00  0.00000000e+00  0.00000000e+00
  0.00000000e+00  0.00000000e+00  0.00000000e+00  0.00000000e+00
  0.00000000e+00  0.00000000e+00  0.00000000e+00  0.00000000e+00
  0.00000000e+00  0.00000000e+00  0.00000000e+00  0.00000000e+00
  0.00000000e+00  0.00000000e+00 -9.24789255e-07  2.67070374e-08
  0.00000000e+00  0.00000000e+00  0.00000000e+00  3.49547265e-06]","[[-0.00017848  0.0074959 ]
 [-0.0001721  -0.00341418]]",[],0.0,0.0
1787153054.9400058,1.4001385665969268,0.7912833497009988,2.1605277500265228,"[ 1.17546289e-05 -5.23348159e-09  0.00000000e+00  0.00000000e+00
  0.00000000e+00 -9.24789255e-07 -5.23348159e-09  8.67252220e-06
  0.00000000e+00  0.00000000e+00  0.00000000e+00  2.67070374e-08
  0.00000000e+00  0.00000000e+00  0.00000000e+00  0.00000000e+00
  0.00000000e+00  0.00000000e+00  0.00000000e+00  0.00000000e+00
  0.00000000e+00  0.00000000e+00  0.00000000e+00  0.00000000e+00
  0.00000000e+00  0.00000000e+00  0.00000000e+00  0.00000000e+00
  0.00000000e+00  0.00000000e+00 -9.24789255e-07  2.67070374e-08
  0.00000000e+00  0.00000000e+00  0.00000000e+00  3.49547265e-06]","[[-0.00017848  0.0074959 ]
 [-0.0001721  -0.00341418]]",[],0.0,0.0
1787153054.992425,1.4011672583705874,0.7852711314780797,2.2194318391744225,"[ 9.90613055e-06 -5.18412522e-08  0.00000000e+00  0.00000000e+00
  0.00000000e+00 -7.33717577e-07 -5.18412522e-08  7.48616282e-06
  0.00000000e+00  0.00000000e+00  0.00000000e+00 -2.57752902e-08
  0.00000000e+00  0.00000000e+00  0.00000000e+00  0.00000000e+00
  0.00000000e+00  0.00000000e+00  0.00000000e+00  0.00000000e+00
  0.00000000e+00  0.00000000e+00  0.00000000e+00  0.00000000e+00
  0.00000000e+00  0.00000000e+00  0.00000000e+00  0.00000000e+00
  0.00000000e+00  0.00000000e+00 -7.33717577e-07 -2.57752902e-08
  0.00000000e+00  0.00000000e+00  0.00000000e+00  3.23267228e-06]","[[ 0.00018869  0.00465621]
 [-0.00012294  0.00307138]]",[],0.0,0.0
1787153055.050609,1.4011672583705874,0.7852711314780797,2.2194318391744225,"[ 9.90613055e-06 -5.18412522e-08  0.00000000e+00  0.00000000e+00
  0.00000000e+00 -7.33717577e-07 -5.18412522e-08  7.48616282e-06
  0.00000000e+00  0.00000000e+00  0.00000000e+00 -2.57752902e-08
  0.00000000e+00  0.00000000e+00  0.00000000e+00  0.00000000e+00
  0.00000000e+00  0.00000000e+00  0.00000000e+00  0.00000000e+00
  0.00000000e+00  0.00000000e+00  0.00000000e+00  0.00000000e+00
  0.00000000e+00  0.00000000e+00  0.00000000e+00  0.00000000e+00
  0.00000000e+00  0.00000000e+00 -7.33717577e-07 -2.57752902e-08
  0.00000000e+00  0.00000000e+00  0.00000000e+00  3.23267228e-06]","[[ 0.00018869  0.00465621]
 [-0.00012294  0.00307138]]",[],0.0,0.0
1787153055.0963924,1.4011672583705874,0.7852711314780797,2.2194318391744225,"[ 9.90613055e-06 -5.18412522e-08  0.00000000e+00  0.00000000e+00
  0.00000000e+00 -7.33717577e-07 -5.18412522e-08  7.48616282e-06
  0.00000000e+00  0.00000000e+00  0.00000000e+00 -2.57752902e-08
  0.00000000e+00  0.00000000e+00  0.00000000e+00  0.00000000e+00
  0.00000000e+00  0.00000000e+00  0.00000000e+00  0.00000000e+00
  0.00000000e+00  0.00000000e+00  0.00000000e+00  0.00000000e+00
  0.00000000e+00  0.00000000e+00  0.00000000e+00  0.00000000e+00
  0.00000000e+00  0.00000000e+00 -7.33717577e-07 -2.57752902e-08
  0.00000000e+00  0.00000000e+00  0.00000000e+00  3.23267228e-06]","[[ 0.00018869  0.00465621]
 [-0.00012294  0.00307138]]",[],0.0,0.0
1787153055.144678,1.4011672583705874,0.7852711314780797,2.2194318391744225,"[ 9.90613055e-06 -5.18412522e-08  0.00000000e+00  0.00000000e+00
  0.00000000e+00 -7.33717577e-07 -5.18412522e-08  7.48616282e-06
  0.00000000e+00  0.00000000e+00  0.00000000e+00 -2.57752902e-08
  0.00000000e+00  0.00000000e+00  0.00000000e+00  0.00000000e+00
  0.00000000e+00  0.00000000e+00  0.00000000e+00  0.00000000e+00
  0.00000000e+00  0.00000000e+00  0.00000000e+00  0.00000000e+00
  0.00000000e+00  0.00000000e+00  0.00000000e+00  0.00000000e+00
  0.00000000e+00  0.00000000e+00 -7.33717577e-07 -2.57752902e-08
  0.00000000e+00  0.00000000e+00  0.00000000e+00  3.23267228e-06]","[[ 0.00018869  0.00465621]
 [-0.00012294  0.00307138]]",[],0.0,0.0
1787153055.1917984,1.4011672583705874,0.7852711314780797,2.2194318391744225,"[ 9.90613055e-06 -5.18412522e-08  0.00000000e+00  0.00000000e+00
  0.00000000e+00 -7.33717577e-07 -5.18412522e-08  7.48616282e-06
  0.00000000e+00  0.00000000e+00  0.00000000e+00 -2.57752902e-08
  0.00000000e+00  0.00000000e+00  0.00000000e+00  0.00000000e+00
  0.00000000e+00  0.00000000e+00  0.00000000e+00  0.00000000e+00
  0.00000000e+00  0.00000000e+00  0.00000000e+00  0.00000000e+00
  0.00000000e+00  0.00000000e+00  0.00000000e+00  0.00000000e+00
  0.00000000e+00  0.00000000e+00 -7.33717577e-07 -2.57752902e-08
  0.00000000e+00  0.00000000e+00  0.00000000e+00  3.23267228e-06]","[[ 0.00018869  0.00465621]
 [-0.00012294  0.00307138]]",[],0.0,0.0
1787153055.2383482,1.4011672583705874,0.7852711314780797,2.2194318391744225,"[ 9.90613055e-06 -5.18412522e-08  0.00000000e+00  0.00000000e+00
  0.00000000e+00 -7.33717577e-07 -5.18412522e-08  7.48616282e-06
  0.00000000e+00  0.00000000e+00  0.00000000e+00 -2.57752902e-08
  0.00000000e+00  0.00000000e+00  0.00000000e+00  0.00000000e+00
  0.00000000e+00  0.00000000e+00  0.00000000e+00  0.00000000e+00
  0.00000000e+00  0.00000000e+00  0.00000000e+00  0.00000000e+00
  0.00000000e+00  0.00000000e+00  0.00000000e+00  0.00000000e+00
  0.00000000e+00  0.00000000e+00 -7.33717577e-07 -2.57752902e-08
  0.00000000e+00  0.00000000e+00  0.00000000e+00  3.23267228e-06]","[[ 0.00018869  0.00465621]
 [-0.00012294  0.00307138]]",[],0.0,0.0
1787153055.2889872,1.4011672583705874,0.7852711314780797,2.2194318391744225,"[ 9.90613055e-06 -5.18412522e-08  0.00000000e+00  0.00000000e+00
  0.00000000e+00 -7.33717577e-07 -5.18412522e-08  7.48616282e-06
  0.00000000e+00  0.00000000e+00  0.00000000e+00 -2.57752902e-08
  0.00000000e+00  0.00000000e+00  0.00000000e+00  0.00000000e+00
  0.00000000e+00  0.00000000e+00  0.00000000e+00  0.00000000e+00
  0.00000000e+00  0.00000000e+00  0.00000000e+00  0.00000000e+00
  0.00000000e+00  0.00000000e+00  0.00000000e+00  0.00000000e+00
  0.00000000e+00  0.00000000e+00 -7.33717577e-07 -2.57752902e-08
  0.00000000e+00  0.00000000e+00  0.00000000e+00  3.23267228e-06]","[[ 0.00018869  0.00465621]
 [-0.00012294  0.00307138]]",[],0.0,0.0
1787153055.339245,1.4011672583705874,0.7852711314780797,2.2194318391744225,"[ 9.90613055e-06 -5.18412522e-08  0.00000000e+00  0.00000000e+00
  0.00000000e+00 -7.33717577e-07 -5.18412522e-08  7.48616282e-06
  0.00000000e+00  0.00000000e+00  0.00000000e+00 -2.57752902e-08
  0.00000000e+00  0.00000000e+00  0.00000000e+00  0.00000000e+00
  0.00000000e+00  0.00000000e+00  0.00000000e+00  0.00000000e+00
  0.00000000e+00  0.00000000e+00  0.00000000e+00  0.00000000e+00
  0.00000000e+00  0.00000000e+00  0.00000000e+00  0.00000000e+00
  0.00000000e+00  0.00000000e+00 -7.33717577e-07 -2.57752902e-08
  0.00000000e+00  0.00000000e+00  0.00000000e+00  3.23267228e-06]","[[ 0.00018869  0.00465621]
 [-0.00012294  0.00307138]]",[],0.0,0.0
1787153055.3883402,1.4011672583705874,0.7852711314780797,2.2194318391744225,"[ 9.90613055e-06 -5.18412522e-08  0.00000000e+00  0.00000000e+00
  0.00000000e+00 -7.33717577e-07 -5.18412522e-08  7.48616282e-06
  0.00000000e+00  0.00000000e+00  0.00000000e+00 -2.57752902e-08
  0.00000000e+00  0.00000000e+00  0.00000000e+00  0.00000000e+00
  0.00000000e+00  0.00000000e+00  0.00000000e+00  0.00000000e+00
  0.00000000e+00  0.00000000e+00  0.00000000e+00  0.00000000e+00
  0.00000000e+00  0.00000000e+00  0.00000000e+00  0.00000000e+00
  0.00000000e+00  0.00000000e+00 -7.33717577e-07 -2.57752902e-08
  0.00000000e+00  0.00000000e+00  0.00000000e+00  3.23267228e-06]","[[ 0.00018869  0.00465621]
 [-0.00012294  0.00307138]]",[],0.0,0.0
1787153055.4444976,1.4011672583705874,0.7852711314780797,2.2194318391744225,"[ 9.90613055e-06 -5.18412522e-08  0.00000000e+00  0.00000000e+00
  0.00000000e+00 -7.33717577e-07 -5.18412522e-08  7.48616282e-06
  0.00000000e+00  0.00000000e+00  0.00000000e+00 -2.57752902e-08
  0.00000000e+00  0.00000000e+00  0.00000000e+00  0.00000000e+00
  0.00000000e+00  0.00000000e+00  0.00000000e+00  0.00000000e+00
  0.00000000e+00  0.00000000e+00  0.00000000e+00  0.00000000e+00
  0.00000000e+00  0.00000000e+00  0.00000000e+00  0.00000000e+00
  0.00000000e+00  0.00000000e+00 -7.33717577e-07 -2.57752902e-08
  0.00000000e+00  0.00000000e+00  0.00000000e+00  3.23267228e-06]","[[ 0.00018869  0.00465621]
 [-0.00012294  0.00307138]]",[],0.0,0.0
1787153055.488329,1.4011672583705874,0.7852711314780797,2.2194318391744225,"[ 9.90613055e-06 -5.18412522e-08  0.00000000e+00  0.00000000e+00
  0.00000000e+00 -7.33717577e-07 -5.18412522e-08  7.48616282e-06
  0.00000000e+00  0.00000000e+00  0.00000000e+00 -2.57752902e-08
  0.00000000e+00  0.00000000e+00  0.00000000e+00  0.00000000e+00
  0.00000000e+00  0.00000000e+00  0.00000000e+00  0.00000000e+00
  0.00000000e+00  0.00000000e+00  0.00000000e+00  0.00000000e+00
  0.00000000e+00  0.00000000e+00  0.00000000e+00  0.00000000e+00
  0.00000000e+00  0.00000000e+00 -7.33717577e-07 -2.57752902e-08
  0.00000000e+00  0.00000000e+00  0.00000000e+00  3.23267228e-06]","[[ 0.00018869  0.00465621]
 [-0.00012294  0.00307138]]",[],0.0,0.0
1787153055.5389102,1.4011672583705874,0.7852711314780797,2.2194318391744225,"[ 9.90613055e-06 -5.18412522e-08  0.00000000e+00  0.00000000e+00
  0.00000000e+00 -7.33717577e-07 -5.18412522e-08  7.48616282e-06
  0.00000000e+00  0.00000000e+00  0.00000000e+00 -2.57752902e-08
  0.00000000e+00  0.00000000e+00  0.00000000e+00  0.00000000e+00
  0.00000000e+00  0.00000000e+00  0.00000000e+00  0.00000000e+00
  0.00000000e+00  0.00000000e+00  0.00000000e+00  0.00000000e+00
  0.00000000e+00  0.00000000e+00  0.00000000e+00  0.00000000e+00
  0.00000000e+00  0.00000000e+00 -7.33717577e-07 -2.57752902e-08
  0.00000000e+00  0.00000000e+00  0.00000000e+00  3.23267228e-06]","[[ 0.00018869  0.00465621]
 [-0.00012294  0.00307138]]",[],0.0,0.0
1787153055.5889506,1.4011672583705874,0.7852711314780797,2.2194318391744225,"[ 9.90613055e-06 -5.18412522e-08  0.00000000e+00  0.00000000e+00
  0.00000000e+00 -7.33717577e-07 -5.18412522e-08  7.48616282e-06
  0.00000000e+00  0.00000000e+00  0.00000000e+00 -2.57752902e-08
  0.00000000e+00  0.00000000e+00  0.00000000e+00  0.00000000e+00
  0.00000000e+00  0.00000000e+00  0.00000000e+00  0.00000000e+00
  0.00000000e+00  0.00000000e+00  0.00000000e+00  0.00000000e+00
  0.00000000e+00  0.00000000e+00  0.00000000e+00  0.00000000e+00
  0.00000000e+00  0.00000000e+00 -7.33717577e-07 -2.57752902e-08
  0.00000000e+00  0.00000000e+00  0.00000000e+00  3.23267228e-06]","[[ 0.00018869  0.00465621]
 [-0.00012294  0.00307138]]",[],0.0,0.0
1787153055.6402607,1.4011672583705874,0.7852711314780797,2.2194318391744225,"[ 9.90613055e-06 -5.18412522e-08  0.00000000e+00  0.00000000e+00
  0.00000000e+00 -7.33717577e-07 -5.18412522e-08  7.48616282e-06
  0.00000000e+00  0.00000000e+00  0.00000000e+00 -2.57752902e-08
  0.00000000e+00  0.00000000e+00  0.00000000e+00  0.00000000e+00
  0.00000000e+00  0.00000000e+00  0.00000000e+00  0.00000000e+00
  0.00000000e+00  0.00000000e+00  0.00000000e+00  0.00000000e+00
  0.00000000e+00  0.00000000e+00  0.00000000e+00  0.00000000e+00
  0.00000000e+00  0.00000000e+00 -7.33717577e-07 -2.57752902e-08
  0.00000000e+00  0.00000000e+00  0.00000000e+00  3.23267228e-06]","[[ 0.00018869  0.00465621]
 [-0.00012294  0.00307138]]",[],0.0,0.0
1787153055.6886563,1.4011672583705874,0.7852711314780797,2.2194318391744225,"[ 9.90613055e-06 -5.18412522e-08  0.00000000e+00  0.00000000e+00
  0.00000000e+00 -7.33717577e-07 -5.18412522e-08  7.48616282e-06
  0.00000000e+00  0.00000000e+00  0.00000000e+00 -2.57752902e-08
  0.00000000e+00  0.00000000e+00  0.00000000e+00  0.00000000e+00
  0.00000000e+00  0.00000000e+00  0.00000000e+00  0.00000000e+00
  0.00000000e+00  0.00000000e+00  0.00000000e+00  0.00000000e+00
  0.00000000e+00  0.00000000e+00  0.00000000e+00  0.00000000e+00
  0.00000000e+00  0.00000000e+00 -7.33717577e-07 -2.57752902e-08
  0.00000000e+00  0.00000000e+00  0.00000000e+00  3.23267228e-06]","[[ 0.00018869  0.00465621]
 [-0.00012294  0.00307138]]",[],0.0,0.0
1787153055.742933,1.4011672583705874,0.7852711314780797,2.2194318391744225,"[ 9.90613055e-06 -5.18412522e-08  0.00000000e+00  0.00000000e+00
  0.00000000e+00 -7.33717577e-07 -5.18412522e-08  7.48616282e-06
  0.00000000e+00  0.00000000e+00  0.00000000e+00 -2.57752902e-08
  0.00000000e+00  0.00000000e+00  0.00000000e+00  0.00000000e+00
  0.00000000e+00  0.00000000e+00  0.00000000e+00  0.00000000e+00
  0.00000000e+00  0.00000000e+00  0.00000000e+00  0.00000000e+00
  0.00000000e+00  0.00000000e+00  0.00000000e+00  0.00000000e+00
  0.00000000e+00  0.00000000e+00 -7.33717577e-07 -2.57752902e-08
  0.00000000e+00  0.00000000e+00  0.00000000e+00  3.23267228e-06]","[[ 0.00018869  0.00465621]
 [-0.00012294  0.00307138]]",[],0.0,0.0
1787153055.7890654,1.4011672583705874,0.7852711314780797,2.2194318391744225,"[ 9.90613055e-06 -5.18412522e-08  0.00000000e+00  0.00000000e+00
  0.00000000e+00 -7.33717577e-07 -5.18412522e-08  7.48616282e-06
  0.00000000e+00  0.00000000e+00  0.00000000e+00 -2.57752902e-08
  0.00000000e+00  0.00000000e+00  0.00000000e+00  0.00000000e+00
  0.00000000e+00  0.00000000e+00  0.00000000e+00  0.00000000e+00
  0.00000000e+00  0.00000000e+00  0.00000000e+00  0.00000000e+00
  0.00000000e+00  0.00000000e+00  0.00000000e+00  0.00000000e+00
  0.00000000e+00  0.00000000e+00 -7.33717577e-07 -2.57752902e-08
  0.00000000e+00  0.00000000e+00  0.00000000e+00  3.23267228e-06]","[[ 0.00018869  0.00465621]
 [-0.00012294  0.00307138]]",[],0.0,0.0
1787153055.8416464,1.4011672583705874,0.7852711314780797,2.2194318391744225,"[ 9.90613055e-06 -5.18412522e-08  0.00000000e+00  0.00000000e+00
  0.00000000e+00 -7.33717577e-07 -5.18412522e-08  7.48616282e-06
  0.00000000e+00  0.00000000e+00  0.00000000e+00 -2.57752902e-08
  0.00000000e+00  0.00000000e+00  0.00000000e+00  0.00000000e+00
  0.00000000e+00  0.00000000e+00  0.00000000e+00  0.00000000e+00
  0.00000000e+00  0.00000000e+00  0.00000000e+00  0.00000000e+00
  0.00000000e+00  0.00000000e+00  0.00000000e+00  0.00000000e+00
  0.00000000e+00  0.00000000e+00 -7.33717577e-07 -2.57752902e-08
  0.00000000e+00  0.00000000e+00  0.00000000e+00  3.23267228e-06]","[[ 0.00018869  0.00465621]
 [-0.00012294  0.00307138]]",[],0.0,0.0
1787153055.8906991,1.4011672583705874,0.7852711314780797,2.2194318391744225,"[ 9.90613055e-06 -5.18412522e-08  0.00000000e+00  0.00000000e+00
  0.00000000e+00 -7.33717577e-07 -5.18412522e-08  7.48616282e-06
  0.00000000e+00  0.00000000e+00  0.00000000e+00 -2.57752902e-08
  0.00000000e+00  0.00000000e+00  0.00000000e+00  0.00000000e+00
  0.00000000e+00  0.00000000e+00  0.00000000e+00  0.00000000e+00
  0.00000000e+00  0.00000000e+00  0.00000000e+00  0.00000000e+00
  0.00000000e+00  0.00000000e+00  0.00000000e+00  0.00000000e+00
  0.00000000e+00  0.00000000e+00 -7.33717577e-07 -2.57752902e-08
  0.00000000e+00  0.00000000e+00  0.00000000e+00  3.23267228e-06]","[[ 0.00018869  0.00465621]
 [-0.00012294  0.00307138]]",[],0.0,0.0
1787153055.9403687,1.4025165472998837,0.7777229980022127,2.240424085645193,"[ 8.70066479e-06 -8.87379669e-08  0.00000000e+00  0.00000000e+00
  0.00000000e+00 -6.42868675e-07 -8.87379669e-08  6.69403690e-06
  0.00000000e+00  0.00000000e+00  0.00000000e+00 -1.08753823e-08
  0.00000000e+00  0.00000000e+00  0.00000000e+00  0.00000000e+00
  0.00000000e+00  0.00000000e+00  0.00000000e+00  0.00000000e+00
  0.00000000e+00  0.00000000e+00  0.00000000e+00  0.00000000e+00
  0.00000000e+00  0.00000000e+00  0.00000000e+00  0.00000000e+00
  0.00000000e+00  0.00000000e+00 -6.42868675e-07 -1.08753823e-08
  0.00000000e+00  0.00000000e+00  0.00000000e+00  3.46858406e-06]","[[ 0.00016626  0.00406934]
 [-0.00011089  0.00270434]]",[],0.0,0.0
1787153055.9883943,1.4025165472998837,0.7777229980022127,2.240424085645193,"[ 8.70066479e-06 -8.87379669e-08  0.00000000e+00  0.00000000e+00
  0.00000000e+00 -6.42868675e-07 -8.87379669e-08  6.69403690e-06
  0.00000000e+00  0.00000000e+00  0.00000000e+00 -1.08753823e-08
  0.00000000e+00  0.00000000e+00  0.00000000e+00  0.00000000e+00
  0.00000000e+00  0.00000000e+00  0.00000000e+00  0.00000000e+00
  0.00000000e+00  0.00000000e+00  0.00000000e+00  0.00000000e+00
  0.00000000e+00  0.00000000e+00  0.00000000e+00  0.00000000e+00
  0.00000000e+00  0.00000000e+00 -6.42868675e-07 -1.08753823e-08
  0.00000000e+00  0.00000000e+00  0.00000000e+00  3.46858406e-06]","[[ 0.00016626  0.00406934]
 [-0.00011089  0.00270434]]",[],0.0,0.0
1787153056.0435886,1.4025165472998837,0.7777229980022127,2.240424085645193,"[ 8.70066479e-06 -8.87379669e-08  0.00000000e+00  0.00000000e+00
  0.00000000e+00 -6.42868675e-07 -8.87379669e-08  6.69403690e-06
  0.00000000e+00  0.00000000e+00  0.00000000e+00 -1.08753823e-08
  0.00000000e+00  0.00000000e+00  0.00000000e+00  0.00000000e+00
  0.00000000e+00  0.00000000e+00  0.00000000e+00  0.00000000e+00
  0.00000000e+00  0.00000000e+00  0.00000000e+00  0.00000000e+00
  0.00000000e+00  0.00000000e+00  0.00000000e+00  0.00000000e+00
  0.00000000e+00  0.00000000e+00 -6.42868675e-07 -1.08753823e-08
  0.00000000e+00  0.00000000e+00  0.00000000e+00  3.46858406e-06]","[[ 0.00016626  0.00406934]
 [-0.00011089  0.00270434]]",[],0.0,0.0
1787153056.1011977,1.4025165472998837,0.7777229980022127,2.240424085645193,"[ 8.70066479e-06 -8.87379669e-08  0.00000000e+00  0.00000000e+00
  0.00000000e+00 -6.42868675e-07 -8.87379669e-08  6.69403690e-06
  0.00000000e+00  0.00000000e+00  0.00000000e+00 -1.08753823e-08
  0.00000000e+00  0.00000000e+00  0.00000000e+00  0.00000000e+00
  0.00000000e+00  0.00000000e+00  0.00000000e+00  0.00000000e+00
  0.00000000e+00  0.00000000e+00  0.00000000e+00  0.00000000e+00
  0.00000000e+00  0.00000000e+00  0.00000000e+00  0.00000000e+00
  0.00000000e+00  0.00000000e+00 -6.42868675e-07 -1.08753823e-08
  0.00000000e+00  0.00000000e+00  0.00000000e+00  3.46858406e-06]","[[ 0.00016626  0.00406934]
 [-0.00011089  0.00270434]]",[],0.0,0.0
1787153056.1459823,1.4025165472998837,0.7777229980022127,2.240424085645193,"[ 8.70066479e-06 -8.87379669e-08  0.00000000e+00  0.00000000e+00
  0.00000000e+00 -6.42868675e-07 -8.87379669e-08  6.69403690e-06
  0.00000000e+00  0.00000000e+00  0.00000000e+00 -1.08753823e-08
  0.00000000e+00  0.00000000e+00  0.00000000e+00  0.00000000e+00
  0.00000000e+00  0.00000000e+00  0.00000000e+00  0.00000000e+00
  0.00000000e+00  0.00000000e+00  0.00000000e+00  0.00000000e+00
  0.00000000e+00  0.00000000e+00  0.00000000e+00  0.00000000e+00
  0.00000000e+00  0.00000000e+00 -6.42868675e-07 -1.08753823e-08
  0.00000000e+00  0.00000000e+00  0.00000000e+00  3.46858406e-06]","[[ 0.00016626  0.00406934]
 [-0.00011089  0.00270434]]",[],0.0,0.0
1787153056.1977472,1.4025165472998837,0.7777229980022127,2.240424085645193,"[ 8.70066479e-06 -8.87379669e-08  0.00000000e+00  0.00000000e+00
  0.00000000e+00 -6.42868675e-07 -8.87379669e-08  6.69403690e-06
  0.00000000e+00  0.00000000e+00  0.00000000e+00 -1.08753823e-08
  0.00000000e+00  0.00000000e+00  0.00000000e+00  0.00000000e+00
  0.00000000e+00  0.00000000e+00  0.00000000e+00  0.00000000e+00
  0.00000000e+00  0.00000000e+00  0.00000000e+00  0.00000000e+00
  0.00000000e+00  0.00000000e+00  0.00000000e+00  0.00000000e+00
  0.00000000e+00  0.00000000e+00 -6.42868675e-07 -1.08753823e-08
  0.00000000e+00  0.00000000e+00  0.00000000e+00  3.46858406e-06]","[[ 0.00016626  0.00406934]
 [-0.00011089  0.00270434]]",[],0.0,0.0
1787153056.258878,1.4025165472998837,0.7777229980022127,2.240424085645193,"[ 8.70066479e-06 -8.87379669e-08  0.00000000e+00  0.00000000e+00
  0.00000000e+00 -6.42868675e-07 -8.87379669e-08  6.69403690e-06
  0.00000000e+00  0.00000000e+00  0.00000000e+00 -1.08753823e-08
  0.00000000e+00  0.00000000e+00  0.00000000e+00  0.00000000e+00
  0.00000000e+00  0.00000000e+00  0.00000000e+00  0.00000000e+00
  0.00000000e+00  0.00000000e+00  0.00000000e+00  0.00000000e+00
  0.00000000e+00  0.00000000e+00  0.00000000e+00  0.00000000e+00
  0.00000000e+00  0.00000000e+00 -6.42868675e-07 -1.08753823e-08
  0.00000000e+00  0.00000000e+00  0.00000000e+00  3.46858406e-06]","[[ 0.00016626  0.00406934]
 [-0.00011089  0.00270434]]",[],0.0,0.0
1787153056.304716,1.4025165472998837,0.7777229980022127,2.240424085645193,"[ 8.70066479e-06 -8.87379669e-08  0.00000000e+00  0.00000000e+00
  0.00000000e+00 -6.42868675e-07 -8.87379669e-08  6.69403690e-06
  0.00000000e+00  0.00000000e+00  0.00000000e+00 -1.08753823e-08
  0.00000000e+00  0.00000000e+00  0.00000000e+00  0.00000000e+00
  0.00000000e+00  0.00000000e+00  0.00000000e+00  0.00000000e+00
  0.00000000e+00  0.00000000e+00  0.00000000e+00  0.00000000e+00
  0.00000000e+00  0.00000000e+00  0.00000000e+00  0.00000000e+00
  0.00000000e+00  0.00000000e+00 -6.42868675e-07 -1.08753823e-08
  0.00000000e+00  0.00000000e+00  0.00000000e+00  3.46858406e-06]","[[ 0.00016626  0.00406934]
 [-0.00011089  0.00270434]]",[],0.0,0.0
1787153056.3576965,1.4025165472998837,0.7777229980022127,2.240424085645193,"[ 8.70066479e-06 -8.87379669e-08  0.00000000e+00  0.00000000e+00
  0.00000000e+00 -6.42868675e-07 -8.87379669e-08  6.69403690e-06
  0.00000000e+00  0.00000000e+00  0.00000000e+00 -1.08753823e-08
  0.00000000e+00  0.00000000e+00  0.00000000e+00  0.00000000e+00
  0.00000000e+00  0.00000000e+00  0.00000000e+00  0.00000000e+00
  0.00000000e+00  0.00000000e+00  0.00000000e+00  0.00000000e+00
  0.00000000e+00  0.00000000e+00  0.00000000e+00  0.00000000e+00
  0.00000000e+00  0.00000000e+00 -6.42868675e-07 -1.08753823e-08
  0.00000000e+00  0.00000000e+00  0.00000000e+00  3.46858406e-06]","[[ 0.00016626  0.00406934]
 [-0.00011089  0.00270434]]",[],0.0,0.0
1787153056.4038467,1.4025165472998837,0.7777229980022127,2.240424085645193,"[ 8.70066479e-06 -8.87379669e-08  0.00000000e+00  0.00000000e+00
  0.00000000e+00 -6.42868675e-07 -8.87379669e-08  6.69403690e-06
  0.00000000e+00  0.00000000e+00  0.00000000e+00 -1.08753823e-08
  0.00000000e+00  0.00000000e+00  0.00000000e+00  0.00000000e+00
  0.00000000e+00  0.00000000e+00  0.00000000e+00  0.00000000e+00
  0.00000000e+00  0.00000000e+00  0.00000000e+00  0.00000000e+00
  0.00000000e+00  0.00000000e+00  0.00000000e+00  0.00000000e+00
  0.00000000e+00  0.00000000e+00 -6.42868675e-07 -1.08753823e-08
  0.00000000e+00  0.00000000e+00  0.00000000e+00  3.46858406e-06]","[[ 0.00016626  0.00406934]
 [-0.00011089  0.00270434]]",[],0.0,0.0
1787153056.4481654,1.4025165472998837,0.7777229980022127,2.240424085645193,"[ 8.70066479e-06 -8.87379669e-08  0.00000000e+00  0.00000000e+00
  0.00000000e+00 -6.42868675e-07 -8.87379669e-08  6.69403690e-06
  0.00000000e+00  0.00000000e+00  0.00000000e+00 -1.08753823e-08
  0.00000000e+00  0.00000000e+00  0.00000000e+00  0.00000000e+00
  0.00000000e+00  0.00000000e+00  0.00000000e+00  0.00000000e+00
  0.00000000e+00  0.00000000e+00  0.00000000e+00  0.00000000e+00
  0.00000000e+00  0.00000000e+00  0.00000000e+00  0.00000000e+00
  0.00000000e+00  0.00000000e+00 -6.42868675e-07 -1.08753823e-08
  0.00000000e+00  0.00000000e+00  0.00000000e+00  3.46858406e-06]","[[ 0.00016626  0.00406934]
 [-0.00011089  0.00270434]]",[],0.0,0.0
1787153056.4893713,1.4025165472998837,0.7777229980022127,2.240424085645193,"[ 8.70066479e-06 -8.87379669e-08  0.00000000e+00  0.00000000e+00
  0.00000000e+00 -6.42868675e-07 -8.87379669e-08  6.69403690e-06
  0.00000000e+00  0.00000000e+00  0.00000000e+00 -1.08753823e-08
  0.00000000e+00  0.00000000e+00  0.00000000e+00  0.00000000e+00
  0.00000000e+00  0.00000000e+00  0.00000000e+00  0.00000000e+00
  0.00000000e+00  0.00000000e+00  0.00000000e+00  0.00000000e+00
  0.00000000e+00  0.00000000e+00  0.00000000e+00  0.00000000e+00
  0.00000000e+00  0.00000000e+00 -6.42868675e-07 -1.08753823e-08
  0.00000000e+00  0.00000000e+00  0.00000000e+00  3.46858406e-06]","[[ 0.00016626  0.00406934]
 [-0.00011089  0.00270434]]",[],0.0,0.0
1787153056.5427458,1.4025165472998837,0.7777229980022127,2.240424085645193,"[ 8.70066479e-06 -8.87379669e-08  0.00000000e+00  0.00000000e+00
  0.00000000e+00 -6.42868675e-07 -8.87379669e-08  6.69403690e-06
  0.00000000e+00  0.00000000e+00  0.00000000e+00 -1.08753823e-08
  0.00000000e+00  0.00000000e+00  0.00000000e+00  0.00000000e+00
  0.00000000e+00  0.00000000e+00  0.00000000e+00  0.00000000e+00
  0.00000000e+00  0.00000000e+00  0.00000000e+00  0.00000000e+00
  0.00000000e+00  0.00000000e+00  0.00000000e+00  0.00000000e+00
  0.00000000e+00  0.00000000e+00 -6.42868675e-07 -1.08753823e-08
  0.00000000e+00  0.00000000e+00  0.00000000e+00  3.46858406e-06]","[[ 0.00016626  0.00406934]
 [-0.00011089  0.00270434]]",[],0.0,0.0
1787153056.5903516,1.4025165472998837,0.7777229980022127,2.240424085645193,"[ 8.70066479e-06 -8.87379669e-08  0.00000000e+00  0.00000000e+00
  0.00000000e+00 -6.42868675e-07 -8.87379669e-08  6.69403690e-06
  0.00000000e+00  0.00000000e+00  0.00000000e+00 -1.08753823e-08
  0.00000000e+00  0.00000000e+00  0.00000000e+00  0.00000000e+00
  0.00000000e+00  0.00000000e+00  0.00000000e+00  0.00000000e+00
  0.00000000e+00  0.00000000e+00  0.00000000e+00  0.00000000e+00
  0.00000000e+00  0.00000000e+00  0.00000000e+00  0.00000000e+00
  0.00000000e+00  0.00000000e+00 -6.42868675e-07 -1.08753823e-08
  0.00000000e+00  0.00000000e+00  0.00000000e+00  3.46858406e-06]","[[ 0.00016626  0.00406934]
 [-0.00011089  0.00270434]]",[],0.0,0.0
1787153056.6413527,1.4025165472998837,0.7777229980022127,2.240424085645193,"[ 8.70066479e-06 -8.87379669e-08  0.00000000e+00  0.00000000e+00
  0.00000000e+00 -6.42868675e-07 -8.87379669e-08  6.69403690e-06
  0.00000000e+00  0.00000000e+00  0.00000000e+00 -1.08753823e-08
  0.00000000e+00  0.00000000e+00  0.00000000e+00  0.00000000e+00
  0.00000000e+00  0.00000000e+00  0.00000000e+00  0.00000000e+00
  0.00000000e+00  0.00000000e+00  0.00000000e+00  0.00000000e+00
  0.00000000e+00  0.00000000e+00  0.00000000e+00  0.00000000e+00
  0.00000000e+00  0.00000000e+00 -6.42868675e-07 -1.08753823e-08
  0.00000000e+00  0.00000000e+00  0.00000000e+00  3.46858406e-06]","[[ 0.00016626  0.00406934]
 [-0.00011089  0.00270434]]",[],0.0,0.0
1787153056.6892138,1.4025165472998837,0.7777229980022127,2.240424085645193,"[ 8.70066479e-06 -8.87379669e-08  0.00000000e+00  0.00000000e+00
  0.00000000e+00 -6.42868675e-07 -8.87379669e-08  6.69403690e-06
  0.00000000e+00  0.00000000e+00  0.00000000e+00 -1.08753823e-08
  0.00000000e+00  0.00000000e+00  0.00000000e+00  0.00000000e+00
  0.00000000e+00  0.00000000e+00  0.00000000e+00  0.00000000e+00
  0.00000000e+00  0.00000000e+00  0.00000000e+00  0.00000000e+00
  0.00000000e+00  0.00000000e+00  0.00000000e+00  0.00000000e+00
  0.00000000e+00  0.00000000e+00 -6.42868675e-07 -1.08753823e-08
  0.00000000e+00  0.00000000e+00  0.00000000e+00  3.46858406e-06]","[[ 0.00016626  0.00406934]
 [-0.00011089  0.00270434]]",[],0.0,0.0
1787153056.7508438,1.4025165472998837,0.7777229980022127,2.240424085645193,"[ 8.70066479e-06 -8.87379669e-08  0.00000000e+00  0.00000000e+00
  0.00000000e+00 -6.42868675e-07 -8.87379669e-08  6.69403690e-06
  0.00000000e+00  0.00000000e+00  0.00000000e+00 -1.08753823e-08
  0.00000000e+00  0.00000000e+00  0.00000000e+00  0.00000000e+00
  0.00000000e+00  0.00000000e+00  0.00000000e+00  0.00000000e+00
  0.00000000e+00  0.00000000e+00  0.00000000e+00  0.00000000e+00
  0.00000000e+00  0.00000000e+00  0.00000000e+00  0.00000000e+00
  0.00000000e+00  0.00000000e+00 -6.42868675e-07 -1.08753823e-08
  0.00000000e+00  0.00000000e+00  0.00000000e+00  3.46858406e-06]","[[ 0.00016626  0.00406934]
 [-0.00011089  0.00270434]]",[],0.0,0.0
1787153056.7949328,1.403347687098474,0.7696073667547907,2.254292559721514,"[ 7.69548210e-06 -1.28913180e-07  0.00000000e+00  0.00000000e+00
  0.00000000e+00 -5.30992394e-07 -1.28913180e-07  6.06082849e-06
  0.00000000e+00  0.00000000e+00  0.00000000e+00  1.16642646e-08
  0.00000000e+00  0.00000000e+00  0.00000000e+00  0.00000000e+00
  0.00000000e+00  0.00000000e+00  0.00000000e+00  0.00000000e+00
  0.00000000e+00  0.00000000e+00  0.00000000e+00  0.00000000e+00
  0.00000000e+00  0.00000000e+00  0.00000000e+00  0.00000000e+00
  0.00000000e+00  0.00000000e+00 -5.30992394e-07  1.16642646e-08
  0.00000000e+00  0.00000000e+00  0.00000000e+00  3.37589050e-06]","[[ 0.00014768  0.00351641]
 [-0.0001015   0.00238793]]",[],0.0,0.0
1787153056.8478374,1.403347687098474,0.7696073667547907,2.254292559721514,"[ 7.69548210e-06 -1.28913180e-07  0.00000000e+00  0.00000000e+00
  0.00000000e+00 -5.30992394e-07 -1.28913180e-07  6.06082849e-06
  0.00000000e+00  0.00000000e+00  0.00000000e+00  1.16642646e-08
  0.00000000e+00  0.00000000e+00  0.00000000e+00  0.00000000e+00
  0.00000000e+00  0.00000000e+00  0.00000000e+00  0.00000000e+00
  0.00000000e+00  0.00000000e+00  0.00000000e+00  0.00000000e+00
  0.00000000e+00  0.00000000e+00  0.00000000e+00  0.00000000e+00
  0.00000000e+00  0.00000000e+00 -5.30992394e-07  1.16642646e-08
  0.00000000e+00  0.00000000e+00  0.00000000e+00  3.37589050e-06]","[[ 0.00014768  0.00351641]
 [-0.0001015   0.00238793]]",[],0.0,0.0
1787153056.8917933,1.403347687098474,0.7696073667547907,2.254292559721514,"[ 7.69548210e-06 -1.28913180e-07  0.00000000e+00  0.00000000e+00
  0.00000000e+00 -5.30992394e-07 -1.28913180e-07  6.06082849e-06
  0.00000000e+00  0.00000000e+00  0.00000000e+00  1.16642646e-08
  0.00000000e+00  0.00000000e+00  0.00000000e+00  0.00000000e+00
  0.00000000e+00  0.00000000e+00  0.00000000e+00  0.00000000e+00
  0.00000000e+00  0.00000000e+00  0.00000000e+00  0.00000000e+00
  0.00000000e+00  0.00000000e+00  0.00000000e+00  0.00000000e+00
  0.00000000e+00  0.00000000e+00 -5.30992394e-07  1.16642646e-08
  0.00000000e+00  0.00000000e+00  0.00000000e+00  3.37589050e-06]","[[ 0.00014768  0.00351641]
 [-0.0001015   0.00238793]]",[],0.0,0.0
1787153056.9494188,1.403347687098474,0.7696073667547907,2.254292559721514,"[ 7.69548210e-06 -1.28913180e-07  0.00000000e+00  0.00000000e+00
  0.00000000e+00 -5.30992394e-07 -1.28913180e-07  6.06082849e-06
  0.00000000e+00  0.00000000e+00  0.00000000e+00  1.16642646e-08
  0.00000000e+00  0.00000000e+00  0.00000000e+00  0.00000000e+00
  0.00000000e+00  0.00000000e+00  0.00000000e+00  0.00000000e+00
  0.00000000e+00  0.00000000e+00  0.00000000e+00  0.00000000e+00
  0.00000000e+00  0.00000000e+00  0.00000000e+00  0.00000000e+00
  0.00000000e+00  0.00000000e+00 -5.30992394e-07  1.16642646e-08
  0.00000000e+00  0.00000000e+00  0.00000000e+00  3.37589050e-06]","[[ 0.00014768  0.00351641]
 [-0.0001015   0.00238793]]",[],0.0,0.0
1787153056.9962656,1.403347687098474,0.7696073667547907,2.254292559721514,"[ 7.69548210e-06 -1.28913180e-07  0.00000000e+00  0.00000000e+00
  0.00000000e+00 -5.30992394e-07 -1.28913180e-07  6.06082849e-06
  0.00000000e+00  0.00000000e+00  0.00000000e+00  1.16642646e-08
  0.00000000e+00  0.00000000e+00  0.00000000e+00  0.00000000e+00
  0.00000000e+00  0.00000000e+00  0.00000000e+00  0.00000000e+00
  0.00000000e+00  0.00000000e+00  0.00000000e+00  0.00000000e+00
  0.00000000e+00  0.00000000e+00  0.00000000e+00  0.00000000e+00
  0.00000000e+00  0.00000000e+00 -5.30992394e-07  1.16642646e-08
  0.00000000e+00  0.00000000e+00  0.00000000e+00  3.37589050e-06]","[[ 0.00014768  0.00351641]
 [-0.0001015   0.00238793]]",[],0.0,0.0
1787153057.045697,1.403347687098474,0.7696073667547907,2.254292559721514,"[ 7.69548210e-06 -1.28913180e-07  0.00000000e+00  0.00000000e+00
  0.00000000e+00 -5.30992394e-07 -1.28913180e-07  6.06082849e-06
  0.00000000e+00  0.00000000e+00  0.00000000e+00  1.16642646e-08
  0.00000000e+00  0.00000000e+00  0.00000000e+00  0.00000000e+00
  0.00000000e+00  0.00000000e+00  0.00000000e+00  0.00000000e+00
  0.00000000e+00  0.00000000e+00  0.00000000e+00  0.00000000e+00
  0.00000000e+00  0.00000000e+00  0.00000000e+00  0.00000000e+00
  0.00000000e+00  0.00000000e+00 -5.30992394e-07  1.16642646e-08
  0.00000000e+00  0.00000000e+00  0.00000000e+00  3.37589050e-06]","[[ 0.00014768  0.00351641]
 [-0.0001015   0.00238793]]",[],0.0,0.0
1787153057.0980055,1.403347687098474,0.7696073667547907,2.254292559721514,"[ 7.69548210e-06 -1.28913180e-07  0.00000000e+00  0.00000000e+00
  0.00000000e+00 -5.30992394e-07 -1.28913180e-07  6.06082849e-06
  0.00000000e+00  0.00000000e+00  0.00000000e+00  1.16642646e-08
  0.00000000e+00  0.00000000e+00  0.00000000e+00  0.00000000e+00
  0.00000000e+00  0.00000000e+00  0.00000000e+00  0.00000000e+00
  0.00000000e+00  0.00000000e+00  0.00000000e+00  0.00000000e+00
  0.00000000e+00  0.00000000e+00  0.00000000e+00  0.00000000e+00
  0.00000000e+00  0.00000000e+00 -5.30992394e-07  1.16642646e-08
  0.00000000e+00  0.00000000e+00  0.00000000e+00  3.37589050e-06]","[[ 0.00014768  0.00351641]
 [-0.0001015   0.00238793]]",[],0.0,0.0
1787153057.1473277,1.403347687098474,0.7696073667547907,2.254292559721514,"[ 7.69548210e-06 -1.28913180e-07  0.00000000e+00  0.00000000e+00
  0.00000000e+00 -5.30992394e-07 -1.28913180e-07  6.06082849e-06
  0.00000000e+00  0.00000000e+00  0.00000000e+00  1.16642646e-08
  0.00000000e+00  0.00000000e+00  0.00000000e+00  0.00000000e+00
  0.00000000e+00  0.00000000e+00  0.00000000e+00  0.00000000e+00
  0.00000000e+00  0.00000000e+00  0.00000000e+00  0.00000000e+00
  0.00000000e+00  0.00000000e+00  0.00000000e+00  0.00000000e+00
  0.00000000e+00  0.00000000e+00 -5.30992394e-07  1.16642646e-08
  0.00000000e+00  0.00000000e+00  0.00000000e+00  3.37589050e-06]","[[ 0.00014768  0.00351641]
 [-0.0001015   0.00238793]]",[],0.0,0.0
1787153057.2020292,1.403347687098474,0.7696073667547907,2.254292559721514,"[ 7.69548210e-06 -1.28913180e-07  0.00000000e+00  0.00000000e+00
  0.00000000e+00 -5.30992394e-07 -1.28913180e-07  6.06082849e-06
  0.00000000e+00  0.00000000e+00  0.00000000e+00  1.16642646e-08
  0.00000000e+00  0.00000000e+00  0.00000000e+00  0.00000000e+00
  0.00000000e+00  0.00000000e+00  0.00000000e+00  0.00000000e+00
  0.00000000e+00  0.00000000e+00  0.00000000e+00  0.00000000e+00
  0.00000000e+00  0.00000000e+00  0.00000000e+00  0.00000000e+00
  0.00000000e+00  0.00000000e+00 -5.30992394e-07  1.16642646e-08
  0.00000000e+00  0.00000000e+00  0.00000000e+00  3.37589050e-06]","[[ 0.00014768  0.00351641]
 [-0.0001015   0.00238793]]",[],0.0,0.0
1787153057.2450352,1.403347687098474,0.7696073667547907,2.254292559721514,"[ 7.69548210e-06 -1.28913180e-07  0.00000000e+00  0.00000000e+00
  0.00000000e+00 -5.30992394e-07 -1.28913180e-07  6.06082849e-06
  0.00000000e+00  0.00000000e+00  0.00000000e+00  1.16642646e-08
  0.00000000e+00  0.00000000e+00  0.00000000e+00  0.00000000e+00
  0.00000000e+00  0.00000000e+00  0.00000000e+00  0.00000000e+00
  0.00000000e+00  0.00000000e+00  0.00000000e+00  0.00000000e+00
  0.00000000e+00  0.00000000e+00  0.00000000e+00  0.00000000e+00
  0.00000000e+00  0.00000000e+00 -5.30992394e-07  1.16642646e-08
  0.00000000e+00  0.00000000e+00  0.00000000e+00  3.37589050e-06]","[[ 0.00014768  0.00351641]
 [-0.0001015   0.00238793]]",[],0.0,0.0
1787153057.299936,1.403347687098474,0.7696073667547907,2.254292559721514,"[ 7.69548210e-06 -1.28913180e-07  0.00000000e+00  0.00000000e+00
  0.00000000e+00 -5.30992394e-07 -1.28913180e-07  6.06082849e-06
  0.00000000e+00  0.00000000e+00  0.00000000e+00  1.16642646e-08
  0.00000000e+00  0.00000000e+00  0.00000000e+00  0.00000000e+00
  0.00000000e+00  0.00000000e+00  0.00000000e+00  0.00000000e+00
  0.00000000e+00  0.00000000e+00  0.00000000e+00  0.00000000e+00
  0.00000000e+00  0.00000000e+00  0.00000000e+00  0.00000000e+00
  0.00000000e+00  0.00000000e+00 -5.30992394e-07  1.16642646e-08
  0.00000000e+00  0.00000000e+00  0.00000000e+00  3.37589050e-06]","[[ 0.00014768  0.00351641]
 [-0.0001015   0.00238793]]",[],0.0,0.0
1787153057.342873,1.403347687098474,0.7696073667547907,2.254292559721514,"[ 7.69548210e-06 -1.28913180e-07  0.00000000e+00  0.00000000e+00
  0.00000000e+00 -5.30992394e-07 -1.28913180e-07  6.06082849e-06
  0.00000000e+00  0.00000000e+00  0.00000000e+00  1.16642646e-08
  0.00000000e+00  0.00000000e+00  0.00000000e+00  0.00000000e+00
  0.00000000e+00  0.00000000e+00  0.00000000e+00  0.00000000e+00
  0.00000000e+00  0.00000000e+00  0.00000000e+00  0.00000000e+00
  0.00000000e+00  0.00000000e+00  0.00000000e+00  0.00000000e+00
  0.00000000e+00  0.00000000e+00 -5.30992394e-07  1.16642646e-08
  0.00000000e+00  0.00000000e+00  0.00000000e+00  3.37589050e-06]","[[ 0.00014768  0.00351641]
 [-0.0001015   0.00238793]]",[],0.0,0.0
1787153057.4531856,1.403347687098474,0.7696073667547907,2.254292559721514,"[ 7.69548210e-06 -1.28913180e-07  0.00000000e+00  0.00000000e+00
  0.00000000e+00 -5.30992394e-07 -1.28913180e-07  6.06082849e-06
  0.00000000e+00  0.00000000e+00  0.00000000e+00  1.16642646e-08
  0.00000000e+00  0.00000000e+00  0.00000000e+00  0.00000000e+00
  0.00000000e+00  0.00000000e+00  0.00000000e+00  0.00000000e+00
  0.00000000e+00  0.00000000e+00  0.00000000e+00  0.00000000e+00
  0.00000000e+00  0.00000000e+00  0.00000000e+00  0.00000000e+00
  0.00000000e+00  0.00000000e+00 -5.30992394e-07  1.16642646e-08
  0.00000000e+00  0.00000000e+00  0.00000000e+00  3.37589050e-06]","[[ 0.00014768  0.00351641]
 [-0.0001015   0.00238793]]",[],0.0,0.0
1787153057.4956522,1.403347687098474,0.7696073667547907,2.254292559721514,"[ 7.69548210e-06 -1.28913180e-07  0.00000000e+00  0.00000000e+00
  0.00000000e+00 -5.30992394e-07 -1.28913180e-07  6.06082849e-06
  0.00000000e+00  0.00000000e+00  0.00000000e+00  1.16642646e-08
  0.00000000e+00  0.00000000e+00  0.00000000e+00  0.00000000e+00
  0.00000000e+00  0.00000000e+00  0.00000000e+00  0.00000000e+00
  0.00000000e+00  0.00000000e+00  0.00000000e+00  0.00000000e+00
  0.00000000e+00  0.00000000e+00  0.00000000e+00  0.00000000e+00
  0.00000000e+00  0.00000000e+00 -5.30992394e-07  1.16642646e-08
  0.00000000e+00  0.00000000e+00  0.00000000e+00  3.37589050e-06]","[[ 0.00014768  0.00351641]
 [-0.0001015   0.00238793]]",[],0.0,0.0
1787153057.552848,1.403347687098474,0.7696073667547907,2.254292559721514,"[ 7.69548210e-06 -1.28913180e-07  0.00000000e+00  0.00000000e+00
  0.00000000e+00 -5.30992394e-07 -1.28913180e-07  6.06082849e-06
  0.00000000e+00  0.00000000e+00  0.00000000e+00  1.16642646e-08
  0.00000000e+00  0.00000000e+00  0.00000000e+00  0.00000000e+00
  0.00000000e+00  0.00000000e+00  0.00000000e+00  0.00000000e+00
  0.00000000e+00  0.00000000e+00  0.00000000e+00  0.00000000e+00
  0.00000000e+00  0.00000000e+00  0.00000000e+00  0.00000000e+00
  0.00000000e+00  0.00000000e+00 -5.30992394e-07  1.16642646e-08
  0.00000000e+00  0.00000000e+00  0.00000000e+00  3.37589050e-06]","[[ 0.00014768  0.00351641]
 [-0.0001015   0.00238793]]",[],0.0,0.0
1787153057.5922332,1.4031044592579116,0.7634640317922718,2.2753504387283687,"[ 6.89288101e-06 -1.57769208e-07  0.00000000e+00  0.00000000e+00
  0.00000000e+00 -4.84888006e-07 -1.57769208e-07  5.53531853e-06
  0.00000000e+00  0.00000000e+00  0.00000000e+00 -2.83877289e-08
  0.00000000e+00  0.00000000e+00  0.00000000e+00  0.00000000e+00
  0.00000000e+00  0.00000000e+00  0.00000000e+00  0.00000000e+00
  0.00000000e+00  0.00000000e+00  0.00000000e+00  0.00000000e+00
  0.00000000e+00  0.00000000e+00  0.00000000e+00  0.00000000e+00
  0.00000000e+00  0.00000000e+00 -4.84888006e-07 -2.83877289e-08
  0.00000000e+00  0.00000000e+00  0.00000000e+00  3.27323728e-06]","[[ 1.32772408e-04  3.14851986e-03]
 [-9.36421480e-05  2.22366579e-03]]",[],0.0,0.0
1787153057.6494002,1.4031044592579116,0.7634640317922718,2.2753504387283687,"[ 6.89288101e-06 -1.57769208e-07  0.00000000e+00  0.00000000e+00
  0.00000000e+00 -4.84888006e-07 -1.57769208e-07  5.53531853e-06
  0.00000000e+00  0.00000000e+00  0.00000000e+00 -2.83877289e-08
  0.00000000e+00  0.00000000e+00  0.00000000e+00  0.00000000e+00
  0.00000000e+00  0.00000000e+00  0.00000000e+00  0.00000000e+00
  0.00000000e+00  0.00000000e+00  0.00000000e+00  0.00000000e+00
  0.00000000e+00  0.00000000e+00  0.00000000e+00  0.00000000e+00
