time,x,y,yaw,cov_prop,K_gain,innovation,v_ekf,omega_ekf
1787585352.9427085,0.41785048742145625,-0.32809175763186654,0.1100153916072979,"[ 5.02853849e-05 -6.05407696e-07  0.00000000e+00  0.00000000e+00
  0.00000000e+00 -1.08974643e-06 -6.05407696e-07  4.71339639e-05
  0.00000000e+00  0.00000000e+00  0.00000000e+00  2.16310446e-06
  0.00000000e+00  0.00000000e+00  0.00000000e+00  0.00000000e+00
  0.00000000e+00  0.00000000e+00  0.00000000e+00  0.00000000e+00
  0.00000000e+00  0.00000000e+00  0.00000000e+00  0.00000000e+00
  0.00000000e+00  0.00000000e+00  0.00000000e+00  0.00000000e+00
  0.00000000e+00  0.00000000e+00 -1.08974643e-06  2.16310446e-06
  0.00000000e+00  0.00000000e+00  0.00000000e+00  3.44257782e-06]","[[-0.00125318 -0.00029346]
 [ 0.00012371 -0.02793806]]",[],0.0,0.0
1787585352.9988081,0.41785048742145625,-0.32809175763186654,0.1100153916072979,"[ 5.02853849e-05 -6.05407696e-07  0.00000000e+00  0.00000000e+00
  0.00000000e+00 -1.08974643e-06 -6.05407696e-07  4.71339639e-05
  0.00000000e+00  0.00000000e+00  0.00000000e+00  2.16310446e-06
  0.00000000e+00  0.00000000e+00  0.00000000e+00  0.00000000e+00
  0.00000000e+00  0.00000000e+00  0.00000000e+00  0.00000000e+00
  0.00000000e+00  0.00000000e+00  0.00000000e+00  0.00000000e+00
  0.00000000e+00  0.00000000e+00  0.00000000e+00  0.00000000e+00
  0.00000000e+00  0.00000000e+00 -1.08974643e-06  2.16310446e-06
  0.00000000e+00  0.00000000e+00  0.00000000e+00  3.44257782e-06]","[[-0.00125318 -0.00029346]
 [ 0.00012371 -0.02793806]]",[],0.0,0.0
1787585353.04249,0.41785048742145625,-0.32809175763186654,0.1100153916072979,"[ 5.02853849e-05 -6.05407696e-07  0.00000000e+00  0.00000000e+00
  0.00000000e+00 -1.08974643e-06 -6.05407696e-07  4.71339639e-05
  0.00000000e+00  0.00000000e+00  0.00000000e+00  2.16310446e-06
  0.00000000e+00  0.00000000e+00  0.00000000e+00  0.00000000e+00
  0.00000000e+00  0.00000000e+00  0.00000000e+00  0.00000000e+00
  0.00000000e+00  0.00000000e+00  0.00000000e+00  0.00000000e+00
  0.00000000e+00  0.00000000e+00  0.00000000e+00  0.00000000e+00
  0.00000000e+00  0.00000000e+00 -1.08974643e-06  2.16310446e-06
  0.00000000e+00  0.00000000e+00  0.00000000e+00  3.44257782e-06]","[[-0.00125318 -0.00029346]
 [ 0.00012371 -0.02793806]]",[],0.0,0.0
1787585353.0915449,0.41785048742145625,-0.32809175763186654,0.1100153916072979,"[ 5.02853849e-05 -6.05407696e-07  0.00000000e+00  0.00000000e+00
  0.00000000e+00 -1.08974643e-06 -6.05407696e-07  4.71339639e-05
  0.00000000e+00  0.00000000e+00  0.00000000e+00  2.16310446e-06
  0.00000000e+00  0.00000000e+00  0.00000000e+00  0.00000000e+00
  0.00000000e+00  0.00000000e+00  0.00000000e+00  0.00000000e+00
  0.00000000e+00  0.00000000e+00  0.00000000e+00  0.00000000e+00
  0.00000000e+00  0.00000000e+00  0.00000000e+00  0.00000000e+00
  0.00000000e+00  0.00000000e+00 -1.08974643e-06  2.16310446e-06
  0.00000000e+00  0.00000000e+00  0.00000000e+00  3.44257782e-06]","[[-0.00125318 -0.00029346]
 [ 0.00012371 -0.02793806]]",[],0.0,0.0
1787585353.155014,0.41785048742145625,-0.32809175763186654,0.1100153916072979,"[ 5.02853849e-05 -6.05407696e-07  0.00000000e+00  0.00000000e+00
  0.00000000e+00 -1.08974643e-06 -6.05407696e-07  4.71339639e-05
  0.00000000e+00  0.00000000e+00  0.00000000e+00  2.16310446e-06
  0.00000000e+00  0.00000000e+00  0.00000000e+00  0.00000000e+00
  0.00000000e+00  0.00000000e+00  0.00000000e+00  0.00000000e+00
  0.00000000e+00  0.00000000e+00  0.00000000e+00  0.00000000e+00
  0.00000000e+00  0.00000000e+00  0.00000000e+00  0.00000000e+00
  0.00000000e+00  0.00000000e+00 -1.08974643e-06  2.16310446e-06
  0.00000000e+00  0.00000000e+00  0.00000000e+00  3.44257782e-06]","[[-0.00125318 -0.00029346]
 [ 0.00012371 -0.02793806]]",[],0.0,0.0
1787585353.6715674,0.41785048742145625,-0.32809175763186654,0.1100153916072979,"[ 5.02853849e-05 -6.05407696e-07  0.00000000e+00  0.00000000e+00
  0.00000000e+00 -1.08974643e-06 -6.05407696e-07  4.71339639e-05
  0.00000000e+00  0.00000000e+00  0.00000000e+00  2.16310446e-06
  0.00000000e+00  0.00000000e+00  0.00000000e+00  0.00000000e+00
  0.00000000e+00  0.00000000e+00  0.00000000e+00  0.00000000e+00
  0.00000000e+00  0.00000000e+00  0.00000000e+00  0.00000000e+00
  0.00000000e+00  0.00000000e+00  0.00000000e+00  0.00000000e+00
  0.00000000e+00  0.00000000e+00 -1.08974643e-06  2.16310446e-06
  0.00000000e+00  0.00000000e+00  0.00000000e+00  3.44257782e-06]","[[-0.00125318 -0.00029346]
 [ 0.00012371 -0.02793806]]",[],0.0,0.0
1787585353.781479,0.41999551426344267,-0.35180636454361747,0.09447935136503552,"[ 2.54180808e-05 -2.87459723e-07  0.00000000e+00  0.00000000e+00
  0.00000000e+00 -5.43574591e-07 -2.87459723e-07  2.40312282e-05
  0.00000000e+00  0.00000000e+00  0.00000000e+00  1.04914698e-06
  0.00000000e+00  0.00000000e+00  0.00000000e+00  0.00000000e+00
  0.00000000e+00  0.00000000e+00  0.00000000e+00  0.00000000e+00
  0.00000000e+00  0.00000000e+00  0.00000000e+00  0.00000000e+00
  0.00000000e+00  0.00000000e+00  0.00000000e+00  0.00000000e+00
  0.00000000e+00  0.00000000e+00 -5.43574591e-07  1.04914698e-06
  0.00000000e+00  0.00000000e+00  0.00000000e+00  2.85172639e-06]","[[-6.30651035e-04  2.25551785e-03]
 [-6.01306325e-05 -1.20921548e-02]]",[],0.0,0.0
1787585354.3444204,0.41999551426344267,-0.35180636454361747,0.09447935136503552,"[ 2.54180808e-05 -2.87459723e-07  0.00000000e+00  0.00000000e+00
  0.00000000e+00 -5.43574591e-07 -2.87459723e-07  2.40312282e-05
  0.00000000e+00  0.00000000e+00  0.00000000e+00  1.04914698e-06
  0.00000000e+00  0.00000000e+00  0.00000000e+00  0.00000000e+00
  0.00000000e+00  0.00000000e+00  0.00000000e+00  0.00000000e+00
  0.00000000e+00  0.00000000e+00  0.00000000e+00  0.00000000e+00
  0.00000000e+00  0.00000000e+00  0.00000000e+00  0.00000000e+00
  0.00000000e+00  0.00000000e+00 -5.43574591e-07  1.04914698e-06
  0.00000000e+00  0.00000000e+00  0.00000000e+00  2.85172639e-06]","[[-6.30651035e-04  2.25551785e-03]
 [-6.01306325e-05 -1.20921548e-02]]",[],0.0,0.0
1787585354.392085,0.41715311146046696,-0.36602112303226747,0.08522002974629482,"[ 1.71137921e-05 -3.02367220e-07  0.00000000e+00  0.00000000e+00
  0.00000000e+00 -3.41496020e-07 -3.02367220e-07  1.62836816e-05
  0.00000000e+00  0.00000000e+00  0.00000000e+00  7.37045203e-07
  0.00000000e+00  0.00000000e+00  0.00000000e+00  0.00000000e+00
  0.00000000e+00  0.00000000e+00  0.00000000e+00  0.00000000e+00
  0.00000000e+00  0.00000000e+00  0.00000000e+00  0.00000000e+00
  0.00000000e+00  0.00000000e+00  0.00000000e+00  0.00000000e+00
  0.00000000e+00  0.00000000e+00 -3.41496020e-07  7.37045203e-07
  0.00000000e+00  0.00000000e+00  0.00000000e+00  2.75783586e-06]","[[-4.27558042e-04  9.11995841e-04]
 [-1.79935925e-06 -9.34705775e-03]]",[],0.0,0.0
1787585354.4443722,0.41715311146046696,-0.36602112303226747,0.08522002974629482,"[ 1.71137921e-05 -3.02367220e-07  0.00000000e+00  0.00000000e+00
  0.00000000e+00 -3.41496020e-07 -3.02367220e-07  1.62836816e-05
  0.00000000e+00  0.00000000e+00  0.00000000e+00  7.37045203e-07
  0.00000000e+00  0.00000000e+00  0.00000000e+00  0.00000000e+00
  0.00000000e+00  0.00000000e+00  0.00000000e+00  0.00000000e+00
  0.00000000e+00  0.00000000e+00  0.00000000e+00  0.00000000e+00
  0.00000000e+00  0.00000000e+00  0.00000000e+00  0.00000000e+00
  0.00000000e+00  0.00000000e+00 -3.41496020e-07  7.37045203e-07
  0.00000000e+00  0.00000000e+00  0.00000000e+00  2.75783586e-06]","[[-4.27558042e-04  9.11995841e-04]
 [-1.79935925e-06 -9.34705775e-03]]",[],0.0,0.0
1787585354.4943624,0.41715311146046696,-0.36602112303226747,0.08522002974629482,"[ 1.71137921e-05 -3.02367220e-07  0.00000000e+00  0.00000000e+00
  0.00000000e+00 -3.41496020e-07 -3.02367220e-07  1.62836816e-05
  0.00000000e+00  0.00000000e+00  0.00000000e+00  7.37045203e-07
  0.00000000e+00  0.00000000e+00  0.00000000e+00  0.00000000e+00
  0.00000000e+00  0.00000000e+00  0.00000000e+00  0.00000000e+00
  0.00000000e+00  0.00000000e+00  0.00000000e+00  0.00000000e+00
  0.00000000e+00  0.00000000e+00  0.00000000e+00  0.00000000e+00
  0.00000000e+00  0.00000000e+00 -3.41496020e-07  7.37045203e-07
  0.00000000e+00  0.00000000e+00  0.00000000e+00  2.75783586e-06]","[[-4.27558042e-04  9.11995841e-04]
 [-1.79935925e-06 -9.34705775e-03]]",[],0.0,0.0
1787585354.5469015,0.41715311146046696,-0.36602112303226747,0.08522002974629482,"[ 1.71137921e-05 -3.02367220e-07  0.00000000e+00  0.00000000e+00
  0.00000000e+00 -3.41496020e-07 -3.02367220e-07  1.62836816e-05
  0.00000000e+00  0.00000000e+00  0.00000000e+00  7.37045203e-07
  0.00000000e+00  0.00000000e+00  0.00000000e+00  0.00000000e+00
  0.00000000e+00  0.00000000e+00  0.00000000e+00  0.00000000e+00
  0.00000000e+00  0.00000000e+00  0.00000000e+00  0.00000000e+00
  0.00000000e+00  0.00000000e+00  0.00000000e+00  0.00000000e+00
  0.00000000e+00  0.00000000e+00 -3.41496020e-07  7.37045203e-07
  0.00000000e+00  0.00000000e+00  0.00000000e+00  2.75783586e-06]","[[-4.27558042e-04  9.11995841e-04]
 [-1.79935925e-06 -9.34705775e-03]]",[],0.0,0.0
1787585354.5919352,0.41715311146046696,-0.36602112303226747,0.08522002974629482,"[ 1.71137921e-05 -3.02367220e-07  0.00000000e+00  0.00000000e+00
  0.00000000e+00 -3.41496020e-07 -3.02367220e-07  1.62836816e-05
  0.00000000e+00  0.00000000e+00  0.00000000e+00  7.37045203e-07
  0.00000000e+00  0.00000000e+00  0.00000000e+00  0.00000000e+00
  0.00000000e+00  0.00000000e+00  0.00000000e+00  0.00000000e+00
  0.00000000e+00  0.00000000e+00  0.00000000e+00  0.00000000e+00
  0.00000000e+00  0.00000000e+00  0.00000000e+00  0.00000000e+00
  0.00000000e+00  0.00000000e+00 -3.41496020e-07  7.37045203e-07
  0.00000000e+00  0.00000000e+00  0.00000000e+00  2.75783586e-06]","[[-4.27558042e-04  9.11995841e-04]
 [-1.79935925e-06 -9.34705775e-03]]",[],0.0,0.0
1787585354.642043,0.41715311146046696,-0.36602112303226747,0.08522002974629482,"[ 1.71137921e-05 -3.02367220e-07  0.00000000e+00  0.00000000e+00
  0.00000000e+00 -3.41496020e-07 -3.02367220e-07  1.62836816e-05
  0.00000000e+00  0.00000000e+00  0.00000000e+00  7.37045203e-07
  0.00000000e+00  0.00000000e+00  0.00000000e+00  0.00000000e+00
  0.00000000e+00  0.00000000e+00  0.00000000e+00  0.00000000e+00
  0.00000000e+00  0.00000000e+00  0.00000000e+00  0.00000000e+00
  0.00000000e+00  0.00000000e+00  0.00000000e+00  0.00000000e+00
  0.00000000e+00  0.00000000e+00 -3.41496020e-07  7.37045203e-07
  0.00000000e+00  0.00000000e+00  0.00000000e+00  2.75783586e-06]","[[-4.27558042e-04  9.11995841e-04]
 [-1.79935925e-06 -9.34705775e-03]]",[],0.0,0.0
1787585354.713968,0.41715311146046696,-0.36602112303226747,0.08522002974629482,"[ 1.71137921e-05 -3.02367220e-07  0.00000000e+00  0.00000000e+00
  0.00000000e+00 -3.41496020e-07 -3.02367220e-07  1.62836816e-05
  0.00000000e+00  0.00000000e+00  0.00000000e+00  7.37045203e-07
  0.00000000e+00  0.00000000e+00  0.00000000e+00  0.00000000e+00
  0.00000000e+00  0.00000000e+00  0.00000000e+00  0.00000000e+00
  0.00000000e+00  0.00000000e+00  0.00000000e+00  0.00000000e+00
  0.00000000e+00  0.00000000e+00  0.00000000e+00  0.00000000e+00
  0.00000000e+00  0.00000000e+00 -3.41496020e-07  7.37045203e-07
  0.00000000e+00  0.00000000e+00  0.00000000e+00  2.75783586e-06]","[[-4.27558042e-04  9.11995841e-04]
 [-1.79935925e-06 -9.34705775e-03]]",[],0.0,0.0
1787585354.7462094,0.41715311146046696,-0.36602112303226747,0.08522002974629482,"[ 1.71137921e-05 -3.02367220e-07  0.00000000e+00  0.00000000e+00
  0.00000000e+00 -3.41496020e-07 -3.02367220e-07  1.62836816e-05
  0.00000000e+00  0.00000000e+00  0.00000000e+00  7.37045203e-07
  0.00000000e+00  0.00000000e+00  0.00000000e+00  0.00000000e+00
  0.00000000e+00  0.00000000e+00  0.00000000e+00  0.00000000e+00
  0.00000000e+00  0.00000000e+00  0.00000000e+00  0.00000000e+00
  0.00000000e+00  0.00000000e+00  0.00000000e+00  0.00000000e+00
  0.00000000e+00  0.00000000e+00 -3.41496020e-07  7.37045203e-07
  0.00000000e+00  0.00000000e+00  0.00000000e+00  2.75783586e-06]","[[-4.27558042e-04  9.11995841e-04]
 [-1.79935925e-06 -9.34705775e-03]]",[],0.0,0.0
1787585354.7930214,0.41715311146046696,-0.36602112303226747,0.08522002974629482,"[ 1.71137921e-05 -3.02367220e-07  0.00000000e+00  0.00000000e+00
  0.00000000e+00 -3.41496020e-07 -3.02367220e-07  1.62836816e-05
  0.00000000e+00  0.00000000e+00  0.00000000e+00  7.37045203e-07
  0.00000000e+00  0.00000000e+00  0.00000000e+00  0.00000000e+00
  0.00000000e+00  0.00000000e+00  0.00000000e+00  0.00000000e+00
  0.00000000e+00  0.00000000e+00  0.00000000e+00  0.00000000e+00
  0.00000000e+00  0.00000000e+00  0.00000000e+00  0.00000000e+00
  0.00000000e+00  0.00000000e+00 -3.41496020e-07  7.37045203e-07
  0.00000000e+00  0.00000000e+00  0.00000000e+00  2.75783586e-06]","[[-4.27558042e-04  9.11995841e-04]
 [-1.79935925e-06 -9.34705775e-03]]",[],0.0,0.0
1787585354.8422086,0.41715311146046696,-0.36602112303226747,0.08522002974629482,"[ 1.71137921e-05 -3.02367220e-07  0.00000000e+00  0.00000000e+00
  0.00000000e+00 -3.41496020e-07 -3.02367220e-07  1.62836816e-05
  0.00000000e+00  0.00000000e+00  0.00000000e+00  7.37045203e-07
  0.00000000e+00  0.00000000e+00  0.00000000e+00  0.00000000e+00
  0.00000000e+00  0.00000000e+00  0.00000000e+00  0.00000000e+00
  0.00000000e+00  0.00000000e+00  0.00000000e+00  0.00000000e+00
  0.00000000e+00  0.00000000e+00  0.00000000e+00  0.00000000e+00
  0.00000000e+00  0.00000000e+00 -3.41496020e-07  7.37045203e-07
  0.00000000e+00  0.00000000e+00  0.00000000e+00  2.75783586e-06]","[[-4.27558042e-04  9.11995841e-04]
 [-1.79935925e-06 -9.34705775e-03]]",[],0.0,0.0
1787585354.8929932,0.41715311146046696,-0.36602112303226747,0.08522002974629482,"[ 1.71137921e-05 -3.02367220e-07  0.00000000e+00  0.00000000e+00
  0.00000000e+00 -3.41496020e-07 -3.02367220e-07  1.62836816e-05
  0.00000000e+00  0.00000000e+00  0.00000000e+00  7.37045203e-07
  0.00000000e+00  0.00000000e+00  0.00000000e+00  0.00000000e+00
  0.00000000e+00  0.00000000e+00  0.00000000e+00  0.00000000e+00
  0.00000000e+00  0.00000000e+00  0.00000000e+00  0.00000000e+00
  0.00000000e+00  0.00000000e+00  0.00000000e+00  0.00000000e+00
  0.00000000e+00  0.00000000e+00 -3.41496020e-07  7.37045203e-07
  0.00000000e+00  0.00000000e+00  0.00000000e+00  2.75783586e-06]","[[-4.27558042e-04  9.11995841e-04]
 [-1.79935925e-06 -9.34705775e-03]]",[],0.0,0.0
1787585354.9425793,0.41715311146046696,-0.36602112303226747,0.08522002974629482,"[ 1.71137921e-05 -3.02367220e-07  0.00000000e+00  0.00000000e+00
  0.00000000e+00 -3.41496020e-07 -3.02367220e-07  1.62836816e-05
  0.00000000e+00  0.00000000e+00  0.00000000e+00  7.37045203e-07
  0.00000000e+00  0.00000000e+00  0.00000000e+00  0.00000000e+00
  0.00000000e+00  0.00000000e+00  0.00000000e+00  0.00000000e+00
  0.00000000e+00  0.00000000e+00  0.00000000e+00  0.00000000e+00
  0.00000000e+00  0.00000000e+00  0.00000000e+00  0.00000000e+00
  0.00000000e+00  0.00000000e+00 -3.41496020e-07  7.37045203e-07
  0.00000000e+00  0.00000000e+00  0.00000000e+00  2.75783586e-06]","[[-4.27558042e-04  9.11995841e-04]
 [-1.79935925e-06 -9.34705775e-03]]",[],0.0,0.0
1787585354.9942255,0.41715311146046696,-0.36602112303226747,0.08522002974629482,"[ 1.71137921e-05 -3.02367220e-07  0.00000000e+00  0.00000000e+00
  0.00000000e+00 -3.41496020e-07 -3.02367220e-07  1.62836816e-05
  0.00000000e+00  0.00000000e+00  0.00000000e+00  7.37045203e-07
  0.00000000e+00  0.00000000e+00  0.00000000e+00  0.00000000e+00
  0.00000000e+00  0.00000000e+00  0.00000000e+00  0.00000000e+00
  0.00000000e+00  0.00000000e+00  0.00000000e+00  0.00000000e+00
  0.00000000e+00  0.00000000e+00  0.00000000e+00  0.00000000e+00
  0.00000000e+00  0.00000000e+00 -3.41496020e-07  7.37045203e-07
  0.00000000e+00  0.00000000e+00  0.00000000e+00  2.75783586e-06]","[[-4.27558042e-04  9.11995841e-04]
 [-1.79935925e-06 -9.34705775e-03]]",[],0.0,0.0
1787585355.0482194,0.41715311146046696,-0.36602112303226747,0.08522002974629482,"[ 1.71137921e-05 -3.02367220e-07  0.00000000e+00  0.00000000e+00
  0.00000000e+00 -3.41496020e-07 -3.02367220e-07  1.62836816e-05
  0.00000000e+00  0.00000000e+00  0.00000000e+00  7.37045203e-07
  0.00000000e+00  0.00000000e+00  0.00000000e+00  0.00000000e+00
  0.00000000e+00  0.00000000e+00  0.00000000e+00  0.00000000e+00
  0.00000000e+00  0.00000000e+00  0.00000000e+00  0.00000000e+00
  0.00000000e+00  0.00000000e+00  0.00000000e+00  0.00000000e+00
  0.00000000e+00  0.00000000e+00 -3.41496020e-07  7.37045203e-07
  0.00000000e+00  0.00000000e+00  0.00000000e+00  2.75783586e-06]","[[-4.27558042e-04  9.11995841e-04]
 [-1.79935925e-06 -9.34705775e-03]]",[],0.0,0.0
1787585355.3257484,0.41715311146046696,-0.36602112303226747,0.08522002974629482,"[ 1.71137921e-05 -3.02367220e-07  0.00000000e+00  0.00000000e+00
  0.00000000e+00 -3.41496020e-07 -3.02367220e-07  1.62836816e-05
  0.00000000e+00  0.00000000e+00  0.00000000e+00  7.37045203e-07
  0.00000000e+00  0.00000000e+00  0.00000000e+00  0.00000000e+00
  0.00000000e+00  0.00000000e+00  0.00000000e+00  0.00000000e+00
  0.00000000e+00  0.00000000e+00  0.00000000e+00  0.00000000e+00
  0.00000000e+00  0.00000000e+00  0.00000000e+00  0.00000000e+00
  0.00000000e+00  0.00000000e+00 -3.41496020e-07  7.37045203e-07
  0.00000000e+00  0.00000000e+00  0.00000000e+00  2.75783586e-06]","[[-4.27558042e-04  9.11995841e-04]
 [-1.79935925e-06 -9.34705775e-03]]",[],0.0,0.0
1787585355.376067,0.41715311146046696,-0.36602112303226747,0.08522002974629482,"[ 1.71137921e-05 -3.02367220e-07  0.00000000e+00  0.00000000e+00
  0.00000000e+00 -3.41496020e-07 -3.02367220e-07  1.62836816e-05
  0.00000000e+00  0.00000000e+00  0.00000000e+00  7.37045203e-07
  0.00000000e+00  0.00000000e+00  0.00000000e+00  0.00000000e+00
  0.00000000e+00  0.00000000e+00  0.00000000e+00  0.00000000e+00
  0.00000000e+00  0.00000000e+00  0.00000000e+00  0.00000000e+00
  0.00000000e+00  0.00000000e+00  0.00000000e+00  0.00000000e+00
  0.00000000e+00  0.00000000e+00 -3.41496020e-07  7.37045203e-07
  0.00000000e+00  0.00000000e+00  0.00000000e+00  2.75783586e-06]","[[-4.27558042e-04  9.11995841e-04]
 [-1.79935925e-06 -9.34705775e-03]]",[],0.0,0.0
1787585355.3992999,0.41715311146046696,-0.36602112303226747,0.08522002974629482,"[ 1.71137921e-05 -3.02367220e-07  0.00000000e+00  0.00000000e+00
  0.00000000e+00 -3.41496020e-07 -3.02367220e-07  1.62836816e-05
  0.00000000e+00  0.00000000e+00  0.00000000e+00  7.37045203e-07
  0.00000000e+00  0.00000000e+00  0.00000000e+00  0.00000000e+00
  0.00000000e+00  0.00000000e+00  0.00000000e+00  0.00000000e+00
  0.00000000e+00  0.00000000e+00  0.00000000e+00  0.00000000e+00
  0.00000000e+00  0.00000000e+00  0.00000000e+00  0.00000000e+00
  0.00000000e+00  0.00000000e+00 -3.41496020e-07  7.37045203e-07
  0.00000000e+00  0.00000000e+00  0.00000000e+00  2.75783586e-06]","[[-4.27558042e-04  9.11995841e-04]
 [-1.79935925e-06 -9.34705775e-03]]",[],0.0,0.0
1787585355.463447,0.4170101031916663,-0.37547567378278157,0.0641916386414927,"[ 1.29524144e-05 -1.73243471e-07  0.00000000e+00  0.00000000e+00
  0.00000000e+00 -1.83582408e-07 -1.73243471e-07  1.22963431e-05
  0.00000000e+00  0.00000000e+00  0.00000000e+00  5.94289981e-07
  0.00000000e+00  0.00000000e+00  0.00000000e+00  0.00000000e+00
  0.00000000e+00  0.00000000e+00  0.00000000e+00  0.00000000e+00
  0.00000000e+00  0.00000000e+00  0.00000000e+00  0.00000000e+00
  0.00000000e+00  0.00000000e+00  0.00000000e+00  0.00000000e+00
  0.00000000e+00  0.00000000e+00 -1.83582408e-07  5.94289981e-07
  0.00000000e+00  0.00000000e+00  0.00000000e+00  2.99624474e-06]","[[-3.23788315e-04  2.06728815e-04]
 [ 1.38951041e-05 -6.16164296e-03]]",[],0.0,0.0
1787585355.4946709,0.4170101031916663,-0.37547567378278157,0.0641916386414927,"[ 1.29524144e-05 -1.73243471e-07  0.00000000e+00  0.00000000e+00
  0.00000000e+00 -1.83582408e-07 -1.73243471e-07  1.22963431e-05
  0.00000000e+00  0.00000000e+00  0.00000000e+00  5.94289981e-07
  0.00000000e+00  0.00000000e+00  0.00000000e+00  0.00000000e+00
  0.00000000e+00  0.00000000e+00  0.00000000e+00  0.00000000e+00
  0.00000000e+00  0.00000000e+00  0.00000000e+00  0.00000000e+00
  0.00000000e+00  0.00000000e+00  0.00000000e+00  0.00000000e+00
  0.00000000e+00  0.00000000e+00 -1.83582408e-07  5.94289981e-07
  0.00000000e+00  0.00000000e+00  0.00000000e+00  2.99624474e-06]","[[-3.23788315e-04  2.06728815e-04]
 [ 1.38951041e-05 -6.16164296e-03]]",[],0.0,0.0
1787585355.542222,0.4170101031916663,-0.37547567378278157,0.0641916386414927,"[ 1.29524144e-05 -1.73243471e-07  0.00000000e+00  0.00000000e+00
  0.00000000e+00 -1.83582408e-07 -1.73243471e-07  1.22963431e-05
  0.00000000e+00  0.00000000e+00  0.00000000e+00  5.94289981e-07
  0.00000000e+00  0.00000000e+00  0.00000000e+00  0.00000000e+00
  0.00000000e+00  0.00000000e+00  0.00000000e+00  0.00000000e+00
  0.00000000e+00  0.00000000e+00  0.00000000e+00  0.00000000e+00
  0.00000000e+00  0.00000000e+00  0.00000000e+00  0.00000000e+00
  0.00000000e+00  0.00000000e+00 -1.83582408e-07  5.94289981e-07
  0.00000000e+00  0.00000000e+00  0.00000000e+00  2.99624474e-06]","[[-3.23788315e-04  2.06728815e-04]
 [ 1.38951041e-05 -6.16164296e-03]]",[],0.0,0.0
1787585355.592005,0.4170101031916663,-0.37547567378278157,0.0641916386414927,"[ 1.29524144e-05 -1.73243471e-07  0.00000000e+00  0.00000000e+00
  0.00000000e+00 -1.83582408e-07 -1.73243471e-07  1.22963431e-05
  0.00000000e+00  0.00000000e+00  0.00000000e+00  5.94289981e-07
  0.00000000e+00  0.00000000e+00  0.00000000e+00  0.00000000e+00
  0.00000000e+00  0.00000000e+00  0.00000000e+00  0.00000000e+00
  0.00000000e+00  0.00000000e+00  0.00000000e+00  0.00000000e+00
  0.00000000e+00  0.00000000e+00  0.00000000e+00  0.00000000e+00
  0.00000000e+00  0.00000000e+00 -1.83582408e-07  5.94289981e-07
  0.00000000e+00  0.00000000e+00  0.00000000e+00  2.99624474e-06]","[[-3.23788315e-04  2.06728815e-04]
 [ 1.38951041e-05 -6.16164296e-03]]",[],0.0,0.0
1787585355.6425052,0.4170101031916663,-0.37547567378278157,0.0641916386414927,"[ 1.29524144e-05 -1.73243471e-07  0.00000000e+00  0.00000000e+00
  0.00000000e+00 -1.83582408e-07 -1.73243471e-07  1.22963431e-05
  0.00000000e+00  0.00000000e+00  0.00000000e+00  5.94289981e-07
  0.00000000e+00  0.00000000e+00  0.00000000e+00  0.00000000e+00
  0.00000000e+00  0.00000000e+00  0.00000000e+00  0.00000000e+00
  0.00000000e+00  0.00000000e+00  0.00000000e+00  0.00000000e+00
  0.00000000e+00  0.00000000e+00  0.00000000e+00  0.00000000e+00
  0.00000000e+00  0.00000000e+00 -1.83582408e-07  5.94289981e-07
  0.00000000e+00  0.00000000e+00  0.00000000e+00  2.99624474e-06]","[[-3.23788315e-04  2.06728815e-04]
 [ 1.38951041e-05 -6.16164296e-03]]",[],0.0,0.0
1787585355.6928725,0.4170101031916663,-0.37547567378278157,0.0641916386414927,"[ 1.29524144e-05 -1.73243471e-07  0.00000000e+00  0.00000000e+00
  0.00000000e+00 -1.83582408e-07 -1.73243471e-07  1.22963431e-05
  0.00000000e+00  0.00000000e+00  0.00000000e+00  5.94289981e-07
  0.00000000e+00  0.00000000e+00  0.00000000e+00  0.00000000e+00
  0.00000000e+00  0.00000000e+00  0.00000000e+00  0.00000000e+00
  0.00000000e+00  0.00000000e+00  0.00000000e+00  0.00000000e+00
  0.00000000e+00  0.00000000e+00  0.00000000e+00  0.00000000e+00
  0.00000000e+00  0.00000000e+00 -1.83582408e-07  5.94289981e-07
  0.00000000e+00  0.00000000e+00  0.00000000e+00  2.99624474e-06]","[[-3.23788315e-04  2.06728815e-04]
 [ 1.38951041e-05 -6.16164296e-03]]",[],0.0,0.0
1787585355.7425382,0.4170101031916663,-0.37547567378278157,0.0641916386414927,"[ 1.29524144e-05 -1.73243471e-07  0.00000000e+00  0.00000000e+00
  0.00000000e+00 -1.83582408e-07 -1.73243471e-07  1.22963431e-05
  0.00000000e+00  0.00000000e+00  0.00000000e+00  5.94289981e-07
  0.00000000e+00  0.00000000e+00  0.00000000e+00  0.00000000e+00
  0.00000000e+00  0.00000000e+00  0.00000000e+00  0.00000000e+00
  0.00000000e+00  0.00000000e+00  0.00000000e+00  0.00000000e+00
  0.00000000e+00  0.00000000e+00  0.00000000e+00  0.00000000e+00
  0.00000000e+00  0.00000000e+00 -1.83582408e-07  5.94289981e-07
  0.00000000e+00  0.00000000e+00  0.00000000e+00  2.99624474e-06]","[[-3.23788315e-04  2.06728815e-04]
 [ 1.38951041e-05 -6.16164296e-03]]",[],0.0,0.0
1787585355.7933822,0.4170101031916663,-0.37547567378278157,0.0641916386414927,"[ 1.29524144e-05 -1.73243471e-07  0.00000000e+00  0.00000000e+00
  0.00000000e+00 -1.83582408e-07 -1.73243471e-07  1.22963431e-05
  0.00000000e+00  0.00000000e+00  0.00000000e+00  5.94289981e-07
  0.00000000e+00  0.00000000e+00  0.00000000e+00  0.00000000e+00
  0.00000000e+00  0.00000000e+00  0.00000000e+00  0.00000000e+00
  0.00000000e+00  0.00000000e+00  0.00000000e+00  0.00000000e+00
  0.00000000e+00  0.00000000e+00  0.00000000e+00  0.00000000e+00
  0.00000000e+00  0.00000000e+00 -1.83582408e-07  5.94289981e-07
  0.00000000e+00  0.00000000e+00  0.00000000e+00  2.99624474e-06]","[[-3.23788315e-04  2.06728815e-04]
 [ 1.38951041e-05 -6.16164296e-03]]",[],0.0,0.0
1787585355.8429537,0.4170101031916663,-0.37547567378278157,0.0641916386414927,"[ 1.29524144e-05 -1.73243471e-07  0.00000000e+00  0.00000000e+00
  0.00000000e+00 -1.83582408e-07 -1.73243471e-07  1.22963431e-05
  0.00000000e+00  0.00000000e+00  0.00000000e+00  5.94289981e-07
  0.00000000e+00  0.00000000e+00  0.00000000e+00  0.00000000e+00
  0.00000000e+00  0.00000000e+00  0.00000000e+00  0.00000000e+00
  0.00000000e+00  0.00000000e+00  0.00000000e+00  0.00000000e+00
  0.00000000e+00  0.00000000e+00  0.00000000e+00  0.00000000e+00
  0.00000000e+00  0.00000000e+00 -1.83582408e-07  5.94289981e-07
  0.00000000e+00  0.00000000e+00  0.00000000e+00  2.99624474e-06]","[[-3.23788315e-04  2.06728815e-04]
 [ 1.38951041e-05 -6.16164296e-03]]",[],0.0,0.0
1787585355.895058,0.4170101031916663,-0.37547567378278157,0.0641916386414927,"[ 1.29524144e-05 -1.73243471e-07  0.00000000e+00  0.00000000e+00
  0.00000000e+00 -1.83582408e-07 -1.73243471e-07  1.22963431e-05
  0.00000000e+00  0.00000000e+00  0.00000000e+00  5.94289981e-07
  0.00000000e+00  0.00000000e+00  0.00000000e+00  0.00000000e+00
  0.00000000e+00  0.00000000e+00  0.00000000e+00  0.00000000e+00
  0.00000000e+00  0.00000000e+00  0.00000000e+00  0.00000000e+00
  0.00000000e+00  0.00000000e+00  0.00000000e+00  0.00000000e+00
  0.00000000e+00  0.00000000e+00 -1.83582408e-07  5.94289981e-07
  0.00000000e+00  0.00000000e+00  0.00000000e+00  2.99624474e-06]","[[-3.23788315e-04  2.06728815e-04]
 [ 1.38951041e-05 -6.16164296e-03]]",[],0.0,0.0
1787585355.9439957,0.4170101031916663,-0.37547567378278157,0.0641916386414927,"[ 1.29524144e-05 -1.73243471e-07  0.00000000e+00  0.00000000e+00
  0.00000000e+00 -1.83582408e-07 -1.73243471e-07  1.22963431e-05
  0.00000000e+00  0.00000000e+00  0.00000000e+00  5.94289981e-07
  0.00000000e+00  0.00000000e+00  0.00000000e+00  0.00000000e+00
  0.00000000e+00  0.00000000e+00  0.00000000e+00  0.00000000e+00
  0.00000000e+00  0.00000000e+00  0.00000000e+00  0.00000000e+00
  0.00000000e+00  0.00000000e+00  0.00000000e+00  0.00000000e+00
  0.00000000e+00  0.00000000e+00 -1.83582408e-07  5.94289981e-07
  0.00000000e+00  0.00000000e+00  0.00000000e+00  2.99624474e-06]","[[-3.23788315e-04  2.06728815e-04]
 [ 1.38951041e-05 -6.16164296e-03]]",[],0.0,0.0
1787585355.9939146,0.4170101031916663,-0.37547567378278157,0.0641916386414927,"[ 1.29524144e-05 -1.73243471e-07  0.00000000e+00  0.00000000e+00
  0.00000000e+00 -1.83582408e-07 -1.73243471e-07  1.22963431e-05
  0.00000000e+00  0.00000000e+00  0.00000000e+00  5.94289981e-07
  0.00000000e+00  0.00000000e+00  0.00000000e+00  0.00000000e+00
  0.00000000e+00  0.00000000e+00  0.00000000e+00  0.00000000e+00
  0.00000000e+00  0.00000000e+00  0.00000000e+00  0.00000000e+00
  0.00000000e+00  0.00000000e+00  0.00000000e+00  0.00000000e+00
  0.00000000e+00  0.00000000e+00 -1.83582408e-07  5.94289981e-07
  0.00000000e+00  0.00000000e+00  0.00000000e+00  2.99624474e-06]","[[-3.23788315e-04  2.06728815e-04]
 [ 1.38951041e-05 -6.16164296e-03]]",[],0.0,0.0
1787585356.0454118,0.4170101031916663,-0.37547567378278157,0.0641916386414927,"[ 1.29524144e-05 -1.73243471e-07  0.00000000e+00  0.00000000e+00
  0.00000000e+00 -1.83582408e-07 -1.73243471e-07  1.22963431e-05
  0.00000000e+00  0.00000000e+00  0.00000000e+00  5.94289981e-07
  0.00000000e+00  0.00000000e+00  0.00000000e+00  0.00000000e+00
  0.00000000e+00  0.00000000e+00  0.00000000e+00  0.00000000e+00
  0.00000000e+00  0.00000000e+00  0.00000000e+00  0.00000000e+00
  0.00000000e+00  0.00000000e+00  0.00000000e+00  0.00000000e+00
  0.00000000e+00  0.00000000e+00 -1.83582408e-07  5.94289981e-07
  0.00000000e+00  0.00000000e+00  0.00000000e+00  2.99624474e-06]","[[-3.23788315e-04  2.06728815e-04]
 [ 1.38951041e-05 -6.16164296e-03]]",[],0.0,0.0
1787585356.095094,0.4170101031916663,-0.37547567378278157,0.0641916386414927,"[ 1.29524144e-05 -1.73243471e-07  0.00000000e+00  0.00000000e+00
  0.00000000e+00 -1.83582408e-07 -1.73243471e-07  1.22963431e-05
  0.00000000e+00  0.00000000e+00  0.00000000e+00  5.94289981e-07
  0.00000000e+00  0.00000000e+00  0.00000000e+00  0.00000000e+00
  0.00000000e+00  0.00000000e+00  0.00000000e+00  0.00000000e+00
  0.00000000e+00  0.00000000e+00  0.00000000e+00  0.00000000e+00
  0.00000000e+00  0.00000000e+00  0.00000000e+00  0.00000000e+00
  0.00000000e+00  0.00000000e+00 -1.83582408e-07  5.94289981e-07
  0.00000000e+00  0.00000000e+00  0.00000000e+00  2.99624474e-06]","[[-3.23788315e-04  2.06728815e-04]
 [ 1.38951041e-05 -6.16164296e-03]]",[],0.0,0.0
1787585356.1437435,0.4170101031916663,-0.37547567378278157,0.0641916386414927,"[ 1.29524144e-05 -1.73243471e-07  0.00000000e+00  0.00000000e+00
  0.00000000e+00 -1.83582408e-07 -1.73243471e-07  1.22963431e-05
  0.00000000e+00  0.00000000e+00  0.00000000e+00  5.94289981e-07
  0.00000000e+00  0.00000000e+00  0.00000000e+00  0.00000000e+00
  0.00000000e+00  0.00000000e+00  0.00000000e+00  0.00000000e+00
  0.00000000e+00  0.00000000e+00  0.00000000e+00  0.00000000e+00
  0.00000000e+00  0.00000000e+00  0.00000000e+00  0.00000000e+00
  0.00000000e+00  0.00000000e+00 -1.83582408e-07  5.94289981e-07
  0.00000000e+00  0.00000000e+00  0.00000000e+00  2.99624474e-06]","[[-3.23788315e-04  2.06728815e-04]
 [ 1.38951041e-05 -6.16164296e-03]]",[],0.0,0.0
1787585356.193326,0.4170101031916663,-0.37547567378278157,0.0641916386414927,"[ 1.29524144e-05 -1.73243471e-07  0.00000000e+00  0.00000000e+00
  0.00000000e+00 -1.83582408e-07 -1.73243471e-07  1.22963431e-05
  0.00000000e+00  0.00000000e+00  0.00000000e+00  5.94289981e-07
  0.00000000e+00  0.00000000e+00  0.00000000e+00  0.00000000e+00
  0.00000000e+00  0.00000000e+00  0.00000000e+00  0.00000000e+00
  0.00000000e+00  0.00000000e+00  0.00000000e+00  0.00000000e+00
  0.00000000e+00  0.00000000e+00  0.00000000e+00  0.00000000e+00
  0.00000000e+00  0.00000000e+00 -1.83582408e-07  5.94289981e-07
  0.00000000e+00  0.00000000e+00  0.00000000e+00  2.99624474e-06]","[[-3.23788315e-04  2.06728815e-04]
 [ 1.38951041e-05 -6.16164296e-03]]",[],0.0,0.0
1787585356.244404,0.4170101031916663,-0.37547567378278157,0.0641916386414927,"[ 1.29524144e-05 -1.73243471e-07  0.00000000e+00  0.00000000e+00
  0.00000000e+00 -1.83582408e-07 -1.73243471e-07  1.22963431e-05
  0.00000000e+00  0.00000000e+00  0.00000000e+00  5.94289981e-07
  0.00000000e+00  0.00000000e+00  0.00000000e+00  0.00000000e+00
  0.00000000e+00  0.00000000e+00  0.00000000e+00  0.00000000e+00
  0.00000000e+00  0.00000000e+00  0.00000000e+00  0.00000000e+00
  0.00000000e+00  0.00000000e+00  0.00000000e+00  0.00000000e+00
  0.00000000e+00  0.00000000e+00 -1.83582408e-07  5.94289981e-07
  0.00000000e+00  0.00000000e+00  0.00000000e+00  2.99624474e-06]","[[-3.23788315e-04  2.06728815e-04]
 [ 1.38951041e-05 -6.16164296e-03]]",[],0.0,0.0
1787585356.2952516,0.4170101031916663,-0.37547567378278157,0.0641916386414927,"[ 1.29524144e-05 -1.73243471e-07  0.00000000e+00  0.00000000e+00
  0.00000000e+00 -1.83582408e-07 -1.73243471e-07  1.22963431e-05
  0.00000000e+00  0.00000000e+00  0.00000000e+00  5.94289981e-07
  0.00000000e+00  0.00000000e+00  0.00000000e+00  0.00000000e+00
  0.00000000e+00  0.00000000e+00  0.00000000e+00  0.00000000e+00
  0.00000000e+00  0.00000000e+00  0.00000000e+00  0.00000000e+00
  0.00000000e+00  0.00000000e+00  0.00000000e+00  0.00000000e+00
  0.00000000e+00  0.00000000e+00 -1.83582408e-07  5.94289981e-07
  0.00000000e+00  0.00000000e+00  0.00000000e+00  2.99624474e-06]","[[-3.23788315e-04  2.06728815e-04]
 [ 1.38951041e-05 -6.16164296e-03]]",[],0.0,0.0
1787585356.3419018,0.41334295804312565,-0.3836798246624322,0.05354566597119925,"[ 1.04330959e-05 -1.51653273e-07  0.00000000e+00  0.00000000e+00
  0.00000000e+00 -1.43037838e-07 -1.51653273e-07  9.82931558e-06
  0.00000000e+00  0.00000000e+00  0.00000000e+00  4.35114420e-07
  0.00000000e+00  0.00000000e+00  0.00000000e+00  0.00000000e+00
  0.00000000e+00  0.00000000e+00  0.00000000e+00  0.00000000e+00
  0.00000000e+00  0.00000000e+00  0.00000000e+00  0.00000000e+00
  0.00000000e+00  0.00000000e+00  0.00000000e+00  0.00000000e+00
  0.00000000e+00  0.00000000e+00 -1.43037838e-07  4.35114420e-07
  0.00000000e+00  0.00000000e+00  0.00000000e+00  2.86768572e-06]","[[-2.60351459e-04  5.17971633e-04]
 [-7.90707174e-06 -4.98641519e-03]]",[],0.0,0.0
1787585356.395054,0.41334295804312565,-0.3836798246624322,0.05354566597119925,"[ 1.04330959e-05 -1.51653273e-07  0.00000000e+00  0.00000000e+00
  0.00000000e+00 -1.43037838e-07 -1.51653273e-07  9.82931558e-06
  0.00000000e+00  0.00000000e+00  0.00000000e+00  4.35114420e-07
  0.00000000e+00  0.00000000e+00  0.00000000e+00  0.00000000e+00
  0.00000000e+00  0.00000000e+00  0.00000000e+00  0.00000000e+00
  0.00000000e+00  0.00000000e+00  0.00000000e+00  0.00000000e+00
  0.00000000e+00  0.00000000e+00  0.00000000e+00  0.00000000e+00
  0.00000000e+00  0.00000000e+00 -1.43037838e-07  4.35114420e-07
  0.00000000e+00  0.00000000e+00  0.00000000e+00  2.86768572e-06]","[[-2.60351459e-04  5.17971633e-04]
 [-7.90707174e-06 -4.98641519e-03]]",[],0.0,0.0
1787585356.4418747,0.41334295804312565,-0.3836798246624322,0.05354566597119925,"[ 1.04330959e-05 -1.51653273e-07  0.00000000e+00  0.00000000e+00
  0.00000000e+00 -1.43037838e-07 -1.51653273e-07  9.82931558e-06
  0.00000000e+00  0.00000000e+00  0.00000000e+00  4.35114420e-07
  0.00000000e+00  0.00000000e+00  0.00000000e+00  0.00000000e+00
  0.00000000e+00  0.00000000e+00  0.00000000e+00  0.00000000e+00
  0.00000000e+00  0.00000000e+00  0.00000000e+00  0.00000000e+00
  0.00000000e+00  0.00000000e+00  0.00000000e+00  0.00000000e+00
  0.00000000e+00  0.00000000e+00 -1.43037838e-07  4.35114420e-07
  0.00000000e+00  0.00000000e+00  0.00000000e+00  2.86768572e-06]","[[-2.60351459e-04  5.17971633e-04]
 [-7.90707174e-06 -4.98641519e-03]]",[],0.0,0.0
1787585356.4959488,0.41334295804312565,-0.3836798246624322,0.05354566597119925,"[ 1.04330959e-05 -1.51653273e-07  0.00000000e+00  0.00000000e+00
  0.00000000e+00 -1.43037838e-07 -1.51653273e-07  9.82931558e-06
  0.00000000e+00  0.00000000e+00  0.00000000e+00  4.35114420e-07
  0.00000000e+00  0.00000000e+00  0.00000000e+00  0.00000000e+00
  0.00000000e+00  0.00000000e+00  0.00000000e+00  0.00000000e+00
  0.00000000e+00  0.00000000e+00  0.00000000e+00  0.00000000e+00
  0.00000000e+00  0.00000000e+00  0.00000000e+00  0.00000000e+00
  0.00000000e+00  0.00000000e+00 -1.43037838e-07  4.35114420e-07
  0.00000000e+00  0.00000000e+00  0.00000000e+00  2.86768572e-06]","[[-2.60351459e-04  5.17971633e-04]
 [-7.90707174e-06 -4.98641519e-03]]",[],0.0,0.0
1787585356.5457468,0.41334295804312565,-0.3836798246624322,0.05354566597119925,"[ 1.04330959e-05 -1.51653273e-07  0.00000000e+00  0.00000000e+00
  0.00000000e+00 -1.43037838e-07 -1.51653273e-07  9.82931558e-06
  0.00000000e+00  0.00000000e+00  0.00000000e+00  4.35114420e-07
  0.00000000e+00  0.00000000e+00  0.00000000e+00  0.00000000e+00
  0.00000000e+00  0.00000000e+00  0.00000000e+00  0.00000000e+00
  0.00000000e+00  0.00000000e+00  0.00000000e+00  0.00000000e+00
  0.00000000e+00  0.00000000e+00  0.00000000e+00  0.00000000e+00
  0.00000000e+00  0.00000000e+00 -1.43037838e-07  4.35114420e-07
  0.00000000e+00  0.00000000e+00  0.00000000e+00  2.86768572e-06]","[[-2.60351459e-04  5.17971633e-04]
 [-7.90707174e-06 -4.98641519e-03]]",[],0.0,0.0
1787585356.6011584,0.41334295804312565,-0.3836798246624322,0.05354566597119925,"[ 1.04330959e-05 -1.51653273e-07  0.00000000e+00  0.00000000e+00
  0.00000000e+00 -1.43037838e-07 -1.51653273e-07  9.82931558e-06
  0.00000000e+00  0.00000000e+00  0.00000000e+00  4.35114420e-07
  0.00000000e+00  0.00000000e+00  0.00000000e+00  0.00000000e+00
  0.00000000e+00  0.00000000e+00  0.00000000e+00  0.00000000e+00
  0.00000000e+00  0.00000000e+00  0.00000000e+00  0.00000000e+00
  0.00000000e+00  0.00000000e+00  0.00000000e+00  0.00000000e+00
  0.00000000e+00  0.00000000e+00 -1.43037838e-07  4.35114420e-07
  0.00000000e+00  0.00000000e+00  0.00000000e+00  2.86768572e-06]","[[-2.60351459e-04  5.17971633e-04]
 [-7.90707174e-06 -4.98641519e-03]]",[],0.0,0.0
1787585356.644598,0.41334295804312565,-0.3836798246624322,0.05354566597119925,"[ 1.04330959e-05 -1.51653273e-07  0.00000000e+00  0.00000000e+00
  0.00000000e+00 -1.43037838e-07 -1.51653273e-07  9.82931558e-06
  0.00000000e+00  0.00000000e+00  0.00000000e+00  4.35114420e-07
  0.00000000e+00  0.00000000e+00  0.00000000e+00  0.00000000e+00
  0.00000000e+00  0.00000000e+00  0.00000000e+00  0.00000000e+00
  0.00000000e+00  0.00000000e+00  0.00000000e+00  0.00000000e+00
  0.00000000e+00  0.00000000e+00  0.00000000e+00  0.00000000e+00
  0.00000000e+00  0.00000000e+00 -1.43037838e-07  4.35114420e-07
  0.00000000e+00  0.00000000e+00  0.00000000e+00  2.86768572e-06]","[[-2.60351459e-04  5.17971633e-04]
 [-7.90707174e-06 -4.98641519e-03]]",[],0.0,0.0
1787585356.6940918,0.41334295804312565,-0.3836798246624322,0.05354566597119925,"[ 1.04330959e-05 -1.51653273e-07  0.00000000e+00  0.00000000e+00
  0.00000000e+00 -1.43037838e-07 -1.51653273e-07  9.82931558e-06
  0.00000000e+00  0.00000000e+00  0.00000000e+00  4.35114420e-07
  0.00000000e+00  0.00000000e+00  0.00000000e+00  0.00000000e+00
  0.00000000e+00  0.00000000e+00  0.00000000e+00  0.00000000e+00
  0.00000000e+00  0.00000000e+00  0.00000000e+00  0.00000000e+00
  0.00000000e+00  0.00000000e+00  0.00000000e+00  0.00000000e+00
  0.00000000e+00  0.00000000e+00 -1.43037838e-07  4.35114420e-07
  0.00000000e+00  0.00000000e+00  0.00000000e+00  2.86768572e-06]","[[-2.60351459e-04  5.17971633e-04]
 [-7.90707174e-06 -4.98641519e-03]]",[],0.0,0.0
1787585356.7417085,0.41334295804312565,-0.3836798246624322,0.05354566597119925,"[ 1.04330959e-05 -1.51653273e-07  0.00000000e+00  0.00000000e+00
  0.00000000e+00 -1.43037838e-07 -1.51653273e-07  9.82931558e-06
  0.00000000e+00  0.00000000e+00  0.00000000e+00  4.35114420e-07
  0.00000000e+00  0.00000000e+00  0.00000000e+00  0.00000000e+00
  0.00000000e+00  0.00000000e+00  0.00000000e+00  0.00000000e+00
  0.00000000e+00  0.00000000e+00  0.00000000e+00  0.00000000e+00
  0.00000000e+00  0.00000000e+00  0.00000000e+00  0.00000000e+00
  0.00000000e+00  0.00000000e+00 -1.43037838e-07  4.35114420e-07
  0.00000000e+00  0.00000000e+00  0.00000000e+00  2.86768572e-06]","[[-2.60351459e-04  5.17971633e-04]
 [-7.90707174e-06 -4.98641519e-03]]",[],0.0,0.0
1787585356.7929187,0.41334295804312565,-0.3836798246624322,0.05354566597119925,"[ 1.04330959e-05 -1.51653273e-07  0.00000000e+00  0.00000000e+00
  0.00000000e+00 -1.43037838e-07 -1.51653273e-07  9.82931558e-06
  0.00000000e+00  0.00000000e+00  0.00000000e+00  4.35114420e-07
  0.00000000e+00  0.00000000e+00  0.00000000e+00  0.00000000e+00
  0.00000000e+00  0.00000000e+00  0.00000000e+00  0.00000000e+00
  0.00000000e+00  0.00000000e+00  0.00000000e+00  0.00000000e+00
  0.00000000e+00  0.00000000e+00  0.00000000e+00  0.00000000e+00
  0.00000000e+00  0.00000000e+00 -1.43037838e-07  4.35114420e-07
  0.00000000e+00  0.00000000e+00  0.00000000e+00  2.86768572e-06]","[[-2.60351459e-04  5.17971633e-04]
 [-7.90707174e-06 -4.98641519e-03]]",[],0.0,0.0
1787585356.8489692,0.41334295804312565,-0.3836798246624322,0.05354566597119925,"[ 1.04330959e-05 -1.51653273e-07  0.00000000e+00  0.00000000e+00
  0.00000000e+00 -1.43037838e-07 -1.51653273e-07  9.82931558e-06
  0.00000000e+00  0.00000000e+00  0.00000000e+00  4.35114420e-07
  0.00000000e+00  0.00000000e+00  0.00000000e+00  0.00000000e+00
  0.00000000e+00  0.00000000e+00  0.00000000e+00  0.00000000e+00
  0.00000000e+00  0.00000000e+00  0.00000000e+00  0.00000000e+00
  0.00000000e+00  0.00000000e+00  0.00000000e+00  0.00000000e+00
  0.00000000e+00  0.00000000e+00 -1.43037838e-07  4.35114420e-07
  0.00000000e+00  0.00000000e+00  0.00000000e+00  2.86768572e-06]","[[-2.60351459e-04  5.17971633e-04]
 [-7.90707174e-06 -4.98641519e-03]]",[],0.0,0.0
1787585356.8914807,0.41334295804312565,-0.3836798246624322,0.05354566597119925,"[ 1.04330959e-05 -1.51653273e-07  0.00000000e+00  0.00000000e+00
  0.00000000e+00 -1.43037838e-07 -1.51653273e-07  9.82931558e-06
  0.00000000e+00  0.00000000e+00  0.00000000e+00  4.35114420e-07
  0.00000000e+00  0.00000000e+00  0.00000000e+00  0.00000000e+00
  0.00000000e+00  0.00000000e+00  0.00000000e+00  0.00000000e+00
  0.00000000e+00  0.00000000e+00  0.00000000e+00  0.00000000e+00
  0.00000000e+00  0.00000000e+00  0.00000000e+00  0.00000000e+00
  0.00000000e+00  0.00000000e+00 -1.43037838e-07  4.35114420e-07
  0.00000000e+00  0.00000000e+00  0.00000000e+00  2.86768572e-06]","[[-2.60351459e-04  5.17971633e-04]
 [-7.90707174e-06 -4.98641519e-03]]",[],0.0,0.0
1787585356.941674,0.41334295804312565,-0.3836798246624322,0.05354566597119925,"[ 1.04330959e-05 -1.51653273e-07  0.00000000e+00  0.00000000e+00
  0.00000000e+00 -1.43037838e-07 -1.51653273e-07  9.82931558e-06
  0.00000000e+00  0.00000000e+00  0.00000000e+00  4.35114420e-07
  0.00000000e+00  0.00000000e+00  0.00000000e+00  0.00000000e+00
  0.00000000e+00  0.00000000e+00  0.00000000e+00  0.00000000e+00
  0.00000000e+00  0.00000000e+00  0.00000000e+00  0.00000000e+00
  0.00000000e+00  0.00000000e+00  0.00000000e+00  0.00000000e+00
  0.00000000e+00  0.00000000e+00 -1.43037838e-07  4.35114420e-07
  0.00000000e+00  0.00000000e+00  0.00000000e+00  2.86768572e-06]","[[-2.60351459e-04  5.17971633e-04]
 [-7.90707174e-06 -4.98641519e-03]]",[],0.0,0.0
1787585356.99145,0.41334295804312565,-0.3836798246624322,0.05354566597119925,"[ 1.04330959e-05 -1.51653273e-07  0.00000000e+00  0.00000000e+00
  0.00000000e+00 -1.43037838e-07 -1.51653273e-07  9.82931558e-06
  0.00000000e+00  0.00000000e+00  0.00000000e+00  4.35114420e-07
  0.00000000e+00  0.00000000e+00  0.00000000e+00  0.00000000e+00
  0.00000000e+00  0.00000000e+00  0.00000000e+00  0.00000000e+00
  0.00000000e+00  0.00000000e+00  0.00000000e+00  0.00000000e+00
  0.00000000e+00  0.00000000e+00  0.00000000e+00  0.00000000e+00
  0.00000000e+00  0.00000000e+00 -1.43037838e-07  4.35114420e-07
  0.00000000e+00  0.00000000e+00  0.00000000e+00  2.86768572e-06]","[[-2.60351459e-04  5.17971633e-04]
 [-7.90707174e-06 -4.98641519e-03]]",[],0.0,0.0
1787585357.0433075,0.41334295804312565,-0.3836798246624322,0.05354566597119925,"[ 1.04330959e-05 -1.51653273e-07  0.00000000e+00  0.00000000e+00
  0.00000000e+00 -1.43037838e-07 -1.51653273e-07  9.82931558e-06
  0.00000000e+00  0.00000000e+00  0.00000000e+00  4.35114420e-07
  0.00000000e+00  0.00000000e+00  0.00000000e+00  0.00000000e+00
  0.00000000e+00  0.00000000e+00  0.00000000e+00  0.00000000e+00
  0.00000000e+00  0.00000000e+00  0.00000000e+00  0.00000000e+00
  0.00000000e+00  0.00000000e+00  0.00000000e+00  0.00000000e+00
  0.00000000e+00  0.00000000e+00 -1.43037838e-07  4.35114420e-07
  0.00000000e+00  0.00000000e+00  0.00000000e+00  2.86768572e-06]","[[-2.60351459e-04  5.17971633e-04]
 [-7.90707174e-06 -4.98641519e-03]]",[],0.0,0.0
1787585357.0956907,0.41334295804312565,-0.3836798246624322,0.05354566597119925,"[ 1.04330959e-05 -1.51653273e-07  0.00000000e+00  0.00000000e+00
  0.00000000e+00 -1.43037838e-07 -1.51653273e-07  9.82931558e-06
  0.00000000e+00  0.00000000e+00  0.00000000e+00  4.35114420e-07
  0.00000000e+00  0.00000000e+00  0.00000000e+00  0.00000000e+00
  0.00000000e+00  0.00000000e+00  0.00000000e+00  0.00000000e+00
  0.00000000e+00  0.00000000e+00  0.00000000e+00  0.00000000e+00
  0.00000000e+00  0.00000000e+00  0.00000000e+00  0.00000000e+00
  0.00000000e+00  0.00000000e+00 -1.43037838e-07  4.35114420e-07
  0.00000000e+00  0.00000000e+00  0.00000000e+00  2.86768572e-06]","[[-2.60351459e-04  5.17971633e-04]
 [-7.90707174e-06 -4.98641519e-03]]",[],0.0,0.0
1787585357.1524634,0.41334295804312565,-0.3836798246624322,0.05354566597119925,"[ 1.04330959e-05 -1.51653273e-07  0.00000000e+00  0.00000000e+00
  0.00000000e+00 -1.43037838e-07 -1.51653273e-07  9.82931558e-06
  0.00000000e+00  0.00000000e+00  0.00000000e+00  4.35114420e-07
  0.00000000e+00  0.00000000e+00  0.00000000e+00  0.00000000e+00
  0.00000000e+00  0.00000000e+00  0.00000000e+00  0.00000000e+00
  0.00000000e+00  0.00000000e+00  0.00000000e+00  0.00000000e+00
  0.00000000e+00  0.00000000e+00  0.00000000e+00  0.00000000e+00
  0.00000000e+00  0.00000000e+00 -1.43037838e-07  4.35114420e-07
  0.00000000e+00  0.00000000e+00  0.00000000e+00  2.86768572e-06]","[[-2.60351459e-04  5.17971633e-04]
 [-7.90707174e-06 -4.98641519e-03]]",[],0.0,0.0
1787585357.203511,0.41334295804312565,-0.3836798246624322,0.05354566597119925,"[ 1.04330959e-05 -1.51653273e-07  0.00000000e+00  0.00000000e+00
  0.00000000e+00 -1.43037838e-07 -1.51653273e-07  9.82931558e-06
  0.00000000e+00  0.00000000e+00  0.00000000e+00  4.35114420e-07
  0.00000000e+00  0.00000000e+00  0.00000000e+00  0.00000000e+00
  0.00000000e+00  0.00000000e+00  0.00000000e+00  0.00000000e+00
  0.00000000e+00  0.00000000e+00  0.00000000e+00  0.00000000e+00
  0.00000000e+00  0.00000000e+00  0.00000000e+00  0.00000000e+00
  0.00000000e+00  0.00000000e+00 -1.43037838e-07  4.35114420e-07
  0.00000000e+00  0.00000000e+00  0.00000000e+00  2.86768572e-06]","[[-2.60351459e-04  5.17971633e-04]
 [-7.90707174e-06 -4.98641519e-03]]",[],0.0,0.0
1787585357.2505066,0.41334295804312565,-0.3836798246624322,0.05354566597119925,"[ 1.04330959e-05 -1.51653273e-07  0.00000000e+00  0.00000000e+00
  0.00000000e+00 -1.43037838e-07 -1.51653273e-07  9.82931558e-06
  0.00000000e+00  0.00000000e+00  0.00000000e+00  4.35114420e-07
  0.00000000e+00  0.00000000e+00  0.00000000e+00  0.00000000e+00
  0.00000000e+00  0.00000000e+00  0.00000000e+00  0.00000000e+00
  0.00000000e+00  0.00000000e+00  0.00000000e+00  0.00000000e+00
  0.00000000e+00  0.00000000e+00  0.00000000e+00  0.00000000e+00
  0.00000000e+00  0.00000000e+00 -1.43037838e-07  4.35114420e-07
  0.00000000e+00  0.00000000e+00  0.00000000e+00  2.86768572e-06]","[[-2.60351459e-04  5.17971633e-04]
 [-7.90707174e-06 -4.98641519e-03]]",[],0.0,0.0
1787585357.3003888,0.41334295804312565,-0.3836798246624322,0.05354566597119925,"[ 1.04330959e-05 -1.51653273e-07  0.00000000e+00  0.00000000e+00
  0.00000000e+00 -1.43037838e-07 -1.51653273e-07  9.82931558e-06
  0.00000000e+00  0.00000000e+00  0.00000000e+00  4.35114420e-07
  0.00000000e+00  0.00000000e+00  0.00000000e+00  0.00000000e+00
  0.00000000e+00  0.00000000e+00  0.00000000e+00  0.00000000e+00
  0.00000000e+00  0.00000000e+00  0.00000000e+00  0.00000000e+00
  0.00000000e+00  0.00000000e+00  0.00000000e+00  0.00000000e+00
  0.00000000e+00  0.00000000e+00 -1.43037838e-07  4.35114420e-07
  0.00000000e+00  0.00000000e+00  0.00000000e+00  2.86768572e-06]","[[-2.60351459e-04  5.17971633e-04]
 [-7.90707174e-06 -4.98641519e-03]]",[],0.0,0.0
1787585357.342626,0.4106606756370675,-0.3918861349739096,0.04152877030884471,"[ 8.87305961e-06 -8.87668108e-08  0.00000000e+00  0.00000000e+00
  0.00000000e+00 -9.86180457e-08 -8.87668108e-08  8.18159740e-06
  0.00000000e+00  0.00000000e+00  0.00000000e+00  2.90528231e-07
  0.00000000e+00  0.00000000e+00  0.00000000e+00  0.00000000e+00
  0.00000000e+00  0.00000000e+00  0.00000000e+00  0.00000000e+00
  0.00000000e+00  0.00000000e+00  0.00000000e+00  0.00000000e+00
  0.00000000e+00  0.00000000e+00  0.00000000e+00  0.00000000e+00
  0.00000000e+00  0.00000000e+00 -9.86180457e-08  2.90528231e-07
  0.00000000e+00  0.00000000e+00  0.00000000e+00  2.86739757e-06]","[[-2.21699249e-04  2.99247768e-04]
 [-2.95876392e-06 -4.03509657e-03]]",[],0.0,0.0
1787585357.3914738,0.4106606756370675,-0.3918861349739096,0.04152877030884471,"[ 8.87305961e-06 -8.87668108e-08  0.00000000e+00  0.00000000e+00
  0.00000000e+00 -9.86180457e-08 -8.87668108e-08  8.18159740e-06
  0.00000000e+00  0.00000000e+00  0.00000000e+00  2.90528231e-07
  0.00000000e+00  0.00000000e+00  0.00000000e+00  0.00000000e+00
  0.00000000e+00  0.00000000e+00  0.00000000e+00  0.00000000e+00
  0.00000000e+00  0.00000000e+00  0.00000000e+00  0.00000000e+00
  0.00000000e+00  0.00000000e+00  0.00000000e+00  0.00000000e+00
  0.00000000e+00  0.00000000e+00 -9.86180457e-08  2.90528231e-07
  0.00000000e+00  0.00000000e+00  0.00000000e+00  2.86739757e-06]","[[-2.21699249e-04  2.99247768e-04]
 [-2.95876392e-06 -4.03509657e-03]]",[],0.0,0.0
1787585357.4442058,0.4106606756370675,-0.3918861349739096,0.04152877030884471,"[ 8.87305961e-06 -8.87668108e-08  0.00000000e+00  0.00000000e+00
  0.00000000e+00 -9.86180457e-08 -8.87668108e-08  8.18159740e-06
  0.00000000e+00  0.00000000e+00  0.00000000e+00  2.90528231e-07
  0.00000000e+00  0.00000000e+00  0.00000000e+00  0.00000000e+00
  0.00000000e+00  0.00000000e+00  0.00000000e+00  0.00000000e+00
  0.00000000e+00  0.00000000e+00  0.00000000e+00  0.00000000e+00
  0.00000000e+00  0.00000000e+00  0.00000000e+00  0.00000000e+00
  0.00000000e+00  0.00000000e+00 -9.86180457e-08  2.90528231e-07
  0.00000000e+00  0.00000000e+00  0.00000000e+00  2.86739757e-06]","[[-2.21699249e-04  2.99247768e-04]
 [-2.95876392e-06 -4.03509657e-03]]",[],0.0,0.0
1787585357.491904,0.4106606756370675,-0.3918861349739096,0.04152877030884471,"[ 8.87305961e-06 -8.87668108e-08  0.00000000e+00  0.00000000e+00
  0.00000000e+00 -9.86180457e-08 -8.87668108e-08  8.18159740e-06
  0.00000000e+00  0.00000000e+00  0.00000000e+00  2.90528231e-07
  0.00000000e+00  0.00000000e+00  0.00000000e+00  0.00000000e+00
  0.00000000e+00  0.00000000e+00  0.00000000e+00  0.00000000e+00
  0.00000000e+00  0.00000000e+00  0.00000000e+00  0.00000000e+00
  0.00000000e+00  0.00000000e+00  0.00000000e+00  0.00000000e+00
  0.00000000e+00  0.00000000e+00 -9.86180457e-08  2.90528231e-07
  0.00000000e+00  0.00000000e+00  0.00000000e+00  2.86739757e-06]","[[-2.21699249e-04  2.99247768e-04]
 [-2.95876392e-06 -4.03509657e-03]]",[],0.0,0.0
1787585357.54213,0.4106606756370675,-0.3918861349739096,0.04152877030884471,"[ 8.87305961e-06 -8.87668108e-08  0.00000000e+00  0.00000000e+00
  0.00000000e+00 -9.86180457e-08 -8.87668108e-08  8.18159740e-06
  0.00000000e+00  0.00000000e+00  0.00000000e+00  2.90528231e-07
  0.00000000e+00  0.00000000e+00  0.00000000e+00  0.00000000e+00
  0.00000000e+00  0.00000000e+00  0.00000000e+00  0.00000000e+00
  0.00000000e+00  0.00000000e+00  0.00000000e+00  0.00000000e+00
  0.00000000e+00  0.00000000e+00  0.00000000e+00  0.00000000e+00
  0.00000000e+00  0.00000000e+00 -9.86180457e-08  2.90528231e-07
  0.00000000e+00  0.00000000e+00  0.00000000e+00  2.86739757e-06]","[[-2.21699249e-04  2.99247768e-04]
 [-2.95876392e-06 -4.03509657e-03]]",[],0.0,0.0
1787585357.592255,0.4106606756370675,-0.3918861349739096,0.04152877030884471,"[ 8.87305961e-06 -8.87668108e-08  0.00000000e+00  0.00000000e+00
  0.00000000e+00 -9.86180457e-08 -8.87668108e-08  8.18159740e-06
  0.00000000e+00  0.00000000e+00  0.00000000e+00  2.90528231e-07
  0.00000000e+00  0.00000000e+00  0.00000000e+00  0.00000000e+00
  0.00000000e+00  0.00000000e+00  0.00000000e+00  0.00000000e+00
  0.00000000e+00  0.00000000e+00  0.00000000e+00  0.00000000e+00
  0.00000000e+00  0.00000000e+00  0.00000000e+00  0.00000000e+00
  0.00000000e+00  0.00000000e+00 -9.86180457e-08  2.90528231e-07
  0.00000000e+00  0.00000000e+00  0.00000000e+00  2.86739757e-06]","[[-2.21699249e-04  2.99247768e-04]
 [-2.95876392e-06 -4.03509657e-03]]",[],0.0,0.0
1787585357.641968,0.4106606756370675,-0.3918861349739096,0.04152877030884471,"[ 8.87305961e-06 -8.87668108e-08  0.00000000e+00  0.00000000e+00
  0.00000000e+00 -9.86180457e-08 -8.87668108e-08  8.18159740e-06
  0.00000000e+00  0.00000000e+00  0.00000000e+00  2.90528231e-07
  0.00000000e+00  0.00000000e+00  0.00000000e+00  0.00000000e+00
  0.00000000e+00  0.00000000e+00  0.00000000e+00  0.00000000e+00
  0.00000000e+00  0.00000000e+00  0.00000000e+00  0.00000000e+00
  0.00000000e+00  0.00000000e+00  0.00000000e+00  0.00000000e+00
  0.00000000e+00  0.00000000e+00 -9.86180457e-08  2.90528231e-07
  0.00000000e+00  0.00000000e+00  0.00000000e+00  2.86739757e-06]","[[-2.21699249e-04  2.99247768e-04]
 [-2.95876392e-06 -4.03509657e-03]]",[],0.0,0.0
1787585357.693946,0.4106606756370675,-0.3918861349739096,0.04152877030884471,"[ 8.87305961e-06 -8.87668108e-08  0.00000000e+00  0.00000000e+00
  0.00000000e+00 -9.86180457e-08 -8.87668108e-08  8.18159740e-06
  0.00000000e+00  0.00000000e+00  0.00000000e+00  2.90528231e-07
  0.00000000e+00  0.00000000e+00  0.00000000e+00  0.00000000e+00
  0.00000000e+00  0.00000000e+00  0.00000000e+00  0.00000000e+00
  0.00000000e+00  0.00000000e+00  0.00000000e+00  0.00000000e+00
  0.00000000e+00  0.00000000e+00  0.00000000e+00  0.00000000e+00
  0.00000000e+00  0.00000000e+00 -9.86180457e-08  2.90528231e-07
  0.00000000e+00  0.00000000e+00  0.00000000e+00  2.86739757e-06]","[[-2.21699249e-04  2.99247768e-04]
 [-2.95876392e-06 -4.03509657e-03]]",[],0.0,0.0
1787585357.7420473,0.4106606756370675,-0.3918861349739096,0.04152877030884471,"[ 8.87305961e-06 -8.87668108e-08  0.00000000e+00  0.00000000e+00
  0.00000000e+00 -9.86180457e-08 -8.87668108e-08  8.18159740e-06
  0.00000000e+00  0.00000000e+00  0.00000000e+00  2.90528231e-07
  0.00000000e+00  0.00000000e+00  0.00000000e+00  0.00000000e+00
  0.00000000e+00  0.00000000e+00  0.00000000e+00  0.00000000e+00
  0.00000000e+00  0.00000000e+00  0.00000000e+00  0.00000000e+00
  0.00000000e+00  0.00000000e+00  0.00000000e+00  0.00000000e+00
  0.00000000e+00  0.00000000e+00 -9.86180457e-08  2.90528231e-07
  0.00000000e+00  0.00000000e+00  0.00000000e+00  2.86739757e-06]","[[-2.21699249e-04  2.99247768e-04]
 [-2.95876392e-06 -4.03509657e-03]]",[],0.0,0.0
1787585357.7930846,0.4106606756370675,-0.3918861349739096,0.04152877030884471,"[ 8.87305961e-06 -8.87668108e-08  0.00000000e+00  0.00000000e+00
  0.00000000e+00 -9.86180457e-08 -8.87668108e-08  8.18159740e-06
  0.00000000e+00  0.00000000e+00  0.00000000e+00  2.90528231e-07
  0.00000000e+00  0.00000000e+00  0.00000000e+00  0.00000000e+00
  0.00000000e+00  0.00000000e+00  0.00000000e+00  0.00000000e+00
  0.00000000e+00  0.00000000e+00  0.00000000e+00  0.00000000e+00
  0.00000000e+00  0.00000000e+00  0.00000000e+00  0.00000000e+00
  0.00000000e+00  0.00000000e+00 -9.86180457e-08  2.90528231e-07
  0.00000000e+00  0.00000000e+00  0.00000000e+00  2.86739757e-06]","[[-2.21699249e-04  2.99247768e-04]
 [-2.95876392e-06 -4.03509657e-03]]",[],0.0,0.0
1787585357.842659,0.4106606756370675,-0.3918861349739096,0.04152877030884471,"[ 8.87305961e-06 -8.87668108e-08  0.00000000e+00  0.00000000e+00
  0.00000000e+00 -9.86180457e-08 -8.87668108e-08  8.18159740e-06
  0.00000000e+00  0.00000000e+00  0.00000000e+00  2.90528231e-07
  0.00000000e+00  0.00000000e+00  0.00000000e+00  0.00000000e+00
  0.00000000e+00  0.00000000e+00  0.00000000e+00  0.00000000e+00
  0.00000000e+00  0.00000000e+00  0.00000000e+00  0.00000000e+00
  0.00000000e+00  0.00000000e+00  0.00000000e+00  0.00000000e+00
  0.00000000e+00  0.00000000e+00 -9.86180457e-08  2.90528231e-07
  0.00000000e+00  0.00000000e+00  0.00000000e+00  2.86739757e-06]","[[-2.21699249e-04  2.99247768e-04]
 [-2.95876392e-06 -4.03509657e-03]]",[],0.0,0.0
1787585357.8932524,0.4106606756370675,-0.3918861349739096,0.04152877030884471,"[ 8.87305961e-06 -8.87668108e-08  0.00000000e+00  0.00000000e+00
  0.00000000e+00 -9.86180457e-08 -8.87668108e-08  8.18159740e-06
  0.00000000e+00  0.00000000e+00  0.00000000e+00  2.90528231e-07
  0.00000000e+00  0.00000000e+00  0.00000000e+00  0.00000000e+00
  0.00000000e+00  0.00000000e+00  0.00000000e+00  0.00000000e+00
  0.00000000e+00  0.00000000e+00  0.00000000e+00  0.00000000e+00
  0.00000000e+00  0.00000000e+00  0.00000000e+00  0.00000000e+00
  0.00000000e+00  0.00000000e+00 -9.86180457e-08  2.90528231e-07
  0.00000000e+00  0.00000000e+00  0.00000000e+00  2.86739757e-06]","[[-2.21699249e-04  2.99247768e-04]
 [-2.95876392e-06 -4.03509657e-03]]",[],0.0,0.0
1787585357.9756653,0.4106606756370675,-0.3918861349739096,0.04152877030884471,"[ 8.87305961e-06 -8.87668108e-08  0.00000000e+00  0.00000000e+00
  0.00000000e+00 -9.86180457e-08 -8.87668108e-08  8.18159740e-06
  0.00000000e+00  0.00000000e+00  0.00000000e+00  2.90528231e-07
  0.00000000e+00  0.00000000e+00  0.00000000e+00  0.00000000e+00
  0.00000000e+00  0.00000000e+00  0.00000000e+00  0.00000000e+00
  0.00000000e+00  0.00000000e+00  0.00000000e+00  0.00000000e+00
  0.00000000e+00  0.00000000e+00  0.00000000e+00  0.00000000e+00
  0.00000000e+00  0.00000000e+00 -9.86180457e-08  2.90528231e-07
  0.00000000e+00  0.00000000e+00  0.00000000e+00  2.86739757e-06]","[[-2.21699249e-04  2.99247768e-04]
 [-2.95876392e-06 -4.03509657e-03]]",[],0.0,0.0
1787585357.9952414,0.4106606756370675,-0.3918861349739096,0.04152877030884471,"[ 8.87305961e-06 -8.87668108e-08  0.00000000e+00  0.00000000e+00
  0.00000000e+00 -9.86180457e-08 -8.87668108e-08  8.18159740e-06
  0.00000000e+00  0.00000000e+00  0.00000000e+00  2.90528231e-07
  0.00000000e+00  0.00000000e+00  0.00000000e+00  0.00000000e+00
  0.00000000e+00  0.00000000e+00  0.00000000e+00  0.00000000e+00
  0.00000000e+00  0.00000000e+00  0.00000000e+00  0.00000000e+00
  0.00000000e+00  0.00000000e+00  0.00000000e+00  0.00000000e+00
  0.00000000e+00  0.00000000e+00 -9.86180457e-08  2.90528231e-07
  0.00000000e+00  0.00000000e+00  0.00000000e+00  2.86739757e-06]","[[-2.21699249e-04  2.99247768e-04]
 [-2.95876392e-06 -4.03509657e-03]]",[],0.0,0.0
1787585358.04229,0.4106606756370675,-0.3918861349739096,0.04152877030884471,"[ 8.87305961e-06 -8.87668108e-08  0.00000000e+00  0.00000000e+00
  0.00000000e+00 -9.86180457e-08 -8.87668108e-08  8.18159740e-06
  0.00000000e+00  0.00000000e+00  0.00000000e+00  2.90528231e-07
  0.00000000e+00  0.00000000e+00  0.00000000e+00  0.00000000e+00
  0.00000000e+00  0.00000000e+00  0.00000000e+00  0.00000000e+00
  0.00000000e+00  0.00000000e+00  0.00000000e+00  0.00000000e+00
  0.00000000e+00  0.00000000e+00  0.00000000e+00  0.00000000e+00
  0.00000000e+00  0.00000000e+00 -9.86180457e-08  2.90528231e-07
  0.00000000e+00  0.00000000e+00  0.00000000e+00  2.86739757e-06]","[[-2.21699249e-04  2.99247768e-04]
 [-2.95876392e-06 -4.03509657e-03]]",[],0.0,0.0
1787585358.0997388,0.4106606756370675,-0.3918861349739096,0.04152877030884471,"[ 8.87305961e-06 -8.87668108e-08  0.00000000e+00  0.00000000e+00
  0.00000000e+00 -9.86180457e-08 -8.87668108e-08  8.18159740e-06
  0.00000000e+00  0.00000000e+00  0.00000000e+00  2.90528231e-07
  0.00000000e+00  0.00000000e+00  0.00000000e+00  0.00000000e+00
  0.00000000e+00  0.00000000e+00  0.00000000e+00  0.00000000e+00
  0.00000000e+00  0.00000000e+00  0.00000000e+00  0.00000000e+00
  0.00000000e+00  0.00000000e+00  0.00000000e+00  0.00000000e+00
  0.00000000e+00  0.00000000e+00 -9.86180457e-08  2.90528231e-07
  0.00000000e+00  0.00000000e+00  0.00000000e+00  2.86739757e-06]","[[-2.21699249e-04  2.99247768e-04]
 [-2.95876392e-06 -4.03509657e-03]]",[],0.0,0.0
1787585358.143747,0.4106606756370675,-0.3918861349739096,0.04152877030884471,"[ 8.87305961e-06 -8.87668108e-08  0.00000000e+00  0.00000000e+00
  0.00000000e+00 -9.86180457e-08 -8.87668108e-08  8.18159740e-06
  0.00000000e+00  0.00000000e+00  0.00000000e+00  2.90528231e-07
  0.00000000e+00  0.00000000e+00  0.00000000e+00  0.00000000e+00
  0.00000000e+00  0.00000000e+00  0.00000000e+00  0.00000000e+00
  0.00000000e+00  0.00000000e+00  0.00000000e+00  0.00000000e+00
  0.00000000e+00  0.00000000e+00  0.00000000e+00  0.00000000e+00
  0.00000000e+00  0.00000000e+00 -9.86180457e-08  2.90528231e-07
  0.00000000e+00  0.00000000e+00  0.00000000e+00  2.86739757e-06]","[[-2.21699249e-04  2.99247768e-04]
 [-2.95876392e-06 -4.03509657e-03]]",[],0.0,0.0
1787585358.194508,0.4106606756370675,-0.3918861349739096,0.04152877030884471,"[ 8.87305961e-06 -8.87668108e-08  0.00000000e+00  0.00000000e+00
  0.00000000e+00 -9.86180457e-08 -8.87668108e-08  8.18159740e-06
  0.00000000e+00  0.00000000e+00  0.00000000e+00  2.90528231e-07
  0.00000000e+00  0.00000000e+00  0.00000000e+00  0.00000000e+00
  0.00000000e+00  0.00000000e+00  0.00000000e+00  0.00000000e+00
  0.00000000e+00  0.00000000e+00  0.00000000e+00  0.00000000e+00
  0.00000000e+00  0.00000000e+00  0.00000000e+00  0.00000000e+00
  0.00000000e+00  0.00000000e+00 -9.86180457e-08  2.90528231e-07
  0.00000000e+00  0.00000000e+00  0.00000000e+00  2.86739757e-06]","[[-2.21699249e-04  2.99247768e-04]
 [-2.95876392e-06 -4.03509657e-03]]",[],0.0,0.0
1787585358.2425551,0.4106606756370675,-0.3918861349739096,0.04152877030884471,"[ 8.87305961e-06 -8.87668108e-08  0.00000000e+00  0.00000000e+00
  0.00000000e+00 -9.86180457e-08 -8.87668108e-08  8.18159740e-06
  0.00000000e+00  0.00000000e+00  0.00000000e+00  2.90528231e-07
  0.00000000e+00  0.00000000e+00  0.00000000e+00  0.00000000e+00
  0.00000000e+00  0.00000000e+00  0.00000000e+00  0.00000000e+00
  0.00000000e+00  0.00000000e+00  0.00000000e+00  0.00000000e+00
  0.00000000e+00  0.00000000e+00  0.00000000e+00  0.00000000e+00
  0.00000000e+00  0.00000000e+00 -9.86180457e-08  2.90528231e-07
  0.00000000e+00  0.00000000e+00  0.00000000e+00  2.86739757e-06]","[[-2.21699249e-04  2.99247768e-04]
 [-2.95876392e-06 -4.03509657e-03]]",[],0.0,0.0
1787585358.2948172,0.408645829822509,-0.3982884291349572,0.02106820074811333,"[ 7.78052755e-06 -7.63300322e-08  0.00000000e+00  0.00000000e+00
  0.00000000e+00 -8.61625299e-08 -7.63300322e-08  7.00650247e-06
  0.00000000e+00  0.00000000e+00  0.00000000e+00  2.52585179e-07
  0.00000000e+00  0.00000000e+00  0.00000000e+00  0.00000000e+00
  0.00000000e+00  0.00000000e+00  0.00000000e+00  0.00000000e+00
  0.00000000e+00  0.00000000e+00  0.00000000e+00  0.00000000e+00
  0.00000000e+00  0.00000000e+00  0.00000000e+00  0.00000000e+00
  0.00000000e+00  0.00000000e+00 -8.61625299e-08  2.52585179e-07
  0.00000000e+00  0.00000000e+00  0.00000000e+00  2.87856030e-06]","[[-1.94417117e-04  2.53730251e-04]
 [-2.14089498e-06 -3.45995488e-03]]",[],0.0,0.0
1787585358.359395,0.408645829822509,-0.3982884291349572,0.02106820074811333,"[ 7.78052755e-06 -7.63300322e-08  0.00000000e+00  0.00000000e+00
  0.00000000e+00 -8.61625299e-08 -7.63300322e-08  7.00650247e-06
  0.00000000e+00  0.00000000e+00  0.00000000e+00  2.52585179e-07
  0.00000000e+00  0.00000000e+00  0.00000000e+00  0.00000000e+00
  0.00000000e+00  0.00000000e+00  0.00000000e+00  0.00000000e+00
  0.00000000e+00  0.00000000e+00  0.00000000e+00  0.00000000e+00
  0.00000000e+00  0.00000000e+00  0.00000000e+00  0.00000000e+00
  0.00000000e+00  0.00000000e+00 -8.61625299e-08  2.52585179e-07
  0.00000000e+00  0.00000000e+00  0.00000000e+00  2.87856030e-06]","[[-1.94417117e-04  2.53730251e-04]
 [-2.14089498e-06 -3.45995488e-03]]",[],0.0,0.0
1787585358.3922489,0.408645829822509,-0.3982884291349572,0.02106820074811333,"[ 7.78052755e-06 -7.63300322e-08  0.00000000e+00  0.00000000e+00
  0.00000000e+00 -8.61625299e-08 -7.63300322e-08  7.00650247e-06
  0.00000000e+00  0.00000000e+00  0.00000000e+00  2.52585179e-07
  0.00000000e+00  0.00000000e+00  0.00000000e+00  0.00000000e+00
  0.00000000e+00  0.00000000e+00  0.00000000e+00  0.00000000e+00
  0.00000000e+00  0.00000000e+00  0.00000000e+00  0.00000000e+00
  0.00000000e+00  0.00000000e+00  0.00000000e+00  0.00000000e+00
  0.00000000e+00  0.00000000e+00 -8.61625299e-08  2.52585179e-07
  0.00000000e+00  0.00000000e+00  0.00000000e+00  2.87856030e-06]","[[-1.94417117e-04  2.53730251e-04]
 [-2.14089498e-06 -3.45995488e-03]]",[],0.0,0.0
1787585358.4425533,0.408645829822509,-0.3982884291349572,0.02106820074811333,"[ 7.78052755e-06 -7.63300322e-08  0.00000000e+00  0.00000000e+00
  0.00000000e+00 -8.61625299e-08 -7.63300322e-08  7.00650247e-06
  0.00000000e+00  0.00000000e+00  0.00000000e+00  2.52585179e-07
  0.00000000e+00  0.00000000e+00  0.00000000e+00  0.00000000e+00
  0.00000000e+00  0.00000000e+00  0.00000000e+00  0.00000000e+00
  0.00000000e+00  0.00000000e+00  0.00000000e+00  0.00000000e+00
  0.00000000e+00  0.00000000e+00  0.00000000e+00  0.00000000e+00
  0.00000000e+00  0.00000000e+00 -8.61625299e-08  2.52585179e-07
  0.00000000e+00  0.00000000e+00  0.00000000e+00  2.87856030e-06]","[[-1.94417117e-04  2.53730251e-04]
 [-2.14089498e-06 -3.45995488e-03]]",[],0.0,0.0
1787585358.492053,0.408645829822509,-0.3982884291349572,0.02106820074811333,"[ 7.78052755e-06 -7.63300322e-08  0.00000000e+00  0.00000000e+00
  0.00000000e+00 -8.61625299e-08 -7.63300322e-08  7.00650247e-06
  0.00000000e+00  0.00000000e+00  0.00000000e+00  2.52585179e-07
  0.00000000e+00  0.00000000e+00  0.00000000e+00  0.00000000e+00
  0.00000000e+00  0.00000000e+00  0.00000000e+00  0.00000000e+00
  0.00000000e+00  0.00000000e+00  0.00000000e+00  0.00000000e+00
  0.00000000e+00  0.00000000e+00  0.00000000e+00  0.00000000e+00
  0.00000000e+00  0.00000000e+00 -8.61625299e-08  2.52585179e-07
  0.00000000e+00  0.00000000e+00  0.00000000e+00  2.87856030e-06]","[[-1.94417117e-04  2.53730251e-04]
 [-2.14089498e-06 -3.45995488e-03]]",[],0.0,0.0
1787585358.5500832,0.408645829822509,-0.3982884291349572,0.02106820074811333,"[ 7.78052755e-06 -7.63300322e-08  0.00000000e+00  0.00000000e+00
  0.00000000e+00 -8.61625299e-08 -7.63300322e-08  7.00650247e-06
  0.00000000e+00  0.00000000e+00  0.00000000e+00  2.52585179e-07
  0.00000000e+00  0.00000000e+00  0.00000000e+00  0.00000000e+00
  0.00000000e+00  0.00000000e+00  0.00000000e+00  0.00000000e+00
  0.00000000e+00  0.00000000e+00  0.00000000e+00  0.00000000e+00
  0.00000000e+00  0.00000000e+00  0.00000000e+00  0.00000000e+00
  0.00000000e+00  0.00000000e+00 -8.61625299e-08  2.52585179e-07
  0.00000000e+00  0.00000000e+00  0.00000000e+00  2.87856030e-06]","[[-1.94417117e-04  2.53730251e-04]
 [-2.14089498e-06 -3.45995488e-03]]",[],0.0,0.0
1787585358.6022303,0.408645829822509,-0.3982884291349572,0.02106820074811333,"[ 7.78052755e-06 -7.63300322e-08  0.00000000e+00  0.00000000e+00
  0.00000000e+00 -8.61625299e-08 -7.63300322e-08  7.00650247e-06
  0.00000000e+00  0.00000000e+00  0.00000000e+00  2.52585179e-07
  0.00000000e+00  0.00000000e+00  0.00000000e+00  0.00000000e+00
  0.00000000e+00  0.00000000e+00  0.00000000e+00  0.00000000e+00
  0.00000000e+00  0.00000000e+00  0.00000000e+00  0.00000000e+00
  0.00000000e+00  0.00000000e+00  0.00000000e+00  0.00000000e+00
  0.00000000e+00  0.00000000e+00 -8.61625299e-08  2.52585179e-07
  0.00000000e+00  0.00000000e+00  0.00000000e+00  2.87856030e-06]","[[-1.94417117e-04  2.53730251e-04]
 [-2.14089498e-06 -3.45995488e-03]]",[],0.0,0.0
1787585358.6751184,0.408645829822509,-0.3982884291349572,0.02106820074811333,"[ 7.78052755e-06 -7.63300322e-08  0.00000000e+00  0.00000000e+00
  0.00000000e+00 -8.61625299e-08 -7.63300322e-08  7.00650247e-06
  0.00000000e+00  0.00000000e+00  0.00000000e+00  2.52585179e-07
  0.00000000e+00  0.00000000e+00  0.00000000e+00  0.00000000e+00
  0.00000000e+00  0.00000000e+00  0.00000000e+00  0.00000000e+00
  0.00000000e+00  0.00000000e+00  0.00000000e+00  0.00000000e+00
  0.00000000e+00  0.00000000e+00  0.00000000e+00  0.00000000e+00
  0.00000000e+00  0.00000000e+00 -8.61625299e-08  2.52585179e-07
  0.00000000e+00  0.00000000e+00  0.00000000e+00  2.87856030e-06]","[[-1.94417117e-04  2.53730251e-04]
 [-2.14089498e-06 -3.45995488e-03]]",[],0.0,0.0
1787585358.7220917,0.408645829822509,-0.3982884291349572,0.02106820074811333,"[ 7.78052755e-06 -7.63300322e-08  0.00000000e+00  0.00000000e+00
  0.00000000e+00 -8.61625299e-08 -7.63300322e-08  7.00650247e-06
  0.00000000e+00  0.00000000e+00  0.00000000e+00  2.52585179e-07
  0.00000000e+00  0.00000000e+00  0.00000000e+00  0.00000000e+00
  0.00000000e+00  0.00000000e+00  0.00000000e+00  0.00000000e+00
  0.00000000e+00  0.00000000e+00  0.00000000e+00  0.00000000e+00
  0.00000000e+00  0.00000000e+00  0.00000000e+00  0.00000000e+00
  0.00000000e+00  0.00000000e+00 -8.61625299e-08  2.52585179e-07
  0.00000000e+00  0.00000000e+00  0.00000000e+00  2.87856030e-06]","[[-1.94417117e-04  2.53730251e-04]
 [-2.14089498e-06 -3.45995488e-03]]",[],0.0,0.0
1787585359.1688333,0.408645829822509,-0.3982884291349572,0.02106820074811333,"[ 7.78052755e-06 -7.63300322e-08  0.00000000e+00  0.00000000e+00
  0.00000000e+00 -8.61625299e-08 -7.63300322e-08  7.00650247e-06
  0.00000000e+00  0.00000000e+00  0.00000000e+00  2.52585179e-07
  0.00000000e+00  0.00000000e+00  0.00000000e+00  0.00000000e+00
  0.00000000e+00  0.00000000e+00  0.00000000e+00  0.00000000e+00
  0.00000000e+00  0.00000000e+00  0.00000000e+00  0.00000000e+00
  0.00000000e+00  0.00000000e+00  0.00000000e+00  0.00000000e+00
  0.00000000e+00  0.00000000e+00 -8.61625299e-08  2.52585179e-07
  0.00000000e+00  0.00000000e+00  0.00000000e+00  2.87856030e-06]","[[-1.94417117e-04  2.53730251e-04]
 [-2.14089498e-06 -3.45995488e-03]]",[],0.0,0.0
1787585360.0556874,0.4088014093385706,-0.4020716951374256,-0.0002551253827003386,"[ 6.92796687e-06 -6.06586244e-08  0.00000000e+00  0.00000000e+00
  0.00000000e+00 -5.63065703e-08 -6.06586244e-08  6.11056900e-06
  0.00000000e+00  0.00000000e+00  0.00000000e+00  2.36865118e-07
  0.00000000e+00  0.00000000e+00  0.00000000e+00  0.00000000e+00
  0.00000000e+00  0.00000000e+00  0.00000000e+00  0.00000000e+00
  0.00000000e+00  0.00000000e+00  0.00000000e+00  0.00000000e+00
  0.00000000e+00  0.00000000e+00  0.00000000e+00  0.00000000e+00
  0.00000000e+00  0.00000000e+00 -5.63065703e-08  2.36865118e-07
  0.00000000e+00  0.00000000e+00  0.00000000e+00  2.77954393e-06]","[[-1.73203146e-04  7.64356277e-05]
 [ 3.70111739e-06 -3.04565093e-03]]",[],0.0,0.0
1787585360.0970974,0.4083422865714371,-0.40431817620430266,-0.0077241184982566055,"[ 6.27347497e-06 -6.32092545e-08  0.00000000e+00  0.00000000e+00
  0.00000000e+00  2.29999324e-08 -6.32092545e-08  5.40859734e-06
  0.00000000e+00  0.00000000e+00  0.00000000e+00  1.86807534e-07
  0.00000000e+00  0.00000000e+00  0.00000000e+00  0.00000000e+00
  0.00000000e+00  0.00000000e+00  0.00000000e+00  0.00000000e+00
  0.00000000e+00  0.00000000e+00  0.00000000e+00  0.00000000e+00
  0.00000000e+00  0.00000000e+00  0.00000000e+00  0.00000000e+00
  0.00000000e+00  0.00000000e+00  2.29999324e-08  1.86807534e-07
  0.00000000e+00  0.00000000e+00  0.00000000e+00  2.76033357e-06]","[[-1.56844015e-04 -4.68560362e-05]
 [ 3.37965110e-06 -2.65811183e-03]]",[],0.0,0.0
1787585360.14221,0.4083422865714371,-0.40431817620430266,-0.0077241184982566055,"[ 6.27347497e-06 -6.32092545e-08  0.00000000e+00  0.00000000e+00
  0.00000000e+00  2.29999324e-08 -6.32092545e-08  5.40859734e-06
  0.00000000e+00  0.00000000e+00  0.00000000e+00  1.86807534e-07
  0.00000000e+00  0.00000000e+00  0.00000000e+00  0.00000000e+00
  0.00000000e+00  0.00000000e+00  0.00000000e+00  0.00000000e+00
  0.00000000e+00  0.00000000e+00  0.00000000e+00  0.00000000e+00
  0.00000000e+00  0.00000000e+00  0.00000000e+00  0.00000000e+00
  0.00000000e+00  0.00000000e+00  2.29999324e-08  1.86807534e-07
  0.00000000e+00  0.00000000e+00  0.00000000e+00  2.76033357e-06]","[[-1.56844015e-04 -4.68560362e-05]
 [ 3.37965110e-06 -2.65811183e-03]]",[],0.0,0.0
1787585360.2308307,0.4083422865714371,-0.40431817620430266,-0.0077241184982566055,"[ 6.27347497e-06 -6.32092545e-08  0.00000000e+00  0.00000000e+00
  0.00000000e+00  2.29999324e-08 -6.32092545e-08  5.40859734e-06
  0.00000000e+00  0.00000000e+00  0.00000000e+00  1.86807534e-07
  0.00000000e+00  0.00000000e+00  0.00000000e+00  0.00000000e+00
  0.00000000e+00  0.00000000e+00  0.00000000e+00  0.00000000e+00
  0.00000000e+00  0.00000000e+00  0.00000000e+00  0.00000000e+00
  0.00000000e+00  0.00000000e+00  0.00000000e+00  0.00000000e+00
  0.00000000e+00  0.00000000e+00  2.29999324e-08  1.86807534e-07
  0.00000000e+00  0.00000000e+00  0.00000000e+00  2.76033357e-06]","[[-1.56844015e-04 -4.68560362e-05]
 [ 3.37965110e-06 -2.65811183e-03]]",[],0.0,0.0
1787585360.2635732,0.4083422865714371,-0.40431817620430266,-0.0077241184982566055,"[ 6.27347497e-06 -6.32092545e-08  0.00000000e+00  0.00000000e+00
  0.00000000e+00  2.29999324e-08 -6.32092545e-08  5.40859734e-06
  0.00000000e+00  0.00000000e+00  0.00000000e+00  1.86807534e-07
  0.00000000e+00  0.00000000e+00  0.00000000e+00  0.00000000e+00
  0.00000000e+00  0.00000000e+00  0.00000000e+00  0.00000000e+00
  0.00000000e+00  0.00000000e+00  0.00000000e+00  0.00000000e+00
  0.00000000e+00  0.00000000e+00  0.00000000e+00  0.00000000e+00
  0.00000000e+00  0.00000000e+00  2.29999324e-08  1.86807534e-07
  0.00000000e+00  0.00000000e+00  0.00000000e+00  2.76033357e-06]","[[-1.56844015e-04 -4.68560362e-05]
 [ 3.37965110e-06 -2.65811183e-03]]",[],0.0,0.0
1787585360.2922106,0.4083422865714371,-0.40431817620430266,-0.0077241184982566055,"[ 6.27347497e-06 -6.32092545e-08  0.00000000e+00  0.00000000e+00
  0.00000000e+00  2.29999324e-08 -6.32092545e-08  5.40859734e-06
  0.00000000e+00  0.00000000e+00  0.00000000e+00  1.86807534e-07
  0.00000000e+00  0.00000000e+00  0.00000000e+00  0.00000000e+00
  0.00000000e+00  0.00000000e+00  0.00000000e+00  0.00000000e+00
  0.00000000e+00  0.00000000e+00  0.00000000e+00  0.00000000e+00
  0.00000000e+00  0.00000000e+00  0.00000000e+00  0.00000000e+00
  0.00000000e+00  0.00000000e+00  2.29999324e-08  1.86807534e-07
  0.00000000e+00  0.00000000e+00  0.00000000e+00  2.76033357e-06]","[[-1.56844015e-04 -4.68560362e-05]
 [ 3.37965110e-06 -2.65811183e-03]]",[],0.0,0.0
1787585360.3419528,0.4083422865714371,-0.40431817620430266,-0.0077241184982566055,"[ 6.27347497e-06 -6.32092545e-08  0.00000000e+00  0.00000000e+00
  0.00000000e+00  2.29999324e-08 -6.32092545e-08  5.40859734e-06
  0.00000000e+00  0.00000000e+00  0.00000000e+00  1.86807534e-07
  0.00000000e+00  0.00000000e+00  0.00000000e+00  0.00000000e+00
  0.00000000e+00  0.00000000e+00  0.00000000e+00  0.00000000e+00
  0.00000000e+00  0.00000000e+00  0.00000000e+00  0.00000000e+00
  0.00000000e+00  0.00000000e+00  0.00000000e+00  0.00000000e+00
  0.00000000e+00  0.00000000e+00  2.29999324e-08  1.86807534e-07
  0.00000000e+00  0.00000000e+00  0.00000000e+00  2.76033357e-06]","[[-1.56844015e-04 -4.68560362e-05]
 [ 3.37965110e-06 -2.65811183e-03]]",[],0.0,0.0
1787585360.3944554,0.4083422865714371,-0.40431817620430266,-0.0077241184982566055,"[ 6.27347497e-06 -6.32092545e-08  0.00000000e+00  0.00000000e+00
  0.00000000e+00  2.29999324e-08 -6.32092545e-08  5.40859734e-06
  0.00000000e+00  0.00000000e+00  0.00000000e+00  1.86807534e-07
  0.00000000e+00  0.00000000e+00  0.00000000e+00  0.00000000e+00
  0.00000000e+00  0.00000000e+00  0.00000000e+00  0.00000000e+00
  0.00000000e+00  0.00000000e+00  0.00000000e+00  0.00000000e+00
  0.00000000e+00  0.00000000e+00  0.00000000e+00  0.00000000e+00
  0.00000000e+00  0.00000000e+00  2.29999324e-08  1.86807534e-07
  0.00000000e+00  0.00000000e+00  0.00000000e+00  2.76033357e-06]","[[-1.56844015e-04 -4.68560362e-05]
 [ 3.37965110e-06 -2.65811183e-03]]",[],0.0,0.0
1787585360.4633422,0.4083422865714371,-0.40431817620430266,-0.0077241184982566055,"[ 6.27347497e-06 -6.32092545e-08  0.00000000e+00  0.00000000e+00
  0.00000000e+00  2.29999324e-08 -6.32092545e-08  5.40859734e-06
  0.00000000e+00  0.00000000e+00  0.00000000e+00  1.86807534e-07
  0.00000000e+00  0.00000000e+00  0.00000000e+00  0.00000000e+00
  0.00000000e+00  0.00000000e+00  0.00000000e+00  0.00000000e+00
  0.00000000e+00  0.00000000e+00  0.00000000e+00  0.00000000e+00
  0.00000000e+00  0.00000000e+00  0.00000000e+00  0.00000000e+00
  0.00000000e+00  0.00000000e+00  2.29999324e-08  1.86807534e-07
  0.00000000e+00  0.00000000e+00  0.00000000e+00  2.76033357e-06]","[[-1.56844015e-04 -4.68560362e-05]
 [ 3.37965110e-06 -2.65811183e-03]]",[],0.0,0.0
1787585360.496143,0.4083422865714371,-0.40431817620430266,-0.0077241184982566055,"[ 6.27347497e-06 -6.32092545e-08  0.00000000e+00  0.00000000e+00
  0.00000000e+00  2.29999324e-08 -6.32092545e-08  5.40859734e-06
  0.00000000e+00  0.00000000e+00  0.00000000e+00  1.86807534e-07
  0.00000000e+00  0.00000000e+00  0.00000000e+00  0.00000000e+00
  0.00000000e+00  0.00000000e+00  0.00000000e+00  0.00000000e+00
  0.00000000e+00  0.00000000e+00  0.00000000e+00  0.00000000e+00
  0.00000000e+00  0.00000000e+00  0.00000000e+00  0.00000000e+00
  0.00000000e+00  0.00000000e+00  2.29999324e-08  1.86807534e-07
  0.00000000e+00  0.00000000e+00  0.00000000e+00  2.76033357e-06]","[[-1.56844015e-04 -4.68560362e-05]
 [ 3.37965110e-06 -2.65811183e-03]]",[],0.0,0.0
1787585360.5568666,0.4083422865714371,-0.40431817620430266,-0.0077241184982566055,"[ 6.27347497e-06 -6.32092545e-08  0.00000000e+00  0.00000000e+00
  0.00000000e+00  2.29999324e-08 -6.32092545e-08  5.40859734e-06
  0.00000000e+00  0.00000000e+00  0.00000000e+00  1.86807534e-07
  0.00000000e+00  0.00000000e+00  0.00000000e+00  0.00000000e+00
  0.00000000e+00  0.00000000e+00  0.00000000e+00  0.00000000e+00
  0.00000000e+00  0.00000000e+00  0.00000000e+00  0.00000000e+00
  0.00000000e+00  0.00000000e+00  0.00000000e+00  0.00000000e+00
  0.00000000e+00  0.00000000e+00  2.29999324e-08  1.86807534e-07
  0.00000000e+00  0.00000000e+00  0.00000000e+00  2.76033357e-06]","[[-1.56844015e-04 -4.68560362e-05]
 [ 3.37965110e-06 -2.65811183e-03]]",[],0.0,0.0
1787585360.595165,0.4083422865714371,-0.40431817620430266,-0.0077241184982566055,"[ 6.27347497e-06 -6.32092545e-08  0.00000000e+00  0.00000000e+00
  0.00000000e+00  2.29999324e-08 -6.32092545e-08  5.40859734e-06
  0.00000000e+00  0.00000000e+00  0.00000000e+00  1.86807534e-07
  0.00000000e+00  0.00000000e+00  0.00000000e+00  0.00000000e+00
  0.00000000e+00  0.00000000e+00  0.00000000e+00  0.00000000e+00
  0.00000000e+00  0.00000000e+00  0.00000000e+00  0.00000000e+00
  0.00000000e+00  0.00000000e+00  0.00000000e+00  0.00000000e+00
  0.00000000e+00  0.00000000e+00  2.29999324e-08  1.86807534e-07
  0.00000000e+00  0.00000000e+00  0.00000000e+00  2.76033357e-06]","[[-1.56844015e-04 -4.68560362e-05]
 [ 3.37965110e-06 -2.65811183e-03]]",[],0.0,0.0
1787585360.642839,0.4083422865714371,-0.40431817620430266,-0.0077241184982566055,"[ 6.27347497e-06 -6.32092545e-08  0.00000000e+00  0.00000000e+00
  0.00000000e+00  2.29999324e-08 -6.32092545e-08  5.40859734e-06
  0.00000000e+00  0.00000000e+00  0.00000000e+00  1.86807534e-07
  0.00000000e+00  0.00000000e+00  0.00000000e+00  0.00000000e+00
  0.00000000e+00  0.00000000e+00  0.00000000e+00  0.00000000e+00
  0.00000000e+00  0.00000000e+00  0.00000000e+00  0.00000000e+00
  0.00000000e+00  0.00000000e+00  0.00000000e+00  0.00000000e+00
  0.00000000e+00  0.00000000e+00  2.29999324e-08  1.86807534e-07
  0.00000000e+00  0.00000000e+00  0.00000000e+00  2.76033357e-06]","[[-1.56844015e-04 -4.68560362e-05]
 [ 3.37965110e-06 -2.65811183e-03]]",[],0.0,0.0
1787585360.6928756,0.4083422865714371,-0.40431817620430266,-0.0077241184982566055,"[ 6.27347497e-06 -6.32092545e-08  0.00000000e+00  0.00000000e+00
  0.00000000e+00  2.29999324e-08 -6.32092545e-08  5.40859734e-06
  0.00000000e+00  0.00000000e+00  0.00000000e+00  1.86807534e-07
  0.00000000e+00  0.00000000e+00  0.00000000e+00  0.00000000e+00
  0.00000000e+00  0.00000000e+00  0.00000000e+00  0.00000000e+00
  0.00000000e+00  0.00000000e+00  0.00000000e+00  0.00000000e+00
  0.00000000e+00  0.00000000e+00  0.00000000e+00  0.00000000e+00
  0.00000000e+00  0.00000000e+00  2.29999324e-08  1.86807534e-07
  0.00000000e+00  0.00000000e+00  0.00000000e+00  2.76033357e-06]","[[-1.56844015e-04 -4.68560362e-05]
 [ 3.37965110e-06 -2.65811183e-03]]",[],0.0,0.0
1787585360.7463033,0.4083422865714371,-0.40431817620430266,-0.0077241184982566055,"[ 6.27347497e-06 -6.32092545e-08  0.00000000e+00  0.00000000e+00
  0.00000000e+00  2.29999324e-08 -6.32092545e-08  5.40859734e-06
  0.00000000e+00  0.00000000e+00  0.00000000e+00  1.86807534e-07
  0.00000000e+00  0.00000000e+00  0.00000000e+00  0.00000000e+00
  0.00000000e+00  0.00000000e+00  0.00000000e+00  0.00000000e+00
  0.00000000e+00  0.00000000e+00  0.00000000e+00  0.00000000e+00
  0.00000000e+00  0.00000000e+00  0.00000000e+00  0.00000000e+00
  0.00000000e+00  0.00000000e+00  2.29999324e-08  1.86807534e-07
  0.00000000e+00  0.00000000e+00  0.00000000e+00  2.76033357e-06]","[[-1.56844015e-04 -4.68560362e-05]
 [ 3.37965110e-06 -2.65811183e-03]]",[],0.0,0.0
1787585360.800506,0.4083422865714371,-0.40431817620430266,-0.0077241184982566055,"[ 6.27347497e-06 -6.32092545e-08  0.00000000e+00  0.00000000e+00
  0.00000000e+00  2.29999324e-08 -6.32092545e-08  5.40859734e-06
  0.00000000e+00  0.00000000e+00  0.00000000e+00  1.86807534e-07
  0.00000000e+00  0.00000000e+00  0.00000000e+00  0.00000000e+00
  0.00000000e+00  0.00000000e+00  0.00000000e+00  0.00000000e+00
  0.00000000e+00  0.00000000e+00  0.00000000e+00  0.00000000e+00
  0.00000000e+00  0.00000000e+00  0.00000000e+00  0.00000000e+00
  0.00000000e+00  0.00000000e+00  2.29999324e-08  1.86807534e-07
  0.00000000e+00  0.00000000e+00  0.00000000e+00  2.76033357e-06]","[[-1.56844015e-04 -4.68560362e-05]
 [ 3.37965110e-06 -2.65811183e-03]]",[],0.0,0.0
1787585361.030868,0.4083422865714371,-0.40431817620430266,-0.0077241184982566055,"[ 6.27347497e-06 -6.32092545e-08  0.00000000e+00  0.00000000e+00
  0.00000000e+00  2.29999324e-08 -6.32092545e-08  5.40859734e-06
  0.00000000e+00  0.00000000e+00  0.00000000e+00  1.86807534e-07
  0.00000000e+00  0.00000000e+00  0.00000000e+00  0.00000000e+00
  0.00000000e+00  0.00000000e+00  0.00000000e+00  0.00000000e+00
  0.00000000e+00  0.00000000e+00  0.00000000e+00  0.00000000e+00
  0.00000000e+00  0.00000000e+00  0.00000000e+00  0.00000000e+00
  0.00000000e+00  0.00000000e+00  2.29999324e-08  1.86807534e-07
  0.00000000e+00  0.00000000e+00  0.00000000e+00  2.76033357e-06]","[[-1.56844015e-04 -4.68560362e-05]
 [ 3.37965110e-06 -2.65811183e-03]]",[],0.0,0.0
1787585361.041812,0.4083422865714371,-0.40431817620430266,-0.0077241184982566055,"[ 6.27347497e-06 -6.32092545e-08  0.00000000e+00  0.00000000e+00
  0.00000000e+00  2.29999324e-08 -6.32092545e-08  5.40859734e-06
  0.00000000e+00  0.00000000e+00  0.00000000e+00  1.86807534e-07
  0.00000000e+00  0.00000000e+00  0.00000000e+00  0.00000000e+00
  0.00000000e+00  0.00000000e+00  0.00000000e+00  0.00000000e+00
  0.00000000e+00  0.00000000e+00  0.00000000e+00  0.00000000e+00
  0.00000000e+00  0.00000000e+00  0.00000000e+00  0.00000000e+00
  0.00000000e+00  0.00000000e+00  2.29999324e-08  1.86807534e-07
  0.00000000e+00  0.00000000e+00  0.00000000e+00  2.76033357e-06]","[[-1.56844015e-04 -4.68560362e-05]
 [ 3.37965110e-06 -2.65811183e-03]]",[],0.0,0.0
1787585361.9444675,0.4073585953829201,-0.40703040001860846,-0.02432605786433717,"[ 5.80847634e-06 -4.88937570e-08  0.00000000e+00  0.00000000e+00
  0.00000000e+00 -1.68837170e-08 -4.88937570e-08  4.89898988e-06
  0.00000000e+00  0.00000000e+00  0.00000000e+00  2.06456355e-07
  0.00000000e+00  0.00000000e+00  0.00000000e+00  0.00000000e+00
  0.00000000e+00  0.00000000e+00  0.00000000e+00  0.00000000e+00
  0.00000000e+00  0.00000000e+00  0.00000000e+00  0.00000000e+00
  0.00000000e+00  0.00000000e+00  0.00000000e+00  0.00000000e+00
  0.00000000e+00  0.00000000e+00 -1.68837170e-08  2.06456355e-07
  0.00000000e+00  0.00000000e+00  0.00000000e+00  2.91385816e-06]","[[-1.45216369e-04  2.01716657e-05]
 [ 2.62915028e-06 -2.47124205e-03]]",[],0.0,0.0
1787585362.81174,0.4068447632154099,-0.4096270223448235,-0.028954230476304417,"[ 5.39552171e-06 -4.56440040e-08  0.00000000e+00  0.00000000e+00
  0.00000000e+00  4.40228874e-09 -4.56440040e-08  4.42828299e-06
  0.00000000e+00  0.00000000e+00  0.00000000e+00  1.61217136e-07
  0.00000000e+00  0.00000000e+00  0.00000000e+00  0.00000000e+00
  0.00000000e+00  0.00000000e+00  0.00000000e+00  0.00000000e+00
  0.00000000e+00  0.00000000e+00  0.00000000e+00  0.00000000e+00
  0.00000000e+00  0.00000000e+00  0.00000000e+00  0.00000000e+00
  0.00000000e+00  0.00000000e+00  4.40228874e-09  1.61217136e-07
  0.00000000e+00  0.00000000e+00  0.00000000e+00  2.73093990e-06]","[[-1.34830011e-04 -7.88782305e-05]
 [ 5.45548635e-06 -2.18940479e-03]]",[],0.0,0.0
1787585362.8471587,0.40658210331881633,-0.41113068374438927,-0.042268312109657646,"[ 5.07717922e-06 -4.95194744e-08  0.00000000e+00  0.00000000e+00
  0.00000000e+00  8.41386840e-09 -4.95194744e-08  4.05066678e-06
  0.00000000e+00  0.00000000e+00  0.00000000e+00  1.50918021e-07
  0.00000000e+00  0.00000000e+00  0.00000000e+00  0.00000000e+00
  0.00000000e+00  0.00000000e+00  0.00000000e+00  0.00000000e+00
  0.00000000e+00  0.00000000e+00  0.00000000e+00  0.00000000e+00
  0.00000000e+00  0.00000000e+00  0.00000000e+00  0.00000000e+00
  0.00000000e+00  0.00000000e+00  8.41386840e-09  1.50918021e-07
  0.00000000e+00  0.00000000e+00  0.00000000e+00  2.74237081e-06]","[[-1.26688768e-04 -1.50681014e-04]
 [ 8.53131646e-06 -1.99424395e-03]]",[],0.0,0.0
1787585362.8920476,0.40658210331881633,-0.41113068374438927,-0.042268312109657646,"[ 5.07717922e-06 -4.95194744e-08  0.00000000e+00  0.00000000e+00
  0.00000000e+00  8.41386840e-09 -4.95194744e-08  4.05066678e-06
  0.00000000e+00  0.00000000e+00  0.00000000e+00  1.50918021e-07
  0.00000000e+00  0.00000000e+00  0.00000000e+00  0.00000000e+00
  0.00000000e+00  0.00000000e+00  0.00000000e+00  0.00000000e+00
  0.00000000e+00  0.00000000e+00  0.00000000e+00  0.00000000e+00
  0.00000000e+00  0.00000000e+00  0.00000000e+00  0.00000000e+00
  0.00000000e+00  0.00000000e+00  8.41386840e-09  1.50918021e-07
  0.00000000e+00  0.00000000e+00  0.00000000e+00  2.74237081e-06]","[[-1.26688768e-04 -1.50681014e-04]
 [ 8.53131646e-06 -1.99424395e-03]]",[],0.0,0.0
1787585362.9438038,0.40658210331881633,-0.41113068374438927,-0.042268312109657646,"[ 5.07717922e-06 -4.95194744e-08  0.00000000e+00  0.00000000e+00
  0.00000000e+00  8.41386840e-09 -4.95194744e-08  4.05066678e-06
  0.00000000e+00  0.00000000e+00  0.00000000e+00  1.50918021e-07
  0.00000000e+00  0.00000000e+00  0.00000000e+00  0.00000000e+00
  0.00000000e+00  0.00000000e+00  0.00000000e+00  0.00000000e+00
  0.00000000e+00  0.00000000e+00  0.00000000e+00  0.00000000e+00
  0.00000000e+00  0.00000000e+00  0.00000000e+00  0.00000000e+00
  0.00000000e+00  0.00000000e+00  8.41386840e-09  1.50918021e-07
  0.00000000e+00  0.00000000e+00  0.00000000e+00  2.74237081e-06]","[[-1.26688768e-04 -1.50681014e-04]
 [ 8.53131646e-06 -1.99424395e-03]]",[],0.0,0.0
1787585362.995195,0.40658210331881633,-0.41113068374438927,-0.042268312109657646,"[ 5.07717922e-06 -4.95194744e-08  0.00000000e+00  0.00000000e+00
  0.00000000e+00  8.41386840e-09 -4.95194744e-08  4.05066678e-06
  0.00000000e+00  0.00000000e+00  0.00000000e+00  1.50918021e-07
  0.00000000e+00  0.00000000e+00  0.00000000e+00  0.00000000e+00
  0.00000000e+00  0.00000000e+00  0.00000000e+00  0.00000000e+00
  0.00000000e+00  0.00000000e+00  0.00000000e+00  0.00000000e+00
  0.00000000e+00  0.00000000e+00  0.00000000e+00  0.00000000e+00
  0.00000000e+00  0.00000000e+00  8.41386840e-09  1.50918021e-07
  0.00000000e+00  0.00000000e+00  0.00000000e+00  2.74237081e-06]","[[-1.26688768e-04 -1.50681014e-04]
 [ 8.53131646e-06 -1.99424395e-03]]",[],0.0,0.0
1787585363.7280545,0.40658210331881633,-0.41113068374438927,-0.042268312109657646,"[ 5.07717922e-06 -4.95194744e-08  0.00000000e+00  0.00000000e+00
  0.00000000e+00  8.41386840e-09 -4.95194744e-08  4.05066678e-06
  0.00000000e+00  0.00000000e+00  0.00000000e+00  1.50918021e-07
  0.00000000e+00  0.00000000e+00  0.00000000e+00  0.00000000e+00
  0.00000000e+00  0.00000000e+00  0.00000000e+00  0.00000000e+00
  0.00000000e+00  0.00000000e+00  0.00000000e+00  0.00000000e+00
  0.00000000e+00  0.00000000e+00  0.00000000e+00  0.00000000e+00
  0.00000000e+00  0.00000000e+00  8.41386840e-09  1.50918021e-07
  0.00000000e+00  0.00000000e+00  0.00000000e+00  2.74237081e-06]","[[-1.26688768e-04 -1.50681014e-04]
 [ 8.53131646e-06 -1.99424395e-03]]",[],0.0,0.0
1787585364.4789414,0.4061343870365372,-0.4129565456635333,-0.04645975341442776,"[ 4.82975584e-06 -6.39173726e-08  0.00000000e+00  0.00000000e+00
  0.00000000e+00  7.38638799e-09 -6.39173726e-08  3.73935009e-06
  0.00000000e+00  0.00000000e+00  0.00000000e+00  1.66476560e-07
  0.00000000e+00  0.00000000e+00  0.00000000e+00  0.00000000e+00
  0.00000000e+00  0.00000000e+00  0.00000000e+00  0.00000000e+00
  0.00000000e+00  0.00000000e+00  0.00000000e+00  0.00000000e+00
  0.00000000e+00  0.00000000e+00  0.00000000e+00  0.00000000e+00
  0.00000000e+00  0.00000000e+00  7.38638799e-09  1.66476560e-07
  0.00000000e+00  0.00000000e+00  0.00000000e+00  2.82904785e-06]","[[-1.20618264e-04 -1.11896658e-04]
 [ 7.26915047e-06 -1.89584915e-03]]",[],0.0,0.0
1787585365.3014154,0.40587562282044903,-0.41439285274864657,-0.04778286964401037,"[ 4.56210255e-06 -7.59439029e-08  0.00000000e+00  0.00000000e+00
  0.00000000e+00  1.17704996e-08 -7.59439029e-08  3.46902691e-06
  0.00000000e+00  0.00000000e+00  0.00000000e+00  1.41401050e-07
  0.00000000e+00  0.00000000e+00  0.00000000e+00  0.00000000e+00
  0.00000000e+00  0.00000000e+00  0.00000000e+00  0.00000000e+00
  0.00000000e+00  0.00000000e+00  0.00000000e+00  0.00000000e+00
  0.00000000e+00  0.00000000e+00  0.00000000e+00  0.00000000e+00
  0.00000000e+00  0.00000000e+00  1.17704996e-08  1.41401050e-07
  0.00000000e+00  0.00000000e+00  0.00000000e+00  2.70006253e-06]","[[-1.13722309e-04 -1.94544307e-04]
 [ 1.00786108e-05 -1.93284561e-03]]",[],0.0,0.0
1787585365.9148777,0.4052998471080447,-0.41580242668728307,-0.05743552087402293,"[ 4.37661303e-06 -7.60402780e-08  0.00000000e+00  0.00000000e+00
  0.00000000e+00  1.73936448e-08 -7.60402780e-08  3.23092585e-06
  0.00000000e+00  0.00000000e+00  0.00000000e+00  9.14348124e-08
  0.00000000e+00  0.00000000e+00  0.00000000e+00  0.00000000e+00
  0.00000000e+00  0.00000000e+00  0.00000000e+00  0.00000000e+00
  0.00000000e+00  0.00000000e+00  0.00000000e+00  0.00000000e+00
  0.00000000e+00  0.00000000e+00  0.00000000e+00  0.00000000e+00
  0.00000000e+00  0.00000000e+00  1.73936448e-08  9.14348124e-08
  0.00000000e+00  0.00000000e+00  0.00000000e+00  2.68669178e-06]","[[-1.09192052e-04 -1.54152402e-04]
 [ 8.63787677e-06 -1.54236888e-03]]",[],0.0,0.0
1787585365.942322,0.4052998471080447,-0.41580242668728307,-0.05743552087402293,"[ 4.37661303e-06 -7.60402780e-08  0.00000000e+00  0.00000000e+00
  0.00000000e+00  1.73936448e-08 -7.60402780e-08  3.23092585e-06
  0.00000000e+00  0.00000000e+00  0.00000000e+00  9.14348124e-08
  0.00000000e+00  0.00000000e+00  0.00000000e+00  0.00000000e+00
  0.00000000e+00  0.00000000e+00  0.00000000e+00  0.00000000e+00
  0.00000000e+00  0.00000000e+00  0.00000000e+00  0.00000000e+00
  0.00000000e+00  0.00000000e+00  0.00000000e+00  0.00000000e+00
  0.00000000e+00  0.00000000e+00  1.73936448e-08  9.14348124e-08
  0.00000000e+00  0.00000000e+00  0.00000000e+00  2.68669178e-06]","[[-1.09192052e-04 -1.54152402e-04]
 [ 8.63787677e-06 -1.54236888e-03]]",[],0.0,0.0
1787585365.9928334,0.4052998471080447,-0.41580242668728307,-0.05743552087402293,"[ 4.37661303e-06 -7.60402780e-08  0.00000000e+00  0.00000000e+00
  0.00000000e+00  1.73936448e-08 -7.60402780e-08  3.23092585e-06
  0.00000000e+00  0.00000000e+00  0.00000000e+00  9.14348124e-08
  0.00000000e+00  0.00000000e+00  0.00000000e+00  0.00000000e+00
  0.00000000e+00  0.00000000e+00  0.00000000e+00  0.00000000e+00
  0.00000000e+00  0.00000000e+00  0.00000000e+00  0.00000000e+00
  0.00000000e+00  0.00000000e+00  0.00000000e+00  0.00000000e+00
  0.00000000e+00  0.00000000e+00  1.73936448e-08  9.14348124e-08
  0.00000000e+00  0.00000000e+00  0.00000000e+00  2.68669178e-06]","[[-1.09192052e-04 -1.54152402e-04]
 [ 8.63787677e-06 -1.54236888e-03]]",[],0.0,0.0
1787585366.0417273,0.4052998471080447,-0.41580242668728307,-0.05743552087402293,"[ 4.37661303e-06 -7.60402780e-08  0.00000000e+00  0.00000000e+00
  0.00000000e+00  1.73936448e-08 -7.60402780e-08  3.23092585e-06
  0.00000000e+00  0.00000000e+00  0.00000000e+00  9.14348124e-08
  0.00000000e+00  0.00000000e+00  0.00000000e+00  0.00000000e+00
  0.00000000e+00  0.00000000e+00  0.00000000e+00  0.00000000e+00
  0.00000000e+00  0.00000000e+00  0.00000000e+00  0.00000000e+00
  0.00000000e+00  0.00000000e+00  0.00000000e+00  0.00000000e+00
  0.00000000e+00  0.00000000e+00  1.73936448e-08  9.14348124e-08
  0.00000000e+00  0.00000000e+00  0.00000000e+00  2.68669178e-06]","[[-1.09192052e-04 -1.54152402e-04]
 [ 8.63787677e-06 -1.54236888e-03]]",[],0.0,0.0
1787585366.0992537,0.4052998471080447,-0.41580242668728307,-0.05743552087402293,"[ 4.37661303e-06 -7.60402780e-08  0.00000000e+00  0.00000000e+00
  0.00000000e+00  1.73936448e-08 -7.60402780e-08  3.23092585e-06
  0.00000000e+00  0.00000000e+00  0.00000000e+00  9.14348124e-08
  0.00000000e+00  0.00000000e+00  0.00000000e+00  0.00000000e+00
  0.00000000e+00  0.00000000e+00  0.00000000e+00  0.00000000e+00
  0.00000000e+00  0.00000000e+00  0.00000000e+00  0.00000000e+00
  0.00000000e+00  0.00000000e+00  0.00000000e+00  0.00000000e+00
  0.00000000e+00  0.00000000e+00  1.73936448e-08  9.14348124e-08
  0.00000000e+00  0.00000000e+00  0.00000000e+00  2.68669178e-06]","[[-1.09192052e-04 -1.54152402e-04]
 [ 8.63787677e-06 -1.54236888e-03]]",[],0.0,0.0
1787585366.1558728,0.4052998471080447,-0.41580242668728307,-0.05743552087402293,"[ 4.37661303e-06 -7.60402780e-08  0.00000000e+00  0.00000000e+00
  0.00000000e+00  1.73936448e-08 -7.60402780e-08  3.23092585e-06
  0.00000000e+00  0.00000000e+00  0.00000000e+00  9.14348124e-08
  0.00000000e+00  0.00000000e+00  0.00000000e+00  0.00000000e+00
  0.00000000e+00  0.00000000e+00  0.00000000e+00  0.00000000e+00
  0.00000000e+00  0.00000000e+00  0.00000000e+00  0.00000000e+00
  0.00000000e+00  0.00000000e+00  0.00000000e+00  0.00000000e+00
  0.00000000e+00  0.00000000e+00  1.73936448e-08  9.14348124e-08
  0.00000000e+00  0.00000000e+00  0.00000000e+00  2.68669178e-06]","[[-1.09192052e-04 -1.54152402e-04]
 [ 8.63787677e-06 -1.54236888e-03]]",[],0.0,0.0
1787585366.2123601,0.4052998471080447,-0.41580242668728307,-0.05743552087402293,"[ 4.37661303e-06 -7.60402780e-08  0.00000000e+00  0.00000000e+00
  0.00000000e+00  1.73936448e-08 -7.60402780e-08  3.23092585e-06
  0.00000000e+00  0.00000000e+00  0.00000000e+00  9.14348124e-08
  0.00000000e+00  0.00000000e+00  0.00000000e+00  0.00000000e+00
  0.00000000e+00  0.00000000e+00  0.00000000e+00  0.00000000e+00
  0.00000000e+00  0.00000000e+00  0.00000000e+00  0.00000000e+00
  0.00000000e+00  0.00000000e+00  0.00000000e+00  0.00000000e+00
  0.00000000e+00  0.00000000e+00  1.73936448e-08  9.14348124e-08
  0.00000000e+00  0.00000000e+00  0.00000000e+00  2.68669178e-06]","[[-1.09192052e-04 -1.54152402e-04]
 [ 8.63787677e-06 -1.54236888e-03]]",[],0.0,0.0
1787585366.2443664,0.404677746314793,-0.41646186889422554,-0.05900336153046349,"[ 4.27014500e-06 -8.88058759e-08  0.00000000e+00  0.00000000e+00
  0.00000000e+00  9.91192760e-09 -8.88058759e-08  3.03006810e-06
  0.00000000e+00  0.00000000e+00  0.00000000e+00  9.97799208e-08
  0.00000000e+00  0.00000000e+00  0.00000000e+00  0.00000000e+00
  0.00000000e+00  0.00000000e+00  0.00000000e+00  0.00000000e+00
  0.00000000e+00  0.00000000e+00  0.00000000e+00  0.00000000e+00
  0.00000000e+00  0.00000000e+00  0.00000000e+00  0.00000000e+00
  0.00000000e+00  0.00000000e+00  9.91192760e-09  9.97799208e-08
  0.00000000e+00  0.00000000e+00  0.00000000e+00  2.83908430e-06]","[[-1.06515778e-04 -1.66879973e-04]
 [ 9.07364648e-06 -1.68274519e-03]]",[],0.0,0.0
1787585366.3030264,0.404677746314793,-0.41646186889422554,-0.05900336153046349,"[ 4.27014500e-06 -8.88058759e-08  0.00000000e+00  0.00000000e+00
  0.00000000e+00  9.91192760e-09 -8.88058759e-08  3.03006810e-06
  0.00000000e+00  0.00000000e+00  0.00000000e+00  9.97799208e-08
  0.00000000e+00  0.00000000e+00  0.00000000e+00  0.00000000e+00
  0.00000000e+00  0.00000000e+00  0.00000000e+00  0.00000000e+00
  0.00000000e+00  0.00000000e+00  0.00000000e+00  0.00000000e+00
  0.00000000e+00  0.00000000e+00  0.00000000e+00  0.00000000e+00
  0.00000000e+00  0.00000000e+00  9.91192760e-09  9.97799208e-08
  0.00000000e+00  0.00000000e+00  0.00000000e+00  2.83908430e-06]","[[-1.06515778e-04 -1.66879973e-04]
 [ 9.07364648e-06 -1.68274519e-03]]",[],0.0,0.0
1787585366.3461425,0.404677746314793,-0.41646186889422554,-0.05900336153046349,"[ 4.27014500e-06 -8.88058759e-08  0.00000000e+00  0.00000000e+00
  0.00000000e+00  9.91192760e-09 -8.88058759e-08  3.03006810e-06
  0.00000000e+00  0.00000000e+00  0.00000000e+00  9.97799208e-08
  0.00000000e+00  0.00000000e+00  0.00000000e+00  0.00000000e+00
  0.00000000e+00  0.00000000e+00  0.00000000e+00  0.00000000e+00
  0.00000000e+00  0.00000000e+00  0.00000000e+00  0.00000000e+00
  0.00000000e+00  0.00000000e+00  0.00000000e+00  0.00000000e+00
  0.00000000e+00  0.00000000e+00  9.91192760e-09  9.97799208e-08
  0.00000000e+00  0.00000000e+00  0.00000000e+00  2.83908430e-06]","[[-1.06515778e-04 -1.66879973e-04]
 [ 9.07364648e-06 -1.68274519e-03]]",[],0.0,0.0
1787585366.3974466,0.404677746314793,-0.41646186889422554,-0.05900336153046349,"[ 4.27014500e-06 -8.88058759e-08  0.00000000e+00  0.00000000e+00
  0.00000000e+00  9.91192760e-09 -8.88058759e-08  3.03006810e-06
  0.00000000e+00  0.00000000e+00  0.00000000e+00  9.97799208e-08
  0.00000000e+00  0.00000000e+00  0.00000000e+00  0.00000000e+00
  0.00000000e+00  0.00000000e+00  0.00000000e+00  0.00000000e+00
  0.00000000e+00  0.00000000e+00  0.00000000e+00  0.00000000e+00
  0.00000000e+00  0.00000000e+00  0.00000000e+00  0.00000000e+00
  0.00000000e+00  0.00000000e+00  9.91192760e-09  9.97799208e-08
  0.00000000e+00  0.00000000e+00  0.00000000e+00  2.83908430e-06]","[[-1.06515778e-04 -1.66879973e-04]
 [ 9.07364648e-06 -1.68274519e-03]]",[],0.0,0.0
1787585366.450017,0.404677746314793,-0.41646186889422554,-0.05900336153046349,"[ 4.27014500e-06 -8.88058759e-08  0.00000000e+00  0.00000000e+00
  0.00000000e+00  9.91192760e-09 -8.88058759e-08  3.03006810e-06
  0.00000000e+00  0.00000000e+00  0.00000000e+00  9.97799208e-08
  0.00000000e+00  0.00000000e+00  0.00000000e+00  0.00000000e+00
  0.00000000e+00  0.00000000e+00  0.00000000e+00  0.00000000e+00
  0.00000000e+00  0.00000000e+00  0.00000000e+00  0.00000000e+00
  0.00000000e+00  0.00000000e+00  0.00000000e+00  0.00000000e+00
  0.00000000e+00  0.00000000e+00  9.91192760e-09  9.97799208e-08
  0.00000000e+00  0.00000000e+00  0.00000000e+00  2.83908430e-06]","[[-1.06515778e-04 -1.66879973e-04]
 [ 9.07364648e-06 -1.68274519e-03]]",[],0.0,0.0
1787585366.5003452,0.404677746314793,-0.41646186889422554,-0.05900336153046349,"[ 4.27014500e-06 -8.88058759e-08  0.00000000e+00  0.00000000e+00
  0.00000000e+00  9.91192760e-09 -8.88058759e-08  3.03006810e-06
  0.00000000e+00  0.00000000e+00  0.00000000e+00  9.97799208e-08
  0.00000000e+00  0.00000000e+00  0.00000000e+00  0.00000000e+00
  0.00000000e+00  0.00000000e+00  0.00000000e+00  0.00000000e+00
  0.00000000e+00  0.00000000e+00  0.00000000e+00  0.00000000e+00
  0.00000000e+00  0.00000000e+00  0.00000000e+00  0.00000000e+00
  0.00000000e+00  0.00000000e+00  9.91192760e-09  9.97799208e-08
  0.00000000e+00  0.00000000e+00  0.00000000e+00  2.83908430e-06]","[[-1.06515778e-04 -1.66879973e-04]
 [ 9.07364648e-06 -1.68274519e-03]]",[],0.0,0.0
1787585366.5423763,0.404677746314793,-0.41646186889422554,-0.05900336153046349,"[ 4.27014500e-06 -8.88058759e-08  0.00000000e+00  0.00000000e+00
  0.00000000e+00  9.91192760e-09 -8.88058759e-08  3.03006810e-06
  0.00000000e+00  0.00000000e+00  0.00000000e+00  9.97799208e-08
  0.00000000e+00  0.00000000e+00  0.00000000e+00  0.00000000e+00
  0.00000000e+00  0.00000000e+00  0.00000000e+00  0.00000000e+00
  0.00000000e+00  0.00000000e+00  0.00000000e+00  0.00000000e+00
  0.00000000e+00  0.00000000e+00  0.00000000e+00  0.00000000e+00
  0.00000000e+00  0.00000000e+00  9.91192760e-09  9.97799208e-08
  0.00000000e+00  0.00000000e+00  0.00000000e+00  2.83908430e-06]","[[-1.06515778e-04 -1.66879973e-04]
 [ 9.07364648e-06 -1.68274519e-03]]",[],0.0,0.0
1787585366.6063974,0.404677746314793,-0.41646186889422554,-0.05900336153046349,"[ 4.27014500e-06 -8.88058759e-08  0.00000000e+00  0.00000000e+00
  0.00000000e+00  9.91192760e-09 -8.88058759e-08  3.03006810e-06
  0.00000000e+00  0.00000000e+00  0.00000000e+00  9.97799208e-08
  0.00000000e+00  0.00000000e+00  0.00000000e+00  0.00000000e+00
  0.00000000e+00  0.00000000e+00  0.00000000e+00  0.00000000e+00
  0.00000000e+00  0.00000000e+00  0.00000000e+00  0.00000000e+00
  0.00000000e+00  0.00000000e+00  0.00000000e+00  0.00000000e+00
  0.00000000e+00  0.00000000e+00  9.91192760e-09  9.97799208e-08
  0.00000000e+00  0.00000000e+00  0.00000000e+00  2.83908430e-06]","[[-1.06515778e-04 -1.66879973e-04]
 [ 9.07364648e-06 -1.68274519e-03]]",[],0.0,0.0
1787585366.6441011,0.404677746314793,-0.41646186889422554,-0.05900336153046349,"[ 4.27014500e-06 -8.88058759e-08  0.00000000e+00  0.00000000e+00
  0.00000000e+00  9.91192760e-09 -8.88058759e-08  3.03006810e-06
  0.00000000e+00  0.00000000e+00  0.00000000e+00  9.97799208e-08
  0.00000000e+00  0.00000000e+00  0.00000000e+00  0.00000000e+00
  0.00000000e+00  0.00000000e+00  0.00000000e+00  0.00000000e+00
  0.00000000e+00  0.00000000e+00  0.00000000e+00  0.00000000e+00
  0.00000000e+00  0.00000000e+00  0.00000000e+00  0.00000000e+00
  0.00000000e+00  0.00000000e+00  9.91192760e-09  9.97799208e-08
  0.00000000e+00  0.00000000e+00  0.00000000e+00  2.83908430e-06]","[[-1.06515778e-04 -1.66879973e-04]
 [ 9.07364648e-06 -1.68274519e-03]]",[],0.0,0.0
1787585366.6997106,0.404677746314793,-0.41646186889422554,-0.05900336153046349,"[ 4.27014500e-06 -8.88058759e-08  0.00000000e+00  0.00000000e+00
  0.00000000e+00  9.91192760e-09 -8.88058759e-08  3.03006810e-06
  0.00000000e+00  0.00000000e+00  0.00000000e+00  9.97799208e-08
  0.00000000e+00  0.00000000e+00  0.00000000e+00  0.00000000e+00
  0.00000000e+00  0.00000000e+00  0.00000000e+00  0.00000000e+00
  0.00000000e+00  0.00000000e+00  0.00000000e+00  0.00000000e+00
  0.00000000e+00  0.00000000e+00  0.00000000e+00  0.00000000e+00
  0.00000000e+00  0.00000000e+00  9.91192760e-09  9.97799208e-08
  0.00000000e+00  0.00000000e+00  0.00000000e+00  2.83908430e-06]","[[-1.06515778e-04 -1.66879973e-04]
 [ 9.07364648e-06 -1.68274519e-03]]",[],0.0,0.0
1787585366.74254,0.404677746314793,-0.41646186889422554,-0.05900336153046349,"[ 4.27014500e-06 -8.88058759e-08  0.00000000e+00  0.00000000e+00
  0.00000000e+00  9.91192760e-09 -8.88058759e-08  3.03006810e-06
  0.00000000e+00  0.00000000e+00  0.00000000e+00  9.97799208e-08
  0.00000000e+00  0.00000000e+00  0.00000000e+00  0.00000000e+00
  0.00000000e+00  0.00000000e+00  0.00000000e+00  0.00000000e+00
  0.00000000e+00  0.00000000e+00  0.00000000e+00  0.00000000e+00
  0.00000000e+00  0.00000000e+00  0.00000000e+00  0.00000000e+00
  0.00000000e+00  0.00000000e+00  9.91192760e-09  9.97799208e-08
  0.00000000e+00  0.00000000e+00  0.00000000e+00  2.83908430e-06]","[[-1.06515778e-04 -1.66879973e-04]
 [ 9.07364648e-06 -1.68274519e-03]]",[],0.0,0.0
1787585366.7938178,0.404677746314793,-0.41646186889422554,-0.05900336153046349,"[ 4.27014500e-06 -8.88058759e-08  0.00000000e+00  0.00000000e+00
  0.00000000e+00  9.91192760e-09 -8.88058759e-08  3.03006810e-06
  0.00000000e+00  0.00000000e+00  0.00000000e+00  9.97799208e-08
  0.00000000e+00  0.00000000e+00  0.00000000e+00  0.00000000e+00
  0.00000000e+00  0.00000000e+00  0.00000000e+00  0.00000000e+00
  0.00000000e+00  0.00000000e+00  0.00000000e+00  0.00000000e+00
  0.00000000e+00  0.00000000e+00  0.00000000e+00  0.00000000e+00
  0.00000000e+00  0.00000000e+00  9.91192760e-09  9.97799208e-08
  0.00000000e+00  0.00000000e+00  0.00000000e+00  2.83908430e-06]","[[-1.06515778e-04 -1.66879973e-04]
 [ 9.07364648e-06 -1.68274519e-03]]",[],0.0,0.0
1787585367.147143,0.404677746314793,-0.41646186889422554,-0.05900336153046349,"[ 4.27014500e-06 -8.88058759e-08  0.00000000e+00  0.00000000e+00
  0.00000000e+00  9.91192760e-09 -8.88058759e-08  3.03006810e-06
  0.00000000e+00  0.00000000e+00  0.00000000e+00  9.97799208e-08
  0.00000000e+00  0.00000000e+00  0.00000000e+00  0.00000000e+00
  0.00000000e+00  0.00000000e+00  0.00000000e+00  0.00000000e+00
  0.00000000e+00  0.00000000e+00  0.00000000e+00  0.00000000e+00
  0.00000000e+00  0.00000000e+00  0.00000000e+00  0.00000000e+00
  0.00000000e+00  0.00000000e+00  9.91192760e-09  9.97799208e-08
  0.00000000e+00  0.00000000e+00  0.00000000e+00  2.83908430e-06]","[[-1.06515778e-04 -1.66879973e-04]
 [ 9.07364648e-06 -1.68274519e-03]]",[],0.0,0.0
1787585367.725861,0.403682848662606,-0.4177026945148174,-0.06582400749120021,"[ 4.20579789e-06 -9.45673687e-08  0.00000000e+00  0.00000000e+00
  0.00000000e+00  1.44455975e-09 -9.45673687e-08  2.86658664e-06
  0.00000000e+00  0.00000000e+00  0.00000000e+00  8.87043320e-08
  0.00000000e+00  0.00000000e+00  0.00000000e+00  0.00000000e+00
  0.00000000e+00  0.00000000e+00  0.00000000e+00  0.00000000e+00
  0.00000000e+00  0.00000000e+00  0.00000000e+00  0.00000000e+00
  0.00000000e+00  0.00000000e+00  0.00000000e+00  0.00000000e+00
  0.00000000e+00  0.00000000e+00  1.44455975e-09  8.87043320e-08
  0.00000000e+00  0.00000000e+00  0.00000000e+00  2.95373905e-06]","[[-1.03292607e-04 -3.43003488e-04]
 [ 1.73759326e-05 -1.34398870e-03]]",[],0.0,0.0
1787585367.97606,0.403682848662606,-0.4177026945148174,-0.06582400749120021,"[ 4.20579789e-06 -9.45673687e-08  0.00000000e+00  0.00000000e+00
  0.00000000e+00  1.44455975e-09 -9.45673687e-08  2.86658664e-06
  0.00000000e+00  0.00000000e+00  0.00000000e+00  8.87043320e-08
  0.00000000e+00  0.00000000e+00  0.00000000e+00  0.00000000e+00
  0.00000000e+00  0.00000000e+00  0.00000000e+00  0.00000000e+00
  0.00000000e+00  0.00000000e+00  0.00000000e+00  0.00000000e+00
  0.00000000e+00  0.00000000e+00  0.00000000e+00  0.00000000e+00
  0.00000000e+00  0.00000000e+00  1.44455975e-09  8.87043320e-08
  0.00000000e+00  0.00000000e+00  0.00000000e+00  2.95373905e-06]","[[-1.03292607e-04 -3.43003488e-04]
 [ 1.73759326e-05 -1.34398870e-03]]",[],0.0,0.0
1787585367.9928794,0.403682848662606,-0.4177026945148174,-0.06582400749120021,"[ 4.20579789e-06 -9.45673687e-08  0.00000000e+00  0.00000000e+00
  0.00000000e+00  1.44455975e-09 -9.45673687e-08  2.86658664e-06
  0.00000000e+00  0.00000000e+00  0.00000000e+00  8.87043320e-08
  0.00000000e+00  0.00000000e+00  0.00000000e+00  0.00000000e+00
  0.00000000e+00  0.00000000e+00  0.00000000e+00  0.00000000e+00
  0.00000000e+00  0.00000000e+00  0.00000000e+00  0.00000000e+00
  0.00000000e+00  0.00000000e+00  0.00000000e+00  0.00000000e+00
  0.00000000e+00  0.00000000e+00  1.44455975e-09  8.87043320e-08
  0.00000000e+00  0.00000000e+00  0.00000000e+00  2.95373905e-06]","[[-1.03292607e-04 -3.43003488e-04]
 [ 1.73759326e-05 -1.34398870e-03]]",[],0.0,0.0
1787585368.0421655,0.40348235391786824,-0.418470141685251,-0.06941595253205346,"[ 4.09040723e-06 -9.54189326e-08  0.00000000e+00  0.00000000e+00
  0.00000000e+00 -4.70184098e-08 -9.54189326e-08  2.71512994e-06
  0.00000000e+00  0.00000000e+00  0.00000000e+00  9.05125664e-08
  0.00000000e+00  0.00000000e+00  0.00000000e+00  0.00000000e+00
  0.00000000e+00  0.00000000e+00  0.00000000e+00  0.00000000e+00
  0.00000000e+00  0.00000000e+00  0.00000000e+00  0.00000000e+00
  0.00000000e+00  0.00000000e+00  0.00000000e+00  0.00000000e+00
  0.00000000e+00  0.00000000e+00 -4.70184098e-08  9.05125664e-08
  0.00000000e+00  0.00000000e+00  0.00000000e+00  2.87850067e-06]","[[-1.02133734e-04 -2.00315900e-05]
 [ 7.68430410e-06 -1.32497834e-03]]",[],0.0,0.0
1787585368.1561484,0.40348235391786824,-0.418470141685251,-0.06941595253205346,"[ 4.09040723e-06 -9.54189326e-08  0.00000000e+00  0.00000000e+00
  0.00000000e+00 -4.70184098e-08 -9.54189326e-08  2.71512994e-06
  0.00000000e+00  0.00000000e+00  0.00000000e+00  9.05125664e-08
  0.00000000e+00  0.00000000e+00  0.00000000e+00  0.00000000e+00
  0.00000000e+00  0.00000000e+00  0.00000000e+00  0.00000000e+00
  0.00000000e+00  0.00000000e+00  0.00000000e+00  0.00000000e+00
  0.00000000e+00  0.00000000e+00  0.00000000e+00  0.00000000e+00
  0.00000000e+00  0.00000000e+00 -4.70184098e-08  9.05125664e-08
  0.00000000e+00  0.00000000e+00  0.00000000e+00  2.87850067e-06]","[[-1.02133734e-04 -2.00315900e-05]
 [ 7.68430410e-06 -1.32497834e-03]]",[],0.0,0.0
1787585368.888484,0.40348235391786824,-0.418470141685251,-0.06941595253205346,"[ 4.09040723e-06 -9.54189326e-08  0.00000000e+00  0.00000000e+00
  0.00000000e+00 -4.70184098e-08 -9.54189326e-08  2.71512994e-06
  0.00000000e+00  0.00000000e+00  0.00000000e+00  9.05125664e-08
  0.00000000e+00  0.00000000e+00  0.00000000e+00  0.00000000e+00
  0.00000000e+00  0.00000000e+00  0.00000000e+00  0.00000000e+00
  0.00000000e+00  0.00000000e+00  0.00000000e+00  0.00000000e+00
  0.00000000e+00  0.00000000e+00  0.00000000e+00  0.00000000e+00
  0.00000000e+00  0.00000000e+00 -4.70184098e-08  9.05125664e-08
  0.00000000e+00  0.00000000e+00  0.00000000e+00  2.87850067e-06]","[[-1.02133734e-04 -2.00315900e-05]
 [ 7.68430410e-06 -1.32497834e-03]]",[],0.0,0.0
1787585368.8950322,0.40348235391786824,-0.418470141685251,-0.06941595253205346,"[ 4.09040723e-06 -9.54189326e-08  0.00000000e+00  0.00000000e+00
  0.00000000e+00 -4.70184098e-08 -9.54189326e-08  2.71512994e-06
  0.00000000e+00  0.00000000e+00  0.00000000e+00  9.05125664e-08
  0.00000000e+00  0.00000000e+00  0.00000000e+00  0.00000000e+00
  0.00000000e+00  0.00000000e+00  0.00000000e+00  0.00000000e+00
  0.00000000e+00  0.00000000e+00  0.00000000e+00  0.00000000e+00
  0.00000000e+00  0.00000000e+00  0.00000000e+00  0.00000000e+00
  0.00000000e+00  0.00000000e+00 -4.70184098e-08  9.05125664e-08
  0.00000000e+00  0.00000000e+00  0.00000000e+00  2.87850067e-06]","[[-1.02133734e-04 -2.00315900e-05]
 [ 7.68430410e-06 -1.32497834e-03]]",[],0.0,0.0
1787585369.6159954,0.4035973122672017,-0.4192904453765705,-0.07510291635076394,"[ 4.01223267e-06 -1.05739861e-07  0.00000000e+00  0.00000000e+00
  0.00000000e+00  7.08147860e-09 -1.05739861e-07  2.58098148e-06
  0.00000000e+00  0.00000000e+00  0.00000000e+00  1.01389634e-07
  0.00000000e+00  0.00000000e+00  0.00000000e+00  0.00000000e+00
  0.00000000e+00  0.00000000e+00  0.00000000e+00  0.00000000e+00
  0.00000000e+00  0.00000000e+00  0.00000000e+00  0.00000000e+00
  0.00000000e+00  0.00000000e+00  0.00000000e+00  0.00000000e+00
  0.00000000e+00  0.00000000e+00  7.08147860e-09  1.01389634e-07
  0.00000000e+00  0.00000000e+00  0.00000000e+00  2.83688878e-06]","[[-1.00136195e-04 -1.22960246e-04]
 [ 8.44470107e-06 -1.28021988e-03]]",[],0.0,0.0
1787585369.7681417,0.4035973122672017,-0.4192904453765705,-0.07510291635076394,"[ 4.01223267e-06 -1.05739861e-07  0.00000000e+00  0.00000000e+00
  0.00000000e+00  7.08147860e-09 -1.05739861e-07  2.58098148e-06
  0.00000000e+00  0.00000000e+00  0.00000000e+00  1.01389634e-07
  0.00000000e+00  0.00000000e+00  0.00000000e+00  0.00000000e+00
  0.00000000e+00  0.00000000e+00  0.00000000e+00  0.00000000e+00
  0.00000000e+00  0.00000000e+00  0.00000000e+00  0.00000000e+00
  0.00000000e+00  0.00000000e+00  0.00000000e+00  0.00000000e+00
  0.00000000e+00  0.00000000e+00  7.08147860e-09  1.01389634e-07
  0.00000000e+00  0.00000000e+00  0.00000000e+00  2.83688878e-06]","[[-1.00136195e-04 -1.22960246e-04]
 [ 8.44470107e-06 -1.28021988e-03]]",[],0.0,0.0
1787585369.9242027,0.40379497628324285,-0.4203132420276141,-0.0772380621711517,"[ 3.93729066e-06 -1.15959918e-07  0.00000000e+00  0.00000000e+00
  0.00000000e+00  3.37025726e-08 -1.15959918e-07  2.45279885e-06
  0.00000000e+00  0.00000000e+00  0.00000000e+00  9.40596415e-08
  0.00000000e+00  0.00000000e+00  0.00000000e+00  0.00000000e+00
  0.00000000e+00  0.00000000e+00  0.00000000e+00  0.00000000e+00
  0.00000000e+00  0.00000000e+00  0.00000000e+00  0.00000000e+00
  0.00000000e+00  0.00000000e+00  0.00000000e+00  0.00000000e+00
  0.00000000e+00  0.00000000e+00  3.37025726e-08  9.40596415e-08
  0.00000000e+00  0.00000000e+00  0.00000000e+00  2.76341913e-06]","[[-9.81060471e-05 -2.03387849e-04]
 [ 9.97839442e-06 -1.20575299e-03]]",[],0.0,0.0
1787585370.7007797,0.40379497628324285,-0.4203132420276141,-0.0772380621711517,"[ 3.93729066e-06 -1.15959918e-07  0.00000000e+00  0.00000000e+00
  0.00000000e+00  3.37025726e-08 -1.15959918e-07  2.45279885e-06
  0.00000000e+00  0.00000000e+00  0.00000000e+00  9.40596415e-08
  0.00000000e+00  0.00000000e+00  0.00000000e+00  0.00000000e+00
  0.00000000e+00  0.00000000e+00  0.00000000e+00  0.00000000e+00
  0.00000000e+00  0.00000000e+00  0.00000000e+00  0.00000000e+00
  0.00000000e+00  0.00000000e+00  0.00000000e+00  0.00000000e+00
  0.00000000e+00  0.00000000e+00  3.37025726e-08  9.40596415e-08
  0.00000000e+00  0.00000000e+00  0.00000000e+00  2.76341913e-06]","[[-9.81060471e-05 -2.03387849e-04]
 [ 9.97839442e-06 -1.20575299e-03]]",[],0.0,0.0
1787585370.7415886,0.40379497628324285,-0.4203132420276141,-0.0772380621711517,"[ 3.93729066e-06 -1.15959918e-07  0.00000000e+00  0.00000000e+00
  0.00000000e+00  3.37025726e-08 -1.15959918e-07  2.45279885e-06
  0.00000000e+00  0.00000000e+00  0.00000000e+00  9.40596415e-08
  0.00000000e+00  0.00000000e+00  0.00000000e+00  0.00000000e+00
  0.00000000e+00  0.00000000e+00  0.00000000e+00  0.00000000e+00
  0.00000000e+00  0.00000000e+00  0.00000000e+00  0.00000000e+00
  0.00000000e+00  0.00000000e+00  0.00000000e+00  0.00000000e+00
  0.00000000e+00  0.00000000e+00  3.37025726e-08  9.40596415e-08
  0.00000000e+00  0.00000000e+00  0.00000000e+00  2.76341913e-06]","[[-9.81060471e-05 -2.03387849e-04]
 [ 9.97839442e-06 -1.20575299e-03]]",[],0.0,0.0
1787585370.8606746,0.4027644108585332,-0.4211597135518895,-0.07885469501848519,"[ 3.90131066e-06 -1.28063157e-07  0.00000000e+00  0.00000000e+00
  0.00000000e+00  3.25925652e-08 -1.28063157e-07  2.33657316e-06
  0.00000000e+00  0.00000000e+00  0.00000000e+00  7.90056217e-08
  0.00000000e+00  0.00000000e+00  0.00000000e+00  0.00000000e+00
  0.00000000e+00  0.00000000e+00  0.00000000e+00  0.00000000e+00
  0.00000000e+00  0.00000000e+00  0.00000000e+00  0.00000000e+00
  0.00000000e+00  0.00000000e+00  0.00000000e+00  0.00000000e+00
  0.00000000e+00  0.00000000e+00  3.25925652e-08  7.90056217e-08
  0.00000000e+00  0.00000000e+00  0.00000000e+00  2.78452740e-06]","[[-9.74035751e-05 -1.57308550e-04]
 [ 8.66171087e-06 -1.13568450e-03]]",[],0.0,0.0
1787585370.9321406,0.4027644108585332,-0.4211597135518895,-0.07885469501848519,"[ 3.90131066e-06 -1.28063157e-07  0.00000000e+00  0.00000000e+00
  0.00000000e+00  3.25925652e-08 -1.28063157e-07  2.33657316e-06
  0.00000000e+00  0.00000000e+00  0.00000000e+00  7.90056217e-08
  0.00000000e+00  0.00000000e+00  0.00000000e+00  0.00000000e+00
  0.00000000e+00  0.00000000e+00  0.00000000e+00  0.00000000e+00
  0.00000000e+00  0.00000000e+00  0.00000000e+00  0.00000000e+00
  0.00000000e+00  0.00000000e+00  0.00000000e+00  0.00000000e+00
  0.00000000e+00  0.00000000e+00  3.25925652e-08  7.90056217e-08
  0.00000000e+00  0.00000000e+00  0.00000000e+00  2.78452740e-06]","[[-9.74035751e-05 -1.57308550e-04]
 [ 8.66171087e-06 -1.13568450e-03]]",[],0.0,0.0
1787585370.9525962,0.4027644108585332,-0.4211597135518895,-0.07885469501848519,"[ 3.90131066e-06 -1.28063157e-07  0.00000000e+00  0.00000000e+00
  0.00000000e+00  3.25925652e-08 -1.28063157e-07  2.33657316e-06
  0.00000000e+00  0.00000000e+00  0.00000000e+00  7.90056217e-08
  0.00000000e+00  0.00000000e+00  0.00000000e+00  0.00000000e+00
  0.00000000e+00  0.00000000e+00  0.00000000e+00  0.00000000e+00
  0.00000000e+00  0.00000000e+00  0.00000000e+00  0.00000000e+00
  0.00000000e+00  0.00000000e+00  0.00000000e+00  0.00000000e+00
  0.00000000e+00  0.00000000e+00  3.25925652e-08  7.90056217e-08
  0.00000000e+00  0.00000000e+00  0.00000000e+00  2.78452740e-06]","[[-9.74035751e-05 -1.57308550e-04]
 [ 8.66171087e-06 -1.13568450e-03]]",[],0.0,0.0
1787585371.11209,0.4027644108585332,-0.4211597135518895,-0.07885469501848519,"[ 3.90131066e-06 -1.28063157e-07  0.00000000e+00  0.00000000e+00
  0.00000000e+00  3.25925652e-08 -1.28063157e-07  2.33657316e-06
  0.00000000e+00  0.00000000e+00  0.00000000e+00  7.90056217e-08
  0.00000000e+00  0.00000000e+00  0.00000000e+00  0.00000000e+00
  0.00000000e+00  0.00000000e+00  0.00000000e+00  0.00000000e+00
  0.00000000e+00  0.00000000e+00  0.00000000e+00  0.00000000e+00
  0.00000000e+00  0.00000000e+00  0.00000000e+00  0.00000000e+00
  0.00000000e+00  0.00000000e+00  3.25925652e-08  7.90056217e-08
  0.00000000e+00  0.00000000e+00  0.00000000e+00  2.78452740e-06]","[[-9.74035751e-05 -1.57308550e-04]
 [ 8.66171087e-06 -1.13568450e-03]]",[],0.0,0.0
1787585371.1458745,0.4027644108585332,-0.4211597135518895,-0.07885469501848519,"[ 3.90131066e-06 -1.28063157e-07  0.00000000e+00  0.00000000e+00
  0.00000000e+00  3.25925652e-08 -1.28063157e-07  2.33657316e-06
  0.00000000e+00  0.00000000e+00  0.00000000e+00  7.90056217e-08
  0.00000000e+00  0.00000000e+00  0.00000000e+00  0.00000000e+00
  0.00000000e+00  0.00000000e+00  0.00000000e+00  0.00000000e+00
  0.00000000e+00  0.00000000e+00  0.00000000e+00  0.00000000e+00
  0.00000000e+00  0.00000000e+00  0.00000000e+00  0.00000000e+00
  0.00000000e+00  0.00000000e+00  3.25925652e-08  7.90056217e-08
  0.00000000e+00  0.00000000e+00  0.00000000e+00  2.78452740e-06]","[[-9.74035751e-05 -1.57308550e-04]
 [ 8.66171087e-06 -1.13568450e-03]]",[],0.0,0.0
1787585371.196162,0.4027644108585332,-0.4211597135518895,-0.07885469501848519,"[ 3.90131066e-06 -1.28063157e-07  0.00000000e+00  0.00000000e+00
  0.00000000e+00  3.25925652e-08 -1.28063157e-07  2.33657316e-06
  0.00000000e+00  0.00000000e+00  0.00000000e+00  7.90056217e-08
  0.00000000e+00  0.00000000e+00  0.00000000e+00  0.00000000e+00
  0.00000000e+00  0.00000000e+00  0.00000000e+00  0.00000000e+00
  0.00000000e+00  0.00000000e+00  0.00000000e+00  0.00000000e+00
  0.00000000e+00  0.00000000e+00  0.00000000e+00  0.00000000e+00
  0.00000000e+00  0.00000000e+00  3.25925652e-08  7.90056217e-08
  0.00000000e+00  0.00000000e+00  0.00000000e+00  2.78452740e-06]","[[-9.74035751e-05 -1.57308550e-04]
 [ 8.66171087e-06 -1.13568450e-03]]",[],0.0,0.0
1787585371.248271,0.4027644108585332,-0.4211597135518895,-0.07885469501848519,"[ 3.90131066e-06 -1.28063157e-07  0.00000000e+00  0.00000000e+00
  0.00000000e+00  3.25925652e-08 -1.28063157e-07  2.33657316e-06
  0.00000000e+00  0.00000000e+00  0.00000000e+00  7.90056217e-08
  0.00000000e+00  0.00000000e+00  0.00000000e+00  0.00000000e+00
  0.00000000e+00  0.00000000e+00  0.00000000e+00  0.00000000e+00
  0.00000000e+00  0.00000000e+00  0.00000000e+00  0.00000000e+00
  0.00000000e+00  0.00000000e+00  0.00000000e+00  0.00000000e+00
  0.00000000e+00  0.00000000e+00  3.25925652e-08  7.90056217e-08
  0.00000000e+00  0.00000000e+00  0.00000000e+00  2.78452740e-06]","[[-9.74035751e-05 -1.57308550e-04]
 [ 8.66171087e-06 -1.13568450e-03]]",[],0.0,0.0
1787585371.3139231,0.4027644108585332,-0.4211597135518895,-0.07885469501848519,"[ 3.90131066e-06 -1.28063157e-07  0.00000000e+00  0.00000000e+00
  0.00000000e+00  3.25925652e-08 -1.28063157e-07  2.33657316e-06
  0.00000000e+00  0.00000000e+00  0.00000000e+00  7.90056217e-08
  0.00000000e+00  0.00000000e+00  0.00000000e+00  0.00000000e+00
  0.00000000e+00  0.00000000e+00  0.00000000e+00  0.00000000e+00
  0.00000000e+00  0.00000000e+00  0.00000000e+00  0.00000000e+00
  0.00000000e+00  0.00000000e+00  0.00000000e+00  0.00000000e+00
  0.00000000e+00  0.00000000e+00  3.25925652e-08  7.90056217e-08
  0.00000000e+00  0.00000000e+00  0.00000000e+00  2.78452740e-06]","[[-9.74035751e-05 -1.57308550e-04]
 [ 8.66171087e-06 -1.13568450e-03]]",[],0.0,0.0
1787585371.3491702,0.4027644108585332,-0.4211597135518895,-0.07885469501848519,"[ 3.90131066e-06 -1.28063157e-07  0.00000000e+00  0.00000000e+00
  0.00000000e+00  3.25925652e-08 -1.28063157e-07  2.33657316e-06
  0.00000000e+00  0.00000000e+00  0.00000000e+00  7.90056217e-08
  0.00000000e+00  0.00000000e+00  0.00000000e+00  0.00000000e+00
  0.00000000e+00  0.00000000e+00  0.00000000e+00  0.00000000e+00
  0.00000000e+00  0.00000000e+00  0.00000000e+00  0.00000000e+00
