time,x,y,yaw,cov_prop,K_gain,innovation,v_ekf,omega_ekf
1787561239.531144,1.8151436275368582,2.003329060466363,2.384312642278964,"[ 6.70778168e-05 -2.09421177e-06  0.00000000e+00  0.00000000e+00
  0.00000000e+00 -7.84065370e-06 -2.09421177e-06  5.38523026e-05
  0.00000000e+00  0.00000000e+00  0.00000000e+00 -2.03560031e-06
  0.00000000e+00  0.00000000e+00  0.00000000e+00  0.00000000e+00
  0.00000000e+00  0.00000000e+00  0.00000000e+00  0.00000000e+00
  0.00000000e+00  0.00000000e+00  0.00000000e+00  0.00000000e+00
  0.00000000e+00  0.00000000e+00  0.00000000e+00  0.00000000e+00
  0.00000000e+00  0.00000000e+00 -7.84065370e-06 -2.03560031e-06
  0.00000000e+00  0.00000000e+00  0.00000000e+00  5.42436198e-06]","[[-0.00110018  0.03412509]
 [-0.00095285 -0.01254323]]",[],0.0,0.0
1787561239.5846703,1.8151436275368582,2.003329060466363,2.384312642278964,"[ 6.70778168e-05 -2.09421177e-06  0.00000000e+00  0.00000000e+00
  0.00000000e+00 -7.84065370e-06 -2.09421177e-06  5.38523026e-05
  0.00000000e+00  0.00000000e+00  0.00000000e+00 -2.03560031e-06
  0.00000000e+00  0.00000000e+00  0.00000000e+00  0.00000000e+00
  0.00000000e+00  0.00000000e+00  0.00000000e+00  0.00000000e+00
  0.00000000e+00  0.00000000e+00  0.00000000e+00  0.00000000e+00
  0.00000000e+00  0.00000000e+00  0.00000000e+00  0.00000000e+00
  0.00000000e+00  0.00000000e+00 -7.84065370e-06 -2.03560031e-06
  0.00000000e+00  0.00000000e+00  0.00000000e+00  5.42436198e-06]","[[-0.00110018  0.03412509]
 [-0.00095285 -0.01254323]]",[],0.0,0.0
1787561239.6315784,1.8151436275368582,2.003329060466363,2.384312642278964,"[ 6.70778168e-05 -2.09421177e-06  0.00000000e+00  0.00000000e+00
  0.00000000e+00 -7.84065370e-06 -2.09421177e-06  5.38523026e-05
  0.00000000e+00  0.00000000e+00  0.00000000e+00 -2.03560031e-06
  0.00000000e+00  0.00000000e+00  0.00000000e+00  0.00000000e+00
  0.00000000e+00  0.00000000e+00  0.00000000e+00  0.00000000e+00
  0.00000000e+00  0.00000000e+00  0.00000000e+00  0.00000000e+00
  0.00000000e+00  0.00000000e+00  0.00000000e+00  0.00000000e+00
  0.00000000e+00  0.00000000e+00 -7.84065370e-06 -2.03560031e-06
  0.00000000e+00  0.00000000e+00  0.00000000e+00  5.42436198e-06]","[[-0.00110018  0.03412509]
 [-0.00095285 -0.01254323]]",[],0.0,0.0
1787561239.69573,1.8151436275368582,2.003329060466363,2.384312642278964,"[ 6.70778168e-05 -2.09421177e-06  0.00000000e+00  0.00000000e+00
  0.00000000e+00 -7.84065370e-06 -2.09421177e-06  5.38523026e-05
  0.00000000e+00  0.00000000e+00  0.00000000e+00 -2.03560031e-06
  0.00000000e+00  0.00000000e+00  0.00000000e+00  0.00000000e+00
  0.00000000e+00  0.00000000e+00  0.00000000e+00  0.00000000e+00
  0.00000000e+00  0.00000000e+00  0.00000000e+00  0.00000000e+00
  0.00000000e+00  0.00000000e+00  0.00000000e+00  0.00000000e+00
  0.00000000e+00  0.00000000e+00 -7.84065370e-06 -2.03560031e-06
  0.00000000e+00  0.00000000e+00  0.00000000e+00  5.42436198e-06]","[[-0.00110018  0.03412509]
 [-0.00095285 -0.01254323]]",[],0.0,0.0
1787561239.7314541,1.8151436275368582,2.003329060466363,2.384312642278964,"[ 6.70778168e-05 -2.09421177e-06  0.00000000e+00  0.00000000e+00
  0.00000000e+00 -7.84065370e-06 -2.09421177e-06  5.38523026e-05
  0.00000000e+00  0.00000000e+00  0.00000000e+00 -2.03560031e-06
  0.00000000e+00  0.00000000e+00  0.00000000e+00  0.00000000e+00
  0.00000000e+00  0.00000000e+00  0.00000000e+00  0.00000000e+00
  0.00000000e+00  0.00000000e+00  0.00000000e+00  0.00000000e+00
  0.00000000e+00  0.00000000e+00  0.00000000e+00  0.00000000e+00
  0.00000000e+00  0.00000000e+00 -7.84065370e-06 -2.03560031e-06
  0.00000000e+00  0.00000000e+00  0.00000000e+00  5.42436198e-06]","[[-0.00110018  0.03412509]
 [-0.00095285 -0.01254323]]",[],0.0,0.0
1787561239.7834525,1.8151436275368582,2.003329060466363,2.384312642278964,"[ 6.70778168e-05 -2.09421177e-06  0.00000000e+00  0.00000000e+00
  0.00000000e+00 -7.84065370e-06 -2.09421177e-06  5.38523026e-05
  0.00000000e+00  0.00000000e+00  0.00000000e+00 -2.03560031e-06
  0.00000000e+00  0.00000000e+00  0.00000000e+00  0.00000000e+00
  0.00000000e+00  0.00000000e+00  0.00000000e+00  0.00000000e+00
  0.00000000e+00  0.00000000e+00  0.00000000e+00  0.00000000e+00
  0.00000000e+00  0.00000000e+00  0.00000000e+00  0.00000000e+00
  0.00000000e+00  0.00000000e+00 -7.84065370e-06 -2.03560031e-06
  0.00000000e+00  0.00000000e+00  0.00000000e+00  5.42436198e-06]","[[-0.00110018  0.03412509]
 [-0.00095285 -0.01254323]]",[],0.0,0.0
1787561239.836457,1.8151436275368582,2.003329060466363,2.384312642278964,"[ 6.70778168e-05 -2.09421177e-06  0.00000000e+00  0.00000000e+00
  0.00000000e+00 -7.84065370e-06 -2.09421177e-06  5.38523026e-05
  0.00000000e+00  0.00000000e+00  0.00000000e+00 -2.03560031e-06
  0.00000000e+00  0.00000000e+00  0.00000000e+00  0.00000000e+00
  0.00000000e+00  0.00000000e+00  0.00000000e+00  0.00000000e+00
  0.00000000e+00  0.00000000e+00  0.00000000e+00  0.00000000e+00
  0.00000000e+00  0.00000000e+00  0.00000000e+00  0.00000000e+00
  0.00000000e+00  0.00000000e+00 -7.84065370e-06 -2.03560031e-06
  0.00000000e+00  0.00000000e+00  0.00000000e+00  5.42436198e-06]","[[-0.00110018  0.03412509]
 [-0.00095285 -0.01254323]]",[],0.0,0.0
1787561239.8826427,1.8151436275368582,2.003329060466363,2.384312642278964,"[ 6.70778168e-05 -2.09421177e-06  0.00000000e+00  0.00000000e+00
  0.00000000e+00 -7.84065370e-06 -2.09421177e-06  5.38523026e-05
  0.00000000e+00  0.00000000e+00  0.00000000e+00 -2.03560031e-06
  0.00000000e+00  0.00000000e+00  0.00000000e+00  0.00000000e+00
  0.00000000e+00  0.00000000e+00  0.00000000e+00  0.00000000e+00
  0.00000000e+00  0.00000000e+00  0.00000000e+00  0.00000000e+00
  0.00000000e+00  0.00000000e+00  0.00000000e+00  0.00000000e+00
  0.00000000e+00  0.00000000e+00 -7.84065370e-06 -2.03560031e-06
  0.00000000e+00  0.00000000e+00  0.00000000e+00  5.42436198e-06]","[[-0.00110018  0.03412509]
 [-0.00095285 -0.01254323]]",[],0.0,0.0
1787561239.9314697,1.8151436275368582,2.003329060466363,2.384312642278964,"[ 6.70778168e-05 -2.09421177e-06  0.00000000e+00  0.00000000e+00
  0.00000000e+00 -7.84065370e-06 -2.09421177e-06  5.38523026e-05
  0.00000000e+00  0.00000000e+00  0.00000000e+00 -2.03560031e-06
  0.00000000e+00  0.00000000e+00  0.00000000e+00  0.00000000e+00
  0.00000000e+00  0.00000000e+00  0.00000000e+00  0.00000000e+00
  0.00000000e+00  0.00000000e+00  0.00000000e+00  0.00000000e+00
  0.00000000e+00  0.00000000e+00  0.00000000e+00  0.00000000e+00
  0.00000000e+00  0.00000000e+00 -7.84065370e-06 -2.03560031e-06
  0.00000000e+00  0.00000000e+00  0.00000000e+00  5.42436198e-06]","[[-0.00110018  0.03412509]
 [-0.00095285 -0.01254323]]",[],0.0,0.0
1787561239.9964957,1.8151436275368582,2.003329060466363,2.384312642278964,"[ 6.70778168e-05 -2.09421177e-06  0.00000000e+00  0.00000000e+00
  0.00000000e+00 -7.84065370e-06 -2.09421177e-06  5.38523026e-05
  0.00000000e+00  0.00000000e+00  0.00000000e+00 -2.03560031e-06
  0.00000000e+00  0.00000000e+00  0.00000000e+00  0.00000000e+00
  0.00000000e+00  0.00000000e+00  0.00000000e+00  0.00000000e+00
  0.00000000e+00  0.00000000e+00  0.00000000e+00  0.00000000e+00
  0.00000000e+00  0.00000000e+00  0.00000000e+00  0.00000000e+00
  0.00000000e+00  0.00000000e+00 -7.84065370e-06 -2.03560031e-06
  0.00000000e+00  0.00000000e+00  0.00000000e+00  5.42436198e-06]","[[-0.00110018  0.03412509]
 [-0.00095285 -0.01254323]]",[],0.0,0.0
1787561240.0427022,1.8151436275368582,2.003329060466363,2.384312642278964,"[ 6.70778168e-05 -2.09421177e-06  0.00000000e+00  0.00000000e+00
  0.00000000e+00 -7.84065370e-06 -2.09421177e-06  5.38523026e-05
  0.00000000e+00  0.00000000e+00  0.00000000e+00 -2.03560031e-06
  0.00000000e+00  0.00000000e+00  0.00000000e+00  0.00000000e+00
  0.00000000e+00  0.00000000e+00  0.00000000e+00  0.00000000e+00
  0.00000000e+00  0.00000000e+00  0.00000000e+00  0.00000000e+00
  0.00000000e+00  0.00000000e+00  0.00000000e+00  0.00000000e+00
  0.00000000e+00  0.00000000e+00 -7.84065370e-06 -2.03560031e-06
  0.00000000e+00  0.00000000e+00  0.00000000e+00  5.42436198e-06]","[[-0.00110018  0.03412509]
 [-0.00095285 -0.01254323]]",[],0.0,0.0
1787561240.0853412,1.8151436275368582,2.003329060466363,2.384312642278964,"[ 6.70778168e-05 -2.09421177e-06  0.00000000e+00  0.00000000e+00
  0.00000000e+00 -7.84065370e-06 -2.09421177e-06  5.38523026e-05
  0.00000000e+00  0.00000000e+00  0.00000000e+00 -2.03560031e-06
  0.00000000e+00  0.00000000e+00  0.00000000e+00  0.00000000e+00
  0.00000000e+00  0.00000000e+00  0.00000000e+00  0.00000000e+00
  0.00000000e+00  0.00000000e+00  0.00000000e+00  0.00000000e+00
  0.00000000e+00  0.00000000e+00  0.00000000e+00  0.00000000e+00
  0.00000000e+00  0.00000000e+00 -7.84065370e-06 -2.03560031e-06
  0.00000000e+00  0.00000000e+00  0.00000000e+00  5.42436198e-06]","[[-0.00110018  0.03412509]
 [-0.00095285 -0.01254323]]",[],0.0,0.0
1787561240.1336963,1.8151436275368582,2.003329060466363,2.384312642278964,"[ 6.70778168e-05 -2.09421177e-06  0.00000000e+00  0.00000000e+00
  0.00000000e+00 -7.84065370e-06 -2.09421177e-06  5.38523026e-05
  0.00000000e+00  0.00000000e+00  0.00000000e+00 -2.03560031e-06
  0.00000000e+00  0.00000000e+00  0.00000000e+00  0.00000000e+00
  0.00000000e+00  0.00000000e+00  0.00000000e+00  0.00000000e+00
  0.00000000e+00  0.00000000e+00  0.00000000e+00  0.00000000e+00
  0.00000000e+00  0.00000000e+00  0.00000000e+00  0.00000000e+00
  0.00000000e+00  0.00000000e+00 -7.84065370e-06 -2.03560031e-06
  0.00000000e+00  0.00000000e+00  0.00000000e+00  5.42436198e-06]","[[-0.00110018  0.03412509]
 [-0.00095285 -0.01254323]]",[],0.0,0.0
1787561240.1821926,1.8151436275368582,2.003329060466363,2.384312642278964,"[ 6.70778168e-05 -2.09421177e-06  0.00000000e+00  0.00000000e+00
  0.00000000e+00 -7.84065370e-06 -2.09421177e-06  5.38523026e-05
  0.00000000e+00  0.00000000e+00  0.00000000e+00 -2.03560031e-06
  0.00000000e+00  0.00000000e+00  0.00000000e+00  0.00000000e+00
  0.00000000e+00  0.00000000e+00  0.00000000e+00  0.00000000e+00
  0.00000000e+00  0.00000000e+00  0.00000000e+00  0.00000000e+00
  0.00000000e+00  0.00000000e+00  0.00000000e+00  0.00000000e+00
  0.00000000e+00  0.00000000e+00 -7.84065370e-06 -2.03560031e-06
  0.00000000e+00  0.00000000e+00  0.00000000e+00  5.42436198e-06]","[[-0.00110018  0.03412509]
 [-0.00095285 -0.01254323]]",[],0.0,0.0
1787561240.2366035,1.827232179328597,1.947886500881695,2.4259607908496026,"[ 3.95014342e-05 -1.48625502e-06  0.00000000e+00  0.00000000e+00
  0.00000000e+00 -4.34542885e-06 -1.48625502e-06  2.60502112e-05
  0.00000000e+00  0.00000000e+00  0.00000000e+00 -1.50448112e-06
  0.00000000e+00  0.00000000e+00  0.00000000e+00  0.00000000e+00
  0.00000000e+00  0.00000000e+00  0.00000000e+00  0.00000000e+00
  0.00000000e+00  0.00000000e+00  0.00000000e+00  0.00000000e+00
  0.00000000e+00  0.00000000e+00  0.00000000e+00  0.00000000e+00
  0.00000000e+00  0.00000000e+00 -4.34542885e-06 -1.50448112e-06
  0.00000000e+00  0.00000000e+00  0.00000000e+00  4.28676552e-06]","[[ 0.00010488  0.01966232]
 [-0.00065227  0.0025855 ]]",[],0.0,0.0
1787561240.282464,1.827232179328597,1.947886500881695,2.4259607908496026,"[ 3.95014342e-05 -1.48625502e-06  0.00000000e+00  0.00000000e+00
  0.00000000e+00 -4.34542885e-06 -1.48625502e-06  2.60502112e-05
  0.00000000e+00  0.00000000e+00  0.00000000e+00 -1.50448112e-06
  0.00000000e+00  0.00000000e+00  0.00000000e+00  0.00000000e+00
  0.00000000e+00  0.00000000e+00  0.00000000e+00  0.00000000e+00
  0.00000000e+00  0.00000000e+00  0.00000000e+00  0.00000000e+00
  0.00000000e+00  0.00000000e+00  0.00000000e+00  0.00000000e+00
  0.00000000e+00  0.00000000e+00 -4.34542885e-06 -1.50448112e-06
  0.00000000e+00  0.00000000e+00  0.00000000e+00  4.28676552e-06]","[[ 0.00010488  0.01966232]
 [-0.00065227  0.0025855 ]]",[],0.0,0.0
1787561240.3385231,1.827232179328597,1.947886500881695,2.4259607908496026,"[ 3.95014342e-05 -1.48625502e-06  0.00000000e+00  0.00000000e+00
  0.00000000e+00 -4.34542885e-06 -1.48625502e-06  2.60502112e-05
  0.00000000e+00  0.00000000e+00  0.00000000e+00 -1.50448112e-06
  0.00000000e+00  0.00000000e+00  0.00000000e+00  0.00000000e+00
  0.00000000e+00  0.00000000e+00  0.00000000e+00  0.00000000e+00
  0.00000000e+00  0.00000000e+00  0.00000000e+00  0.00000000e+00
  0.00000000e+00  0.00000000e+00  0.00000000e+00  0.00000000e+00
  0.00000000e+00  0.00000000e+00 -4.34542885e-06 -1.50448112e-06
  0.00000000e+00  0.00000000e+00  0.00000000e+00  4.28676552e-06]","[[ 0.00010488  0.01966232]
 [-0.00065227  0.0025855 ]]",[],0.0,0.0
1787561240.382099,1.827232179328597,1.947886500881695,2.4259607908496026,"[ 3.95014342e-05 -1.48625502e-06  0.00000000e+00  0.00000000e+00
  0.00000000e+00 -4.34542885e-06 -1.48625502e-06  2.60502112e-05
  0.00000000e+00  0.00000000e+00  0.00000000e+00 -1.50448112e-06
  0.00000000e+00  0.00000000e+00  0.00000000e+00  0.00000000e+00
  0.00000000e+00  0.00000000e+00  0.00000000e+00  0.00000000e+00
  0.00000000e+00  0.00000000e+00  0.00000000e+00  0.00000000e+00
  0.00000000e+00  0.00000000e+00  0.00000000e+00  0.00000000e+00
  0.00000000e+00  0.00000000e+00 -4.34542885e-06 -1.50448112e-06
  0.00000000e+00  0.00000000e+00  0.00000000e+00  4.28676552e-06]","[[ 0.00010488  0.01966232]
 [-0.00065227  0.0025855 ]]",[],0.0,0.0
1787561240.431724,1.827232179328597,1.947886500881695,2.4259607908496026,"[ 3.95014342e-05 -1.48625502e-06  0.00000000e+00  0.00000000e+00
  0.00000000e+00 -4.34542885e-06 -1.48625502e-06  2.60502112e-05
  0.00000000e+00  0.00000000e+00  0.00000000e+00 -1.50448112e-06
  0.00000000e+00  0.00000000e+00  0.00000000e+00  0.00000000e+00
  0.00000000e+00  0.00000000e+00  0.00000000e+00  0.00000000e+00
  0.00000000e+00  0.00000000e+00  0.00000000e+00  0.00000000e+00
  0.00000000e+00  0.00000000e+00  0.00000000e+00  0.00000000e+00
  0.00000000e+00  0.00000000e+00 -4.34542885e-06 -1.50448112e-06
  0.00000000e+00  0.00000000e+00  0.00000000e+00  4.28676552e-06]","[[ 0.00010488  0.01966232]
 [-0.00065227  0.0025855 ]]",[],0.0,0.0
1787561240.481668,1.827232179328597,1.947886500881695,2.4259607908496026,"[ 3.95014342e-05 -1.48625502e-06  0.00000000e+00  0.00000000e+00
  0.00000000e+00 -4.34542885e-06 -1.48625502e-06  2.60502112e-05
  0.00000000e+00  0.00000000e+00  0.00000000e+00 -1.50448112e-06
  0.00000000e+00  0.00000000e+00  0.00000000e+00  0.00000000e+00
  0.00000000e+00  0.00000000e+00  0.00000000e+00  0.00000000e+00
  0.00000000e+00  0.00000000e+00  0.00000000e+00  0.00000000e+00
  0.00000000e+00  0.00000000e+00  0.00000000e+00  0.00000000e+00
  0.00000000e+00  0.00000000e+00 -4.34542885e-06 -1.50448112e-06
  0.00000000e+00  0.00000000e+00  0.00000000e+00  4.28676552e-06]","[[ 0.00010488  0.01966232]
 [-0.00065227  0.0025855 ]]",[],0.0,0.0
1787561240.5318036,1.827232179328597,1.947886500881695,2.4259607908496026,"[ 3.95014342e-05 -1.48625502e-06  0.00000000e+00  0.00000000e+00
  0.00000000e+00 -4.34542885e-06 -1.48625502e-06  2.60502112e-05
  0.00000000e+00  0.00000000e+00  0.00000000e+00 -1.50448112e-06
  0.00000000e+00  0.00000000e+00  0.00000000e+00  0.00000000e+00
  0.00000000e+00  0.00000000e+00  0.00000000e+00  0.00000000e+00
  0.00000000e+00  0.00000000e+00  0.00000000e+00  0.00000000e+00
  0.00000000e+00  0.00000000e+00  0.00000000e+00  0.00000000e+00
  0.00000000e+00  0.00000000e+00 -4.34542885e-06 -1.50448112e-06
  0.00000000e+00  0.00000000e+00  0.00000000e+00  4.28676552e-06]","[[ 0.00010488  0.01966232]
 [-0.00065227  0.0025855 ]]",[],0.0,0.0
1787561240.5840588,1.827232179328597,1.947886500881695,2.4259607908496026,"[ 3.95014342e-05 -1.48625502e-06  0.00000000e+00  0.00000000e+00
  0.00000000e+00 -4.34542885e-06 -1.48625502e-06  2.60502112e-05
  0.00000000e+00  0.00000000e+00  0.00000000e+00 -1.50448112e-06
  0.00000000e+00  0.00000000e+00  0.00000000e+00  0.00000000e+00
  0.00000000e+00  0.00000000e+00  0.00000000e+00  0.00000000e+00
  0.00000000e+00  0.00000000e+00  0.00000000e+00  0.00000000e+00
  0.00000000e+00  0.00000000e+00  0.00000000e+00  0.00000000e+00
  0.00000000e+00  0.00000000e+00 -4.34542885e-06 -1.50448112e-06
  0.00000000e+00  0.00000000e+00  0.00000000e+00  4.28676552e-06]","[[ 0.00010488  0.01966232]
 [-0.00065227  0.0025855 ]]",[],0.0,0.0
1787561240.6322622,1.827232179328597,1.947886500881695,2.4259607908496026,"[ 3.95014342e-05 -1.48625502e-06  0.00000000e+00  0.00000000e+00
  0.00000000e+00 -4.34542885e-06 -1.48625502e-06  2.60502112e-05
  0.00000000e+00  0.00000000e+00  0.00000000e+00 -1.50448112e-06
  0.00000000e+00  0.00000000e+00  0.00000000e+00  0.00000000e+00
  0.00000000e+00  0.00000000e+00  0.00000000e+00  0.00000000e+00
  0.00000000e+00  0.00000000e+00  0.00000000e+00  0.00000000e+00
  0.00000000e+00  0.00000000e+00  0.00000000e+00  0.00000000e+00
  0.00000000e+00  0.00000000e+00 -4.34542885e-06 -1.50448112e-06
  0.00000000e+00  0.00000000e+00  0.00000000e+00  4.28676552e-06]","[[ 0.00010488  0.01966232]
 [-0.00065227  0.0025855 ]]",[],0.0,0.0
1787561240.6826227,1.827232179328597,1.947886500881695,2.4259607908496026,"[ 3.95014342e-05 -1.48625502e-06  0.00000000e+00  0.00000000e+00
  0.00000000e+00 -4.34542885e-06 -1.48625502e-06  2.60502112e-05
  0.00000000e+00  0.00000000e+00  0.00000000e+00 -1.50448112e-06
  0.00000000e+00  0.00000000e+00  0.00000000e+00  0.00000000e+00
  0.00000000e+00  0.00000000e+00  0.00000000e+00  0.00000000e+00
  0.00000000e+00  0.00000000e+00  0.00000000e+00  0.00000000e+00
  0.00000000e+00  0.00000000e+00  0.00000000e+00  0.00000000e+00
  0.00000000e+00  0.00000000e+00 -4.34542885e-06 -1.50448112e-06
  0.00000000e+00  0.00000000e+00  0.00000000e+00  4.28676552e-06]","[[ 0.00010488  0.01966232]
 [-0.00065227  0.0025855 ]]",[],0.0,0.0
1787561240.7393417,1.827232179328597,1.947886500881695,2.4259607908496026,"[ 3.95014342e-05 -1.48625502e-06  0.00000000e+00  0.00000000e+00
  0.00000000e+00 -4.34542885e-06 -1.48625502e-06  2.60502112e-05
  0.00000000e+00  0.00000000e+00  0.00000000e+00 -1.50448112e-06
  0.00000000e+00  0.00000000e+00  0.00000000e+00  0.00000000e+00
  0.00000000e+00  0.00000000e+00  0.00000000e+00  0.00000000e+00
  0.00000000e+00  0.00000000e+00  0.00000000e+00  0.00000000e+00
  0.00000000e+00  0.00000000e+00  0.00000000e+00  0.00000000e+00
  0.00000000e+00  0.00000000e+00 -4.34542885e-06 -1.50448112e-06
  0.00000000e+00  0.00000000e+00  0.00000000e+00  4.28676552e-06]","[[ 0.00010488  0.01966232]
 [-0.00065227  0.0025855 ]]",[],0.0,0.0
1787561240.7819145,1.827232179328597,1.947886500881695,2.4259607908496026,"[ 3.95014342e-05 -1.48625502e-06  0.00000000e+00  0.00000000e+00
  0.00000000e+00 -4.34542885e-06 -1.48625502e-06  2.60502112e-05
  0.00000000e+00  0.00000000e+00  0.00000000e+00 -1.50448112e-06
  0.00000000e+00  0.00000000e+00  0.00000000e+00  0.00000000e+00
  0.00000000e+00  0.00000000e+00  0.00000000e+00  0.00000000e+00
  0.00000000e+00  0.00000000e+00  0.00000000e+00  0.00000000e+00
  0.00000000e+00  0.00000000e+00  0.00000000e+00  0.00000000e+00
  0.00000000e+00  0.00000000e+00 -4.34542885e-06 -1.50448112e-06
  0.00000000e+00  0.00000000e+00  0.00000000e+00  4.28676552e-06]","[[ 0.00010488  0.01966232]
 [-0.00065227  0.0025855 ]]",[],0.0,0.0
1787561240.834684,1.827232179328597,1.947886500881695,2.4259607908496026,"[ 3.95014342e-05 -1.48625502e-06  0.00000000e+00  0.00000000e+00
  0.00000000e+00 -4.34542885e-06 -1.48625502e-06  2.60502112e-05
  0.00000000e+00  0.00000000e+00  0.00000000e+00 -1.50448112e-06
  0.00000000e+00  0.00000000e+00  0.00000000e+00  0.00000000e+00
  0.00000000e+00  0.00000000e+00  0.00000000e+00  0.00000000e+00
  0.00000000e+00  0.00000000e+00  0.00000000e+00  0.00000000e+00
  0.00000000e+00  0.00000000e+00  0.00000000e+00  0.00000000e+00
  0.00000000e+00  0.00000000e+00 -4.34542885e-06 -1.50448112e-06
  0.00000000e+00  0.00000000e+00  0.00000000e+00  4.28676552e-06]","[[ 0.00010488  0.01966232]
 [-0.00065227  0.0025855 ]]",[],0.0,0.0
1787561240.8874953,1.827232179328597,1.947886500881695,2.4259607908496026,"[ 3.95014342e-05 -1.48625502e-06  0.00000000e+00  0.00000000e+00
  0.00000000e+00 -4.34542885e-06 -1.48625502e-06  2.60502112e-05
  0.00000000e+00  0.00000000e+00  0.00000000e+00 -1.50448112e-06
  0.00000000e+00  0.00000000e+00  0.00000000e+00  0.00000000e+00
  0.00000000e+00  0.00000000e+00  0.00000000e+00  0.00000000e+00
  0.00000000e+00  0.00000000e+00  0.00000000e+00  0.00000000e+00
  0.00000000e+00  0.00000000e+00  0.00000000e+00  0.00000000e+00
  0.00000000e+00  0.00000000e+00 -4.34542885e-06 -1.50448112e-06
  0.00000000e+00  0.00000000e+00  0.00000000e+00  4.28676552e-06]","[[ 0.00010488  0.01966232]
 [-0.00065227  0.0025855 ]]",[],0.0,0.0
1787561240.9360547,1.827232179328597,1.947886500881695,2.4259607908496026,"[ 3.95014342e-05 -1.48625502e-06  0.00000000e+00  0.00000000e+00
  0.00000000e+00 -4.34542885e-06 -1.48625502e-06  2.60502112e-05
  0.00000000e+00  0.00000000e+00  0.00000000e+00 -1.50448112e-06
  0.00000000e+00  0.00000000e+00  0.00000000e+00  0.00000000e+00
  0.00000000e+00  0.00000000e+00  0.00000000e+00  0.00000000e+00
  0.00000000e+00  0.00000000e+00  0.00000000e+00  0.00000000e+00
  0.00000000e+00  0.00000000e+00  0.00000000e+00  0.00000000e+00
  0.00000000e+00  0.00000000e+00 -4.34542885e-06 -1.50448112e-06
  0.00000000e+00  0.00000000e+00  0.00000000e+00  4.28676552e-06]","[[ 0.00010488  0.01966232]
 [-0.00065227  0.0025855 ]]",[],0.0,0.0
1787561240.9896972,1.827232179328597,1.947886500881695,2.4259607908496026,"[ 3.95014342e-05 -1.48625502e-06  0.00000000e+00  0.00000000e+00
  0.00000000e+00 -4.34542885e-06 -1.48625502e-06  2.60502112e-05
  0.00000000e+00  0.00000000e+00  0.00000000e+00 -1.50448112e-06
  0.00000000e+00  0.00000000e+00  0.00000000e+00  0.00000000e+00
  0.00000000e+00  0.00000000e+00  0.00000000e+00  0.00000000e+00
  0.00000000e+00  0.00000000e+00  0.00000000e+00  0.00000000e+00
  0.00000000e+00  0.00000000e+00  0.00000000e+00  0.00000000e+00
  0.00000000e+00  0.00000000e+00 -4.34542885e-06 -1.50448112e-06
  0.00000000e+00  0.00000000e+00  0.00000000e+00  4.28676552e-06]","[[ 0.00010488  0.01966232]
 [-0.00065227  0.0025855 ]]",[],0.0,0.0
1787561241.034388,1.8407132192247044,1.9208412972586653,2.458555590803578,"[ 2.85121043e-05 -6.78990402e-07  0.00000000e+00  0.00000000e+00
  0.00000000e+00 -2.95189743e-06 -6.78990402e-07  1.69526156e-05
  0.00000000e+00  0.00000000e+00  0.00000000e+00 -1.28975798e-06
  0.00000000e+00  0.00000000e+00  0.00000000e+00  0.00000000e+00
  0.00000000e+00  0.00000000e+00  0.00000000e+00  0.00000000e+00
  0.00000000e+00  0.00000000e+00  0.00000000e+00  0.00000000e+00
  0.00000000e+00  0.00000000e+00  0.00000000e+00  0.00000000e+00
  0.00000000e+00  0.00000000e+00 -2.95189743e-06 -1.28975798e-06
  0.00000000e+00  0.00000000e+00  0.00000000e+00  4.35065068e-06]","[[ 6.69908480e-05  1.37980753e-02]
 [-4.23961093e-04  2.29439125e-03]]",[],0.0,0.0
1787561241.087883,1.8407132192247044,1.9208412972586653,2.458555590803578,"[ 2.85121043e-05 -6.78990402e-07  0.00000000e+00  0.00000000e+00
  0.00000000e+00 -2.95189743e-06 -6.78990402e-07  1.69526156e-05
  0.00000000e+00  0.00000000e+00  0.00000000e+00 -1.28975798e-06
  0.00000000e+00  0.00000000e+00  0.00000000e+00  0.00000000e+00
  0.00000000e+00  0.00000000e+00  0.00000000e+00  0.00000000e+00
  0.00000000e+00  0.00000000e+00  0.00000000e+00  0.00000000e+00
  0.00000000e+00  0.00000000e+00  0.00000000e+00  0.00000000e+00
  0.00000000e+00  0.00000000e+00 -2.95189743e-06 -1.28975798e-06
  0.00000000e+00  0.00000000e+00  0.00000000e+00  4.35065068e-06]","[[ 6.69908480e-05  1.37980753e-02]
 [-4.23961093e-04  2.29439125e-03]]",[],0.0,0.0
1787561241.1321816,1.8407132192247044,1.9208412972586653,2.458555590803578,"[ 2.85121043e-05 -6.78990402e-07  0.00000000e+00  0.00000000e+00
  0.00000000e+00 -2.95189743e-06 -6.78990402e-07  1.69526156e-05
  0.00000000e+00  0.00000000e+00  0.00000000e+00 -1.28975798e-06
  0.00000000e+00  0.00000000e+00  0.00000000e+00  0.00000000e+00
  0.00000000e+00  0.00000000e+00  0.00000000e+00  0.00000000e+00
  0.00000000e+00  0.00000000e+00  0.00000000e+00  0.00000000e+00
  0.00000000e+00  0.00000000e+00  0.00000000e+00  0.00000000e+00
  0.00000000e+00  0.00000000e+00 -2.95189743e-06 -1.28975798e-06
  0.00000000e+00  0.00000000e+00  0.00000000e+00  4.35065068e-06]","[[ 6.69908480e-05  1.37980753e-02]
 [-4.23961093e-04  2.29439125e-03]]",[],0.0,0.0
1787561241.1855373,1.8407132192247044,1.9208412972586653,2.458555590803578,"[ 2.85121043e-05 -6.78990402e-07  0.00000000e+00  0.00000000e+00
  0.00000000e+00 -2.95189743e-06 -6.78990402e-07  1.69526156e-05
  0.00000000e+00  0.00000000e+00  0.00000000e+00 -1.28975798e-06
  0.00000000e+00  0.00000000e+00  0.00000000e+00  0.00000000e+00
  0.00000000e+00  0.00000000e+00  0.00000000e+00  0.00000000e+00
  0.00000000e+00  0.00000000e+00  0.00000000e+00  0.00000000e+00
  0.00000000e+00  0.00000000e+00  0.00000000e+00  0.00000000e+00
  0.00000000e+00  0.00000000e+00 -2.95189743e-06 -1.28975798e-06
  0.00000000e+00  0.00000000e+00  0.00000000e+00  4.35065068e-06]","[[ 6.69908480e-05  1.37980753e-02]
 [-4.23961093e-04  2.29439125e-03]]",[],0.0,0.0
1787561241.2312136,1.8407132192247044,1.9208412972586653,2.458555590803578,"[ 2.85121043e-05 -6.78990402e-07  0.00000000e+00  0.00000000e+00
  0.00000000e+00 -2.95189743e-06 -6.78990402e-07  1.69526156e-05
  0.00000000e+00  0.00000000e+00  0.00000000e+00 -1.28975798e-06
  0.00000000e+00  0.00000000e+00  0.00000000e+00  0.00000000e+00
  0.00000000e+00  0.00000000e+00  0.00000000e+00  0.00000000e+00
  0.00000000e+00  0.00000000e+00  0.00000000e+00  0.00000000e+00
  0.00000000e+00  0.00000000e+00  0.00000000e+00  0.00000000e+00
  0.00000000e+00  0.00000000e+00 -2.95189743e-06 -1.28975798e-06
  0.00000000e+00  0.00000000e+00  0.00000000e+00  4.35065068e-06]","[[ 6.69908480e-05  1.37980753e-02]
 [-4.23961093e-04  2.29439125e-03]]",[],0.0,0.0
1787561241.2816598,1.8407132192247044,1.9208412972586653,2.458555590803578,"[ 2.85121043e-05 -6.78990402e-07  0.00000000e+00  0.00000000e+00
  0.00000000e+00 -2.95189743e-06 -6.78990402e-07  1.69526156e-05
  0.00000000e+00  0.00000000e+00  0.00000000e+00 -1.28975798e-06
  0.00000000e+00  0.00000000e+00  0.00000000e+00  0.00000000e+00
  0.00000000e+00  0.00000000e+00  0.00000000e+00  0.00000000e+00
  0.00000000e+00  0.00000000e+00  0.00000000e+00  0.00000000e+00
  0.00000000e+00  0.00000000e+00  0.00000000e+00  0.00000000e+00
  0.00000000e+00  0.00000000e+00 -2.95189743e-06 -1.28975798e-06
  0.00000000e+00  0.00000000e+00  0.00000000e+00  4.35065068e-06]","[[ 6.69908480e-05  1.37980753e-02]
 [-4.23961093e-04  2.29439125e-03]]",[],0.0,0.0
1787561241.3325384,1.8407132192247044,1.9208412972586653,2.458555590803578,"[ 2.85121043e-05 -6.78990402e-07  0.00000000e+00  0.00000000e+00
  0.00000000e+00 -2.95189743e-06 -6.78990402e-07  1.69526156e-05
  0.00000000e+00  0.00000000e+00  0.00000000e+00 -1.28975798e-06
  0.00000000e+00  0.00000000e+00  0.00000000e+00  0.00000000e+00
  0.00000000e+00  0.00000000e+00  0.00000000e+00  0.00000000e+00
  0.00000000e+00  0.00000000e+00  0.00000000e+00  0.00000000e+00
  0.00000000e+00  0.00000000e+00  0.00000000e+00  0.00000000e+00
  0.00000000e+00  0.00000000e+00 -2.95189743e-06 -1.28975798e-06
  0.00000000e+00  0.00000000e+00  0.00000000e+00  4.35065068e-06]","[[ 6.69908480e-05  1.37980753e-02]
 [-4.23961093e-04  2.29439125e-03]]",[],0.0,0.0
1787561241.3832035,1.8407132192247044,1.9208412972586653,2.458555590803578,"[ 2.85121043e-05 -6.78990402e-07  0.00000000e+00  0.00000000e+00
  0.00000000e+00 -2.95189743e-06 -6.78990402e-07  1.69526156e-05
  0.00000000e+00  0.00000000e+00  0.00000000e+00 -1.28975798e-06
  0.00000000e+00  0.00000000e+00  0.00000000e+00  0.00000000e+00
  0.00000000e+00  0.00000000e+00  0.00000000e+00  0.00000000e+00
  0.00000000e+00  0.00000000e+00  0.00000000e+00  0.00000000e+00
  0.00000000e+00  0.00000000e+00  0.00000000e+00  0.00000000e+00
  0.00000000e+00  0.00000000e+00 -2.95189743e-06 -1.28975798e-06
  0.00000000e+00  0.00000000e+00  0.00000000e+00  4.35065068e-06]","[[ 6.69908480e-05  1.37980753e-02]
 [-4.23961093e-04  2.29439125e-03]]",[],0.0,0.0
1787561241.4311175,1.8407132192247044,1.9208412972586653,2.458555590803578,"[ 2.85121043e-05 -6.78990402e-07  0.00000000e+00  0.00000000e+00
  0.00000000e+00 -2.95189743e-06 -6.78990402e-07  1.69526156e-05
  0.00000000e+00  0.00000000e+00  0.00000000e+00 -1.28975798e-06
  0.00000000e+00  0.00000000e+00  0.00000000e+00  0.00000000e+00
  0.00000000e+00  0.00000000e+00  0.00000000e+00  0.00000000e+00
  0.00000000e+00  0.00000000e+00  0.00000000e+00  0.00000000e+00
  0.00000000e+00  0.00000000e+00  0.00000000e+00  0.00000000e+00
  0.00000000e+00  0.00000000e+00 -2.95189743e-06 -1.28975798e-06
  0.00000000e+00  0.00000000e+00  0.00000000e+00  4.35065068e-06]","[[ 6.69908480e-05  1.37980753e-02]
 [-4.23961093e-04  2.29439125e-03]]",[],0.0,0.0
1787561241.4822013,1.8407132192247044,1.9208412972586653,2.458555590803578,"[ 2.85121043e-05 -6.78990402e-07  0.00000000e+00  0.00000000e+00
  0.00000000e+00 -2.95189743e-06 -6.78990402e-07  1.69526156e-05
  0.00000000e+00  0.00000000e+00  0.00000000e+00 -1.28975798e-06
  0.00000000e+00  0.00000000e+00  0.00000000e+00  0.00000000e+00
  0.00000000e+00  0.00000000e+00  0.00000000e+00  0.00000000e+00
  0.00000000e+00  0.00000000e+00  0.00000000e+00  0.00000000e+00
  0.00000000e+00  0.00000000e+00  0.00000000e+00  0.00000000e+00
  0.00000000e+00  0.00000000e+00 -2.95189743e-06 -1.28975798e-06
  0.00000000e+00  0.00000000e+00  0.00000000e+00  4.35065068e-06]","[[ 6.69908480e-05  1.37980753e-02]
 [-4.23961093e-04  2.29439125e-03]]",[],0.0,0.0
1787561241.531194,1.8407132192247044,1.9208412972586653,2.458555590803578,"[ 2.85121043e-05 -6.78990402e-07  0.00000000e+00  0.00000000e+00
  0.00000000e+00 -2.95189743e-06 -6.78990402e-07  1.69526156e-05
  0.00000000e+00  0.00000000e+00  0.00000000e+00 -1.28975798e-06
  0.00000000e+00  0.00000000e+00  0.00000000e+00  0.00000000e+00
  0.00000000e+00  0.00000000e+00  0.00000000e+00  0.00000000e+00
  0.00000000e+00  0.00000000e+00  0.00000000e+00  0.00000000e+00
  0.00000000e+00  0.00000000e+00  0.00000000e+00  0.00000000e+00
  0.00000000e+00  0.00000000e+00 -2.95189743e-06 -1.28975798e-06
  0.00000000e+00  0.00000000e+00  0.00000000e+00  4.35065068e-06]","[[ 6.69908480e-05  1.37980753e-02]
 [-4.23961093e-04  2.29439125e-03]]",[],0.0,0.0
1787561241.5818698,1.8407132192247044,1.9208412972586653,2.458555590803578,"[ 2.85121043e-05 -6.78990402e-07  0.00000000e+00  0.00000000e+00
  0.00000000e+00 -2.95189743e-06 -6.78990402e-07  1.69526156e-05
  0.00000000e+00  0.00000000e+00  0.00000000e+00 -1.28975798e-06
  0.00000000e+00  0.00000000e+00  0.00000000e+00  0.00000000e+00
  0.00000000e+00  0.00000000e+00  0.00000000e+00  0.00000000e+00
  0.00000000e+00  0.00000000e+00  0.00000000e+00  0.00000000e+00
  0.00000000e+00  0.00000000e+00  0.00000000e+00  0.00000000e+00
  0.00000000e+00  0.00000000e+00 -2.95189743e-06 -1.28975798e-06
  0.00000000e+00  0.00000000e+00  0.00000000e+00  4.35065068e-06]","[[ 6.69908480e-05  1.37980753e-02]
 [-4.23961093e-04  2.29439125e-03]]",[],0.0,0.0
1787561241.632157,1.8407132192247044,1.9208412972586653,2.458555590803578,"[ 2.85121043e-05 -6.78990402e-07  0.00000000e+00  0.00000000e+00
  0.00000000e+00 -2.95189743e-06 -6.78990402e-07  1.69526156e-05
  0.00000000e+00  0.00000000e+00  0.00000000e+00 -1.28975798e-06
  0.00000000e+00  0.00000000e+00  0.00000000e+00  0.00000000e+00
  0.00000000e+00  0.00000000e+00  0.00000000e+00  0.00000000e+00
  0.00000000e+00  0.00000000e+00  0.00000000e+00  0.00000000e+00
  0.00000000e+00  0.00000000e+00  0.00000000e+00  0.00000000e+00
  0.00000000e+00  0.00000000e+00 -2.95189743e-06 -1.28975798e-06
  0.00000000e+00  0.00000000e+00  0.00000000e+00  4.35065068e-06]","[[ 6.69908480e-05  1.37980753e-02]
 [-4.23961093e-04  2.29439125e-03]]",[],0.0,0.0
1787561241.681514,1.8407132192247044,1.9208412972586653,2.458555590803578,"[ 2.85121043e-05 -6.78990402e-07  0.00000000e+00  0.00000000e+00
  0.00000000e+00 -2.95189743e-06 -6.78990402e-07  1.69526156e-05
  0.00000000e+00  0.00000000e+00  0.00000000e+00 -1.28975798e-06
  0.00000000e+00  0.00000000e+00  0.00000000e+00  0.00000000e+00
  0.00000000e+00  0.00000000e+00  0.00000000e+00  0.00000000e+00
  0.00000000e+00  0.00000000e+00  0.00000000e+00  0.00000000e+00
  0.00000000e+00  0.00000000e+00  0.00000000e+00  0.00000000e+00
  0.00000000e+00  0.00000000e+00 -2.95189743e-06 -1.28975798e-06
  0.00000000e+00  0.00000000e+00  0.00000000e+00  4.35065068e-06]","[[ 6.69908480e-05  1.37980753e-02]
 [-4.23961093e-04  2.29439125e-03]]",[],0.0,0.0
1787561241.7331502,1.8407132192247044,1.9208412972586653,2.458555590803578,"[ 2.85121043e-05 -6.78990402e-07  0.00000000e+00  0.00000000e+00
  0.00000000e+00 -2.95189743e-06 -6.78990402e-07  1.69526156e-05
  0.00000000e+00  0.00000000e+00  0.00000000e+00 -1.28975798e-06
  0.00000000e+00  0.00000000e+00  0.00000000e+00  0.00000000e+00
  0.00000000e+00  0.00000000e+00  0.00000000e+00  0.00000000e+00
  0.00000000e+00  0.00000000e+00  0.00000000e+00  0.00000000e+00
  0.00000000e+00  0.00000000e+00  0.00000000e+00  0.00000000e+00
  0.00000000e+00  0.00000000e+00 -2.95189743e-06 -1.28975798e-06
  0.00000000e+00  0.00000000e+00  0.00000000e+00  4.35065068e-06]","[[ 6.69908480e-05  1.37980753e-02]
 [-4.23961093e-04  2.29439125e-03]]",[],0.0,0.0
1787561241.7827253,1.8407132192247044,1.9208412972586653,2.458555590803578,"[ 2.85121043e-05 -6.78990402e-07  0.00000000e+00  0.00000000e+00
  0.00000000e+00 -2.95189743e-06 -6.78990402e-07  1.69526156e-05
  0.00000000e+00  0.00000000e+00  0.00000000e+00 -1.28975798e-06
  0.00000000e+00  0.00000000e+00  0.00000000e+00  0.00000000e+00
  0.00000000e+00  0.00000000e+00  0.00000000e+00  0.00000000e+00
  0.00000000e+00  0.00000000e+00  0.00000000e+00  0.00000000e+00
  0.00000000e+00  0.00000000e+00  0.00000000e+00  0.00000000e+00
  0.00000000e+00  0.00000000e+00 -2.95189743e-06 -1.28975798e-06
  0.00000000e+00  0.00000000e+00  0.00000000e+00  4.35065068e-06]","[[ 6.69908480e-05  1.37980753e-02]
 [-4.23961093e-04  2.29439125e-03]]",[],0.0,0.0
1787561241.833553,1.8430399032597766,1.9151758947191988,2.4960452351005697,"[ 2.19941053e-05 -6.78102852e-07  0.00000000e+00  0.00000000e+00
  0.00000000e+00 -2.62040185e-06 -6.78102852e-07  1.25571242e-05
  0.00000000e+00  0.00000000e+00  0.00000000e+00 -9.04348396e-07
  0.00000000e+00  0.00000000e+00  0.00000000e+00  0.00000000e+00
  0.00000000e+00  0.00000000e+00  0.00000000e+00  0.00000000e+00
  0.00000000e+00  0.00000000e+00  0.00000000e+00  0.00000000e+00
  0.00000000e+00  0.00000000e+00  0.00000000e+00  0.00000000e+00
  0.00000000e+00  0.00000000e+00 -2.62040185e-06 -9.04348396e-07
  0.00000000e+00  0.00000000e+00  0.00000000e+00  4.17703774e-06]","[[ 5.67186706e-05  1.11704220e-02]
 [-3.14331608e-04  1.56850578e-03]]",[],0.0,0.0
1787561241.881332,1.8430399032597766,1.9151758947191988,2.4960452351005697,"[ 2.19941053e-05 -6.78102852e-07  0.00000000e+00  0.00000000e+00
  0.00000000e+00 -2.62040185e-06 -6.78102852e-07  1.25571242e-05
  0.00000000e+00  0.00000000e+00  0.00000000e+00 -9.04348396e-07
  0.00000000e+00  0.00000000e+00  0.00000000e+00  0.00000000e+00
  0.00000000e+00  0.00000000e+00  0.00000000e+00  0.00000000e+00
  0.00000000e+00  0.00000000e+00  0.00000000e+00  0.00000000e+00
  0.00000000e+00  0.00000000e+00  0.00000000e+00  0.00000000e+00
  0.00000000e+00  0.00000000e+00 -2.62040185e-06 -9.04348396e-07
  0.00000000e+00  0.00000000e+00  0.00000000e+00  4.17703774e-06]","[[ 5.67186706e-05  1.11704220e-02]
 [-3.14331608e-04  1.56850578e-03]]",[],0.0,0.0
1787561241.932869,1.8430399032597766,1.9151758947191988,2.4960452351005697,"[ 2.19941053e-05 -6.78102852e-07  0.00000000e+00  0.00000000e+00
  0.00000000e+00 -2.62040185e-06 -6.78102852e-07  1.25571242e-05
  0.00000000e+00  0.00000000e+00  0.00000000e+00 -9.04348396e-07
  0.00000000e+00  0.00000000e+00  0.00000000e+00  0.00000000e+00
  0.00000000e+00  0.00000000e+00  0.00000000e+00  0.00000000e+00
  0.00000000e+00  0.00000000e+00  0.00000000e+00  0.00000000e+00
  0.00000000e+00  0.00000000e+00  0.00000000e+00  0.00000000e+00
  0.00000000e+00  0.00000000e+00 -2.62040185e-06 -9.04348396e-07
  0.00000000e+00  0.00000000e+00  0.00000000e+00  4.17703774e-06]","[[ 5.67186706e-05  1.11704220e-02]
 [-3.14331608e-04  1.56850578e-03]]",[],0.0,0.0
1787561241.9842875,1.8430399032597766,1.9151758947191988,2.4960452351005697,"[ 2.19941053e-05 -6.78102852e-07  0.00000000e+00  0.00000000e+00
  0.00000000e+00 -2.62040185e-06 -6.78102852e-07  1.25571242e-05
  0.00000000e+00  0.00000000e+00  0.00000000e+00 -9.04348396e-07
  0.00000000e+00  0.00000000e+00  0.00000000e+00  0.00000000e+00
  0.00000000e+00  0.00000000e+00  0.00000000e+00  0.00000000e+00
  0.00000000e+00  0.00000000e+00  0.00000000e+00  0.00000000e+00
  0.00000000e+00  0.00000000e+00  0.00000000e+00  0.00000000e+00
  0.00000000e+00  0.00000000e+00 -2.62040185e-06 -9.04348396e-07
  0.00000000e+00  0.00000000e+00  0.00000000e+00  4.17703774e-06]","[[ 5.67186706e-05  1.11704220e-02]
 [-3.14331608e-04  1.56850578e-03]]",[],0.0,0.0
1787561242.0353184,1.8430399032597766,1.9151758947191988,2.4960452351005697,"[ 2.19941053e-05 -6.78102852e-07  0.00000000e+00  0.00000000e+00
  0.00000000e+00 -2.62040185e-06 -6.78102852e-07  1.25571242e-05
  0.00000000e+00  0.00000000e+00  0.00000000e+00 -9.04348396e-07
  0.00000000e+00  0.00000000e+00  0.00000000e+00  0.00000000e+00
  0.00000000e+00  0.00000000e+00  0.00000000e+00  0.00000000e+00
  0.00000000e+00  0.00000000e+00  0.00000000e+00  0.00000000e+00
  0.00000000e+00  0.00000000e+00  0.00000000e+00  0.00000000e+00
  0.00000000e+00  0.00000000e+00 -2.62040185e-06 -9.04348396e-07
  0.00000000e+00  0.00000000e+00  0.00000000e+00  4.17703774e-06]","[[ 5.67186706e-05  1.11704220e-02]
 [-3.14331608e-04  1.56850578e-03]]",[],0.0,0.0
1787561242.0814965,1.8430399032597766,1.9151758947191988,2.4960452351005697,"[ 2.19941053e-05 -6.78102852e-07  0.00000000e+00  0.00000000e+00
  0.00000000e+00 -2.62040185e-06 -6.78102852e-07  1.25571242e-05
  0.00000000e+00  0.00000000e+00  0.00000000e+00 -9.04348396e-07
  0.00000000e+00  0.00000000e+00  0.00000000e+00  0.00000000e+00
  0.00000000e+00  0.00000000e+00  0.00000000e+00  0.00000000e+00
  0.00000000e+00  0.00000000e+00  0.00000000e+00  0.00000000e+00
  0.00000000e+00  0.00000000e+00  0.00000000e+00  0.00000000e+00
  0.00000000e+00  0.00000000e+00 -2.62040185e-06 -9.04348396e-07
  0.00000000e+00  0.00000000e+00  0.00000000e+00  4.17703774e-06]","[[ 5.67186706e-05  1.11704220e-02]
 [-3.14331608e-04  1.56850578e-03]]",[],0.0,0.0
1787561242.132344,1.8430399032597766,1.9151758947191988,2.4960452351005697,"[ 2.19941053e-05 -6.78102852e-07  0.00000000e+00  0.00000000e+00
  0.00000000e+00 -2.62040185e-06 -6.78102852e-07  1.25571242e-05
  0.00000000e+00  0.00000000e+00  0.00000000e+00 -9.04348396e-07
  0.00000000e+00  0.00000000e+00  0.00000000e+00  0.00000000e+00
  0.00000000e+00  0.00000000e+00  0.00000000e+00  0.00000000e+00
  0.00000000e+00  0.00000000e+00  0.00000000e+00  0.00000000e+00
  0.00000000e+00  0.00000000e+00  0.00000000e+00  0.00000000e+00
  0.00000000e+00  0.00000000e+00 -2.62040185e-06 -9.04348396e-07
  0.00000000e+00  0.00000000e+00  0.00000000e+00  4.17703774e-06]","[[ 5.67186706e-05  1.11704220e-02]
 [-3.14331608e-04  1.56850578e-03]]",[],0.0,0.0
1787561242.1814036,1.8430399032597766,1.9151758947191988,2.4960452351005697,"[ 2.19941053e-05 -6.78102852e-07  0.00000000e+00  0.00000000e+00
  0.00000000e+00 -2.62040185e-06 -6.78102852e-07  1.25571242e-05
  0.00000000e+00  0.00000000e+00  0.00000000e+00 -9.04348396e-07
  0.00000000e+00  0.00000000e+00  0.00000000e+00  0.00000000e+00
  0.00000000e+00  0.00000000e+00  0.00000000e+00  0.00000000e+00
  0.00000000e+00  0.00000000e+00  0.00000000e+00  0.00000000e+00
  0.00000000e+00  0.00000000e+00  0.00000000e+00  0.00000000e+00
  0.00000000e+00  0.00000000e+00 -2.62040185e-06 -9.04348396e-07
  0.00000000e+00  0.00000000e+00  0.00000000e+00  4.17703774e-06]","[[ 5.67186706e-05  1.11704220e-02]
 [-3.14331608e-04  1.56850578e-03]]",[],0.0,0.0
1787561242.2367682,1.8430399032597766,1.9151758947191988,2.4960452351005697,"[ 2.19941053e-05 -6.78102852e-07  0.00000000e+00  0.00000000e+00
  0.00000000e+00 -2.62040185e-06 -6.78102852e-07  1.25571242e-05
  0.00000000e+00  0.00000000e+00  0.00000000e+00 -9.04348396e-07
  0.00000000e+00  0.00000000e+00  0.00000000e+00  0.00000000e+00
  0.00000000e+00  0.00000000e+00  0.00000000e+00  0.00000000e+00
  0.00000000e+00  0.00000000e+00  0.00000000e+00  0.00000000e+00
  0.00000000e+00  0.00000000e+00  0.00000000e+00  0.00000000e+00
  0.00000000e+00  0.00000000e+00 -2.62040185e-06 -9.04348396e-07
  0.00000000e+00  0.00000000e+00  0.00000000e+00  4.17703774e-06]","[[ 5.67186706e-05  1.11704220e-02]
 [-3.14331608e-04  1.56850578e-03]]",[],0.0,0.0
1787561242.2814236,1.8430399032597766,1.9151758947191988,2.4960452351005697,"[ 2.19941053e-05 -6.78102852e-07  0.00000000e+00  0.00000000e+00
  0.00000000e+00 -2.62040185e-06 -6.78102852e-07  1.25571242e-05
  0.00000000e+00  0.00000000e+00  0.00000000e+00 -9.04348396e-07
  0.00000000e+00  0.00000000e+00  0.00000000e+00  0.00000000e+00
  0.00000000e+00  0.00000000e+00  0.00000000e+00  0.00000000e+00
  0.00000000e+00  0.00000000e+00  0.00000000e+00  0.00000000e+00
  0.00000000e+00  0.00000000e+00  0.00000000e+00  0.00000000e+00
  0.00000000e+00  0.00000000e+00 -2.62040185e-06 -9.04348396e-07
  0.00000000e+00  0.00000000e+00  0.00000000e+00  4.17703774e-06]","[[ 5.67186706e-05  1.11704220e-02]
 [-3.14331608e-04  1.56850578e-03]]",[],0.0,0.0
1787561242.3317294,1.8430399032597766,1.9151758947191988,2.4960452351005697,"[ 2.19941053e-05 -6.78102852e-07  0.00000000e+00  0.00000000e+00
  0.00000000e+00 -2.62040185e-06 -6.78102852e-07  1.25571242e-05
  0.00000000e+00  0.00000000e+00  0.00000000e+00 -9.04348396e-07
  0.00000000e+00  0.00000000e+00  0.00000000e+00  0.00000000e+00
  0.00000000e+00  0.00000000e+00  0.00000000e+00  0.00000000e+00
  0.00000000e+00  0.00000000e+00  0.00000000e+00  0.00000000e+00
  0.00000000e+00  0.00000000e+00  0.00000000e+00  0.00000000e+00
  0.00000000e+00  0.00000000e+00 -2.62040185e-06 -9.04348396e-07
  0.00000000e+00  0.00000000e+00  0.00000000e+00  4.17703774e-06]","[[ 5.67186706e-05  1.11704220e-02]
 [-3.14331608e-04  1.56850578e-03]]",[],0.0,0.0
1787561242.3834474,1.8430399032597766,1.9151758947191988,2.4960452351005697,"[ 2.19941053e-05 -6.78102852e-07  0.00000000e+00  0.00000000e+00
  0.00000000e+00 -2.62040185e-06 -6.78102852e-07  1.25571242e-05
  0.00000000e+00  0.00000000e+00  0.00000000e+00 -9.04348396e-07
  0.00000000e+00  0.00000000e+00  0.00000000e+00  0.00000000e+00
  0.00000000e+00  0.00000000e+00  0.00000000e+00  0.00000000e+00
  0.00000000e+00  0.00000000e+00  0.00000000e+00  0.00000000e+00
  0.00000000e+00  0.00000000e+00  0.00000000e+00  0.00000000e+00
  0.00000000e+00  0.00000000e+00 -2.62040185e-06 -9.04348396e-07
  0.00000000e+00  0.00000000e+00  0.00000000e+00  4.17703774e-06]","[[ 5.67186706e-05  1.11704220e-02]
 [-3.14331608e-04  1.56850578e-03]]",[],0.0,0.0
1787561242.43144,1.8430399032597766,1.9151758947191988,2.4960452351005697,"[ 2.19941053e-05 -6.78102852e-07  0.00000000e+00  0.00000000e+00
  0.00000000e+00 -2.62040185e-06 -6.78102852e-07  1.25571242e-05
  0.00000000e+00  0.00000000e+00  0.00000000e+00 -9.04348396e-07
  0.00000000e+00  0.00000000e+00  0.00000000e+00  0.00000000e+00
  0.00000000e+00  0.00000000e+00  0.00000000e+00  0.00000000e+00
  0.00000000e+00  0.00000000e+00  0.00000000e+00  0.00000000e+00
  0.00000000e+00  0.00000000e+00  0.00000000e+00  0.00000000e+00
  0.00000000e+00  0.00000000e+00 -2.62040185e-06 -9.04348396e-07
  0.00000000e+00  0.00000000e+00  0.00000000e+00  4.17703774e-06]","[[ 5.67186706e-05  1.11704220e-02]
 [-3.14331608e-04  1.56850578e-03]]",[],0.0,0.0
1787561242.4815044,1.8430399032597766,1.9151758947191988,2.4960452351005697,"[ 2.19941053e-05 -6.78102852e-07  0.00000000e+00  0.00000000e+00
  0.00000000e+00 -2.62040185e-06 -6.78102852e-07  1.25571242e-05
  0.00000000e+00  0.00000000e+00  0.00000000e+00 -9.04348396e-07
  0.00000000e+00  0.00000000e+00  0.00000000e+00  0.00000000e+00
  0.00000000e+00  0.00000000e+00  0.00000000e+00  0.00000000e+00
  0.00000000e+00  0.00000000e+00  0.00000000e+00  0.00000000e+00
  0.00000000e+00  0.00000000e+00  0.00000000e+00  0.00000000e+00
  0.00000000e+00  0.00000000e+00 -2.62040185e-06 -9.04348396e-07
  0.00000000e+00  0.00000000e+00  0.00000000e+00  4.17703774e-06]","[[ 5.67186706e-05  1.11704220e-02]
 [-3.14331608e-04  1.56850578e-03]]",[],0.0,0.0
1787561242.5314267,1.8487383560043853,1.9069279129926082,2.5155084961695104,"[ 1.81620396e-05 -5.33948912e-07  0.00000000e+00  0.00000000e+00
  0.00000000e+00 -1.99690942e-06 -5.33948912e-07  1.00180790e-05
  0.00000000e+00  0.00000000e+00  0.00000000e+00 -7.39586556e-07
  0.00000000e+00  0.00000000e+00  0.00000000e+00  0.00000000e+00
  0.00000000e+00  0.00000000e+00  0.00000000e+00  0.00000000e+00
  0.00000000e+00  0.00000000e+00  0.00000000e+00  0.00000000e+00
  0.00000000e+00  0.00000000e+00  0.00000000e+00  0.00000000e+00
  0.00000000e+00  0.00000000e+00 -1.99690942e-06 -7.39586556e-07
  0.00000000e+00  0.00000000e+00  0.00000000e+00  4.01063787e-06]","[[ 4.63508655e-05  8.94225561e-03]
 [-2.50759391e-04  1.28454214e-03]]",[],0.0,0.0
1787561242.5815473,1.8487383560043853,1.9069279129926082,2.5155084961695104,"[ 1.81620396e-05 -5.33948912e-07  0.00000000e+00  0.00000000e+00
  0.00000000e+00 -1.99690942e-06 -5.33948912e-07  1.00180790e-05
  0.00000000e+00  0.00000000e+00  0.00000000e+00 -7.39586556e-07
  0.00000000e+00  0.00000000e+00  0.00000000e+00  0.00000000e+00
  0.00000000e+00  0.00000000e+00  0.00000000e+00  0.00000000e+00
  0.00000000e+00  0.00000000e+00  0.00000000e+00  0.00000000e+00
  0.00000000e+00  0.00000000e+00  0.00000000e+00  0.00000000e+00
  0.00000000e+00  0.00000000e+00 -1.99690942e-06 -7.39586556e-07
  0.00000000e+00  0.00000000e+00  0.00000000e+00  4.01063787e-06]","[[ 4.63508655e-05  8.94225561e-03]
 [-2.50759391e-04  1.28454214e-03]]",[],0.0,0.0
1787561242.6347718,1.8487383560043853,1.9069279129926082,2.5155084961695104,"[ 1.81620396e-05 -5.33948912e-07  0.00000000e+00  0.00000000e+00
  0.00000000e+00 -1.99690942e-06 -5.33948912e-07  1.00180790e-05
  0.00000000e+00  0.00000000e+00  0.00000000e+00 -7.39586556e-07
  0.00000000e+00  0.00000000e+00  0.00000000e+00  0.00000000e+00
  0.00000000e+00  0.00000000e+00  0.00000000e+00  0.00000000e+00
  0.00000000e+00  0.00000000e+00  0.00000000e+00  0.00000000e+00
  0.00000000e+00  0.00000000e+00  0.00000000e+00  0.00000000e+00
  0.00000000e+00  0.00000000e+00 -1.99690942e-06 -7.39586556e-07
  0.00000000e+00  0.00000000e+00  0.00000000e+00  4.01063787e-06]","[[ 4.63508655e-05  8.94225561e-03]
 [-2.50759391e-04  1.28454214e-03]]",[],0.0,0.0
1787561242.6852214,1.8487383560043853,1.9069279129926082,2.5155084961695104,"[ 1.81620396e-05 -5.33948912e-07  0.00000000e+00  0.00000000e+00
  0.00000000e+00 -1.99690942e-06 -5.33948912e-07  1.00180790e-05
  0.00000000e+00  0.00000000e+00  0.00000000e+00 -7.39586556e-07
  0.00000000e+00  0.00000000e+00  0.00000000e+00  0.00000000e+00
  0.00000000e+00  0.00000000e+00  0.00000000e+00  0.00000000e+00
  0.00000000e+00  0.00000000e+00  0.00000000e+00  0.00000000e+00
  0.00000000e+00  0.00000000e+00  0.00000000e+00  0.00000000e+00
  0.00000000e+00  0.00000000e+00 -1.99690942e-06 -7.39586556e-07
  0.00000000e+00  0.00000000e+00  0.00000000e+00  4.01063787e-06]","[[ 4.63508655e-05  8.94225561e-03]
 [-2.50759391e-04  1.28454214e-03]]",[],0.0,0.0
1787561242.7322364,1.8487383560043853,1.9069279129926082,2.5155084961695104,"[ 1.81620396e-05 -5.33948912e-07  0.00000000e+00  0.00000000e+00
  0.00000000e+00 -1.99690942e-06 -5.33948912e-07  1.00180790e-05
  0.00000000e+00  0.00000000e+00  0.00000000e+00 -7.39586556e-07
  0.00000000e+00  0.00000000e+00  0.00000000e+00  0.00000000e+00
  0.00000000e+00  0.00000000e+00  0.00000000e+00  0.00000000e+00
  0.00000000e+00  0.00000000e+00  0.00000000e+00  0.00000000e+00
  0.00000000e+00  0.00000000e+00  0.00000000e+00  0.00000000e+00
  0.00000000e+00  0.00000000e+00 -1.99690942e-06 -7.39586556e-07
  0.00000000e+00  0.00000000e+00  0.00000000e+00  4.01063787e-06]","[[ 4.63508655e-05  8.94225561e-03]
 [-2.50759391e-04  1.28454214e-03]]",[],0.0,0.0
1787561242.7816565,1.8487383560043853,1.9069279129926082,2.5155084961695104,"[ 1.81620396e-05 -5.33948912e-07  0.00000000e+00  0.00000000e+00
  0.00000000e+00 -1.99690942e-06 -5.33948912e-07  1.00180790e-05
  0.00000000e+00  0.00000000e+00  0.00000000e+00 -7.39586556e-07
  0.00000000e+00  0.00000000e+00  0.00000000e+00  0.00000000e+00
  0.00000000e+00  0.00000000e+00  0.00000000e+00  0.00000000e+00
  0.00000000e+00  0.00000000e+00  0.00000000e+00  0.00000000e+00
  0.00000000e+00  0.00000000e+00  0.00000000e+00  0.00000000e+00
  0.00000000e+00  0.00000000e+00 -1.99690942e-06 -7.39586556e-07
  0.00000000e+00  0.00000000e+00  0.00000000e+00  4.01063787e-06]","[[ 4.63508655e-05  8.94225561e-03]
 [-2.50759391e-04  1.28454214e-03]]",[],0.0,0.0
1787561242.8457782,1.8487383560043853,1.9069279129926082,2.5155084961695104,"[ 1.81620396e-05 -5.33948912e-07  0.00000000e+00  0.00000000e+00
  0.00000000e+00 -1.99690942e-06 -5.33948912e-07  1.00180790e-05
  0.00000000e+00  0.00000000e+00  0.00000000e+00 -7.39586556e-07
  0.00000000e+00  0.00000000e+00  0.00000000e+00  0.00000000e+00
  0.00000000e+00  0.00000000e+00  0.00000000e+00  0.00000000e+00
  0.00000000e+00  0.00000000e+00  0.00000000e+00  0.00000000e+00
  0.00000000e+00  0.00000000e+00  0.00000000e+00  0.00000000e+00
  0.00000000e+00  0.00000000e+00 -1.99690942e-06 -7.39586556e-07
  0.00000000e+00  0.00000000e+00  0.00000000e+00  4.01063787e-06]","[[ 4.63508655e-05  8.94225561e-03]
 [-2.50759391e-04  1.28454214e-03]]",[],0.0,0.0
1787561242.8827941,1.8487383560043853,1.9069279129926082,2.5155084961695104,"[ 1.81620396e-05 -5.33948912e-07  0.00000000e+00  0.00000000e+00
  0.00000000e+00 -1.99690942e-06 -5.33948912e-07  1.00180790e-05
  0.00000000e+00  0.00000000e+00  0.00000000e+00 -7.39586556e-07
  0.00000000e+00  0.00000000e+00  0.00000000e+00  0.00000000e+00
  0.00000000e+00  0.00000000e+00  0.00000000e+00  0.00000000e+00
  0.00000000e+00  0.00000000e+00  0.00000000e+00  0.00000000e+00
  0.00000000e+00  0.00000000e+00  0.00000000e+00  0.00000000e+00
  0.00000000e+00  0.00000000e+00 -1.99690942e-06 -7.39586556e-07
  0.00000000e+00  0.00000000e+00  0.00000000e+00  4.01063787e-06]","[[ 4.63508655e-05  8.94225561e-03]
 [-2.50759391e-04  1.28454214e-03]]",[],0.0,0.0
1787561242.932182,1.8487383560043853,1.9069279129926082,2.5155084961695104,"[ 1.81620396e-05 -5.33948912e-07  0.00000000e+00  0.00000000e+00
  0.00000000e+00 -1.99690942e-06 -5.33948912e-07  1.00180790e-05
  0.00000000e+00  0.00000000e+00  0.00000000e+00 -7.39586556e-07
  0.00000000e+00  0.00000000e+00  0.00000000e+00  0.00000000e+00
  0.00000000e+00  0.00000000e+00  0.00000000e+00  0.00000000e+00
  0.00000000e+00  0.00000000e+00  0.00000000e+00  0.00000000e+00
  0.00000000e+00  0.00000000e+00  0.00000000e+00  0.00000000e+00
  0.00000000e+00  0.00000000e+00 -1.99690942e-06 -7.39586556e-07
  0.00000000e+00  0.00000000e+00  0.00000000e+00  4.01063787e-06]","[[ 4.63508655e-05  8.94225561e-03]
 [-2.50759391e-04  1.28454214e-03]]",[],0.0,0.0
1787561242.9813762,1.8487383560043853,1.9069279129926082,2.5155084961695104,"[ 1.81620396e-05 -5.33948912e-07  0.00000000e+00  0.00000000e+00
  0.00000000e+00 -1.99690942e-06 -5.33948912e-07  1.00180790e-05
  0.00000000e+00  0.00000000e+00  0.00000000e+00 -7.39586556e-07
  0.00000000e+00  0.00000000e+00  0.00000000e+00  0.00000000e+00
  0.00000000e+00  0.00000000e+00  0.00000000e+00  0.00000000e+00
  0.00000000e+00  0.00000000e+00  0.00000000e+00  0.00000000e+00
  0.00000000e+00  0.00000000e+00  0.00000000e+00  0.00000000e+00
  0.00000000e+00  0.00000000e+00 -1.99690942e-06 -7.39586556e-07
  0.00000000e+00  0.00000000e+00  0.00000000e+00  4.01063787e-06]","[[ 4.63508655e-05  8.94225561e-03]
 [-2.50759391e-04  1.28454214e-03]]",[],0.0,0.0
1787561243.0315576,1.8487383560043853,1.9069279129926082,2.5155084961695104,"[ 1.81620396e-05 -5.33948912e-07  0.00000000e+00  0.00000000e+00
  0.00000000e+00 -1.99690942e-06 -5.33948912e-07  1.00180790e-05
  0.00000000e+00  0.00000000e+00  0.00000000e+00 -7.39586556e-07
  0.00000000e+00  0.00000000e+00  0.00000000e+00  0.00000000e+00
  0.00000000e+00  0.00000000e+00  0.00000000e+00  0.00000000e+00
  0.00000000e+00  0.00000000e+00  0.00000000e+00  0.00000000e+00
  0.00000000e+00  0.00000000e+00  0.00000000e+00  0.00000000e+00
  0.00000000e+00  0.00000000e+00 -1.99690942e-06 -7.39586556e-07
  0.00000000e+00  0.00000000e+00  0.00000000e+00  4.01063787e-06]","[[ 4.63508655e-05  8.94225561e-03]
 [-2.50759391e-04  1.28454214e-03]]",[],0.0,0.0
1787561243.0816567,1.8487383560043853,1.9069279129926082,2.5155084961695104,"[ 1.81620396e-05 -5.33948912e-07  0.00000000e+00  0.00000000e+00
  0.00000000e+00 -1.99690942e-06 -5.33948912e-07  1.00180790e-05
  0.00000000e+00  0.00000000e+00  0.00000000e+00 -7.39586556e-07
  0.00000000e+00  0.00000000e+00  0.00000000e+00  0.00000000e+00
  0.00000000e+00  0.00000000e+00  0.00000000e+00  0.00000000e+00
  0.00000000e+00  0.00000000e+00  0.00000000e+00  0.00000000e+00
  0.00000000e+00  0.00000000e+00  0.00000000e+00  0.00000000e+00
  0.00000000e+00  0.00000000e+00 -1.99690942e-06 -7.39586556e-07
  0.00000000e+00  0.00000000e+00  0.00000000e+00  4.01063787e-06]","[[ 4.63508655e-05  8.94225561e-03]
 [-2.50759391e-04  1.28454214e-03]]",[],0.0,0.0
1787561243.1318915,1.8487383560043853,1.9069279129926082,2.5155084961695104,"[ 1.81620396e-05 -5.33948912e-07  0.00000000e+00  0.00000000e+00
  0.00000000e+00 -1.99690942e-06 -5.33948912e-07  1.00180790e-05
  0.00000000e+00  0.00000000e+00  0.00000000e+00 -7.39586556e-07
  0.00000000e+00  0.00000000e+00  0.00000000e+00  0.00000000e+00
  0.00000000e+00  0.00000000e+00  0.00000000e+00  0.00000000e+00
  0.00000000e+00  0.00000000e+00  0.00000000e+00  0.00000000e+00
  0.00000000e+00  0.00000000e+00  0.00000000e+00  0.00000000e+00
  0.00000000e+00  0.00000000e+00 -1.99690942e-06 -7.39586556e-07
  0.00000000e+00  0.00000000e+00  0.00000000e+00  4.01063787e-06]","[[ 4.63508655e-05  8.94225561e-03]
 [-2.50759391e-04  1.28454214e-03]]",[],0.0,0.0
1787561243.1817074,1.8487383560043853,1.9069279129926082,2.5155084961695104,"[ 1.81620396e-05 -5.33948912e-07  0.00000000e+00  0.00000000e+00
  0.00000000e+00 -1.99690942e-06 -5.33948912e-07  1.00180790e-05
  0.00000000e+00  0.00000000e+00  0.00000000e+00 -7.39586556e-07
  0.00000000e+00  0.00000000e+00  0.00000000e+00  0.00000000e+00
  0.00000000e+00  0.00000000e+00  0.00000000e+00  0.00000000e+00
  0.00000000e+00  0.00000000e+00  0.00000000e+00  0.00000000e+00
  0.00000000e+00  0.00000000e+00  0.00000000e+00  0.00000000e+00
  0.00000000e+00  0.00000000e+00 -1.99690942e-06 -7.39586556e-07
  0.00000000e+00  0.00000000e+00  0.00000000e+00  4.01063787e-06]","[[ 4.63508655e-05  8.94225561e-03]
 [-2.50759391e-04  1.28454214e-03]]",[],0.0,0.0
1787561243.231019,1.8487383560043853,1.9069279129926082,2.5155084961695104,"[ 1.81620396e-05 -5.33948912e-07  0.00000000e+00  0.00000000e+00
  0.00000000e+00 -1.99690942e-06 -5.33948912e-07  1.00180790e-05
  0.00000000e+00  0.00000000e+00  0.00000000e+00 -7.39586556e-07
  0.00000000e+00  0.00000000e+00  0.00000000e+00  0.00000000e+00
  0.00000000e+00  0.00000000e+00  0.00000000e+00  0.00000000e+00
  0.00000000e+00  0.00000000e+00  0.00000000e+00  0.00000000e+00
  0.00000000e+00  0.00000000e+00  0.00000000e+00  0.00000000e+00
  0.00000000e+00  0.00000000e+00 -1.99690942e-06 -7.39586556e-07
  0.00000000e+00  0.00000000e+00  0.00000000e+00  4.01063787e-06]","[[ 4.63508655e-05  8.94225561e-03]
 [-2.50759391e-04  1.28454214e-03]]",[],0.0,0.0
1787561243.2825537,1.8487383560043853,1.9069279129926082,2.5155084961695104,"[ 1.81620396e-05 -5.33948912e-07  0.00000000e+00  0.00000000e+00
  0.00000000e+00 -1.99690942e-06 -5.33948912e-07  1.00180790e-05
  0.00000000e+00  0.00000000e+00  0.00000000e+00 -7.39586556e-07
  0.00000000e+00  0.00000000e+00  0.00000000e+00  0.00000000e+00
  0.00000000e+00  0.00000000e+00  0.00000000e+00  0.00000000e+00
  0.00000000e+00  0.00000000e+00  0.00000000e+00  0.00000000e+00
  0.00000000e+00  0.00000000e+00  0.00000000e+00  0.00000000e+00
  0.00000000e+00  0.00000000e+00 -1.99690942e-06 -7.39586556e-07
  0.00000000e+00  0.00000000e+00  0.00000000e+00  4.01063787e-06]","[[ 4.63508655e-05  8.94225561e-03]
 [-2.50759391e-04  1.28454214e-03]]",[],0.0,0.0
1787561243.3319955,1.8487383560043853,1.9069279129926082,2.5155084961695104,"[ 1.81620396e-05 -5.33948912e-07  0.00000000e+00  0.00000000e+00
  0.00000000e+00 -1.99690942e-06 -5.33948912e-07  1.00180790e-05
  0.00000000e+00  0.00000000e+00  0.00000000e+00 -7.39586556e-07
  0.00000000e+00  0.00000000e+00  0.00000000e+00  0.00000000e+00
  0.00000000e+00  0.00000000e+00  0.00000000e+00  0.00000000e+00
  0.00000000e+00  0.00000000e+00  0.00000000e+00  0.00000000e+00
  0.00000000e+00  0.00000000e+00  0.00000000e+00  0.00000000e+00
  0.00000000e+00  0.00000000e+00 -1.99690942e-06 -7.39586556e-07
  0.00000000e+00  0.00000000e+00  0.00000000e+00  4.01063787e-06]","[[ 4.63508655e-05  8.94225561e-03]
 [-2.50759391e-04  1.28454214e-03]]",[],0.0,0.0
1787561243.381506,1.8583481979004766,1.9027602100205707,2.5322333830341233,"[ 1.56103204e-05 -4.41753012e-07  0.00000000e+00  0.00000000e+00
  0.00000000e+00 -1.54959187e-06 -4.41753012e-07  8.45629341e-06
  0.00000000e+00  0.00000000e+00  0.00000000e+00 -5.25117501e-07
  0.00000000e+00  0.00000000e+00  0.00000000e+00  0.00000000e+00
  0.00000000e+00  0.00000000e+00  0.00000000e+00  0.00000000e+00
  0.00000000e+00  0.00000000e+00  0.00000000e+00  0.00000000e+00
  0.00000000e+00  0.00000000e+00  0.00000000e+00  0.00000000e+00
  0.00000000e+00  0.00000000e+00 -1.54959187e-06 -5.25117501e-07
  0.00000000e+00  0.00000000e+00  0.00000000e+00  4.16441481e-06]","[[ 3.97822108e-05  7.40210546e-03]
 [-2.11646259e-04  9.25482844e-04]]",[],0.0,0.0
1787561243.4371898,1.8583481979004766,1.9027602100205707,2.5322333830341233,"[ 1.56103204e-05 -4.41753012e-07  0.00000000e+00  0.00000000e+00
  0.00000000e+00 -1.54959187e-06 -4.41753012e-07  8.45629341e-06
  0.00000000e+00  0.00000000e+00  0.00000000e+00 -5.25117501e-07
  0.00000000e+00  0.00000000e+00  0.00000000e+00  0.00000000e+00
  0.00000000e+00  0.00000000e+00  0.00000000e+00  0.00000000e+00
  0.00000000e+00  0.00000000e+00  0.00000000e+00  0.00000000e+00
  0.00000000e+00  0.00000000e+00  0.00000000e+00  0.00000000e+00
  0.00000000e+00  0.00000000e+00 -1.54959187e-06 -5.25117501e-07
  0.00000000e+00  0.00000000e+00  0.00000000e+00  4.16441481e-06]","[[ 3.97822108e-05  7.40210546e-03]
 [-2.11646259e-04  9.25482844e-04]]",[],0.0,0.0
1787561243.4809506,1.8583481979004766,1.9027602100205707,2.5322333830341233,"[ 1.56103204e-05 -4.41753012e-07  0.00000000e+00  0.00000000e+00
  0.00000000e+00 -1.54959187e-06 -4.41753012e-07  8.45629341e-06
  0.00000000e+00  0.00000000e+00  0.00000000e+00 -5.25117501e-07
  0.00000000e+00  0.00000000e+00  0.00000000e+00  0.00000000e+00
  0.00000000e+00  0.00000000e+00  0.00000000e+00  0.00000000e+00
  0.00000000e+00  0.00000000e+00  0.00000000e+00  0.00000000e+00
  0.00000000e+00  0.00000000e+00  0.00000000e+00  0.00000000e+00
  0.00000000e+00  0.00000000e+00 -1.54959187e-06 -5.25117501e-07
  0.00000000e+00  0.00000000e+00  0.00000000e+00  4.16441481e-06]","[[ 3.97822108e-05  7.40210546e-03]
 [-2.11646259e-04  9.25482844e-04]]",[],0.0,0.0
1787561243.531847,1.8583481979004766,1.9027602100205707,2.5322333830341233,"[ 1.56103204e-05 -4.41753012e-07  0.00000000e+00  0.00000000e+00
  0.00000000e+00 -1.54959187e-06 -4.41753012e-07  8.45629341e-06
  0.00000000e+00  0.00000000e+00  0.00000000e+00 -5.25117501e-07
  0.00000000e+00  0.00000000e+00  0.00000000e+00  0.00000000e+00
  0.00000000e+00  0.00000000e+00  0.00000000e+00  0.00000000e+00
  0.00000000e+00  0.00000000e+00  0.00000000e+00  0.00000000e+00
  0.00000000e+00  0.00000000e+00  0.00000000e+00  0.00000000e+00
  0.00000000e+00  0.00000000e+00 -1.54959187e-06 -5.25117501e-07
  0.00000000e+00  0.00000000e+00  0.00000000e+00  4.16441481e-06]","[[ 3.97822108e-05  7.40210546e-03]
 [-2.11646259e-04  9.25482844e-04]]",[],0.0,0.0
1787561243.6005085,1.8583481979004766,1.9027602100205707,2.5322333830341233,"[ 1.56103204e-05 -4.41753012e-07  0.00000000e+00  0.00000000e+00
  0.00000000e+00 -1.54959187e-06 -4.41753012e-07  8.45629341e-06
  0.00000000e+00  0.00000000e+00  0.00000000e+00 -5.25117501e-07
  0.00000000e+00  0.00000000e+00  0.00000000e+00  0.00000000e+00
  0.00000000e+00  0.00000000e+00  0.00000000e+00  0.00000000e+00
  0.00000000e+00  0.00000000e+00  0.00000000e+00  0.00000000e+00
  0.00000000e+00  0.00000000e+00  0.00000000e+00  0.00000000e+00
  0.00000000e+00  0.00000000e+00 -1.54959187e-06 -5.25117501e-07
  0.00000000e+00  0.00000000e+00  0.00000000e+00  4.16441481e-06]","[[ 3.97822108e-05  7.40210546e-03]
 [-2.11646259e-04  9.25482844e-04]]",[],0.0,0.0
1787561243.6366868,1.8583481979004766,1.9027602100205707,2.5322333830341233,"[ 1.56103204e-05 -4.41753012e-07  0.00000000e+00  0.00000000e+00
  0.00000000e+00 -1.54959187e-06 -4.41753012e-07  8.45629341e-06
  0.00000000e+00  0.00000000e+00  0.00000000e+00 -5.25117501e-07
  0.00000000e+00  0.00000000e+00  0.00000000e+00  0.00000000e+00
  0.00000000e+00  0.00000000e+00  0.00000000e+00  0.00000000e+00
  0.00000000e+00  0.00000000e+00  0.00000000e+00  0.00000000e+00
  0.00000000e+00  0.00000000e+00  0.00000000e+00  0.00000000e+00
  0.00000000e+00  0.00000000e+00 -1.54959187e-06 -5.25117501e-07
  0.00000000e+00  0.00000000e+00  0.00000000e+00  4.16441481e-06]","[[ 3.97822108e-05  7.40210546e-03]
 [-2.11646259e-04  9.25482844e-04]]",[],0.0,0.0
1787561243.6899512,1.8583481979004766,1.9027602100205707,2.5322333830341233,"[ 1.56103204e-05 -4.41753012e-07  0.00000000e+00  0.00000000e+00
  0.00000000e+00 -1.54959187e-06 -4.41753012e-07  8.45629341e-06
  0.00000000e+00  0.00000000e+00  0.00000000e+00 -5.25117501e-07
  0.00000000e+00  0.00000000e+00  0.00000000e+00  0.00000000e+00
  0.00000000e+00  0.00000000e+00  0.00000000e+00  0.00000000e+00
  0.00000000e+00  0.00000000e+00  0.00000000e+00  0.00000000e+00
  0.00000000e+00  0.00000000e+00  0.00000000e+00  0.00000000e+00
  0.00000000e+00  0.00000000e+00 -1.54959187e-06 -5.25117501e-07
  0.00000000e+00  0.00000000e+00  0.00000000e+00  4.16441481e-06]","[[ 3.97822108e-05  7.40210546e-03]
 [-2.11646259e-04  9.25482844e-04]]",[],0.0,0.0
1787561243.7364476,1.8583481979004766,1.9027602100205707,2.5322333830341233,"[ 1.56103204e-05 -4.41753012e-07  0.00000000e+00  0.00000000e+00
  0.00000000e+00 -1.54959187e-06 -4.41753012e-07  8.45629341e-06
  0.00000000e+00  0.00000000e+00  0.00000000e+00 -5.25117501e-07
  0.00000000e+00  0.00000000e+00  0.00000000e+00  0.00000000e+00
  0.00000000e+00  0.00000000e+00  0.00000000e+00  0.00000000e+00
  0.00000000e+00  0.00000000e+00  0.00000000e+00  0.00000000e+00
  0.00000000e+00  0.00000000e+00  0.00000000e+00  0.00000000e+00
  0.00000000e+00  0.00000000e+00 -1.54959187e-06 -5.25117501e-07
  0.00000000e+00  0.00000000e+00  0.00000000e+00  4.16441481e-06]","[[ 3.97822108e-05  7.40210546e-03]
 [-2.11646259e-04  9.25482844e-04]]",[],0.0,0.0
1787561243.7815242,1.8583481979004766,1.9027602100205707,2.5322333830341233,"[ 1.56103204e-05 -4.41753012e-07  0.00000000e+00  0.00000000e+00
  0.00000000e+00 -1.54959187e-06 -4.41753012e-07  8.45629341e-06
  0.00000000e+00  0.00000000e+00  0.00000000e+00 -5.25117501e-07
  0.00000000e+00  0.00000000e+00  0.00000000e+00  0.00000000e+00
  0.00000000e+00  0.00000000e+00  0.00000000e+00  0.00000000e+00
  0.00000000e+00  0.00000000e+00  0.00000000e+00  0.00000000e+00
  0.00000000e+00  0.00000000e+00  0.00000000e+00  0.00000000e+00
  0.00000000e+00  0.00000000e+00 -1.54959187e-06 -5.25117501e-07
  0.00000000e+00  0.00000000e+00  0.00000000e+00  4.16441481e-06]","[[ 3.97822108e-05  7.40210546e-03]
 [-2.11646259e-04  9.25482844e-04]]",[],0.0,0.0
1787561243.8495936,1.8583481979004766,1.9027602100205707,2.5322333830341233,"[ 1.56103204e-05 -4.41753012e-07  0.00000000e+00  0.00000000e+00
  0.00000000e+00 -1.54959187e-06 -4.41753012e-07  8.45629341e-06
  0.00000000e+00  0.00000000e+00  0.00000000e+00 -5.25117501e-07
  0.00000000e+00  0.00000000e+00  0.00000000e+00  0.00000000e+00
  0.00000000e+00  0.00000000e+00  0.00000000e+00  0.00000000e+00
  0.00000000e+00  0.00000000e+00  0.00000000e+00  0.00000000e+00
  0.00000000e+00  0.00000000e+00  0.00000000e+00  0.00000000e+00
  0.00000000e+00  0.00000000e+00 -1.54959187e-06 -5.25117501e-07
  0.00000000e+00  0.00000000e+00  0.00000000e+00  4.16441481e-06]","[[ 3.97822108e-05  7.40210546e-03]
 [-2.11646259e-04  9.25482844e-04]]",[],0.0,0.0
1787561243.8819218,1.8583481979004766,1.9027602100205707,2.5322333830341233,"[ 1.56103204e-05 -4.41753012e-07  0.00000000e+00  0.00000000e+00
  0.00000000e+00 -1.54959187e-06 -4.41753012e-07  8.45629341e-06
  0.00000000e+00  0.00000000e+00  0.00000000e+00 -5.25117501e-07
  0.00000000e+00  0.00000000e+00  0.00000000e+00  0.00000000e+00
  0.00000000e+00  0.00000000e+00  0.00000000e+00  0.00000000e+00
  0.00000000e+00  0.00000000e+00  0.00000000e+00  0.00000000e+00
  0.00000000e+00  0.00000000e+00  0.00000000e+00  0.00000000e+00
  0.00000000e+00  0.00000000e+00 -1.54959187e-06 -5.25117501e-07
  0.00000000e+00  0.00000000e+00  0.00000000e+00  4.16441481e-06]","[[ 3.97822108e-05  7.40210546e-03]
 [-2.11646259e-04  9.25482844e-04]]",[],0.0,0.0
1787561243.9429975,1.8583481979004766,1.9027602100205707,2.5322333830341233,"[ 1.56103204e-05 -4.41753012e-07  0.00000000e+00  0.00000000e+00
  0.00000000e+00 -1.54959187e-06 -4.41753012e-07  8.45629341e-06
  0.00000000e+00  0.00000000e+00  0.00000000e+00 -5.25117501e-07
  0.00000000e+00  0.00000000e+00  0.00000000e+00  0.00000000e+00
  0.00000000e+00  0.00000000e+00  0.00000000e+00  0.00000000e+00
  0.00000000e+00  0.00000000e+00  0.00000000e+00  0.00000000e+00
  0.00000000e+00  0.00000000e+00  0.00000000e+00  0.00000000e+00
  0.00000000e+00  0.00000000e+00 -1.54959187e-06 -5.25117501e-07
  0.00000000e+00  0.00000000e+00  0.00000000e+00  4.16441481e-06]","[[ 3.97822108e-05  7.40210546e-03]
 [-2.11646259e-04  9.25482844e-04]]",[],0.0,0.0
1787561243.9875152,1.8583481979004766,1.9027602100205707,2.5322333830341233,"[ 1.56103204e-05 -4.41753012e-07  0.00000000e+00  0.00000000e+00
  0.00000000e+00 -1.54959187e-06 -4.41753012e-07  8.45629341e-06
  0.00000000e+00  0.00000000e+00  0.00000000e+00 -5.25117501e-07
  0.00000000e+00  0.00000000e+00  0.00000000e+00  0.00000000e+00
  0.00000000e+00  0.00000000e+00  0.00000000e+00  0.00000000e+00
  0.00000000e+00  0.00000000e+00  0.00000000e+00  0.00000000e+00
  0.00000000e+00  0.00000000e+00  0.00000000e+00  0.00000000e+00
  0.00000000e+00  0.00000000e+00 -1.54959187e-06 -5.25117501e-07
  0.00000000e+00  0.00000000e+00  0.00000000e+00  4.16441481e-06]","[[ 3.97822108e-05  7.40210546e-03]
 [-2.11646259e-04  9.25482844e-04]]",[],0.0,0.0
1787561244.03845,1.8583481979004766,1.9027602100205707,2.5322333830341233,"[ 1.56103204e-05 -4.41753012e-07  0.00000000e+00  0.00000000e+00
  0.00000000e+00 -1.54959187e-06 -4.41753012e-07  8.45629341e-06
  0.00000000e+00  0.00000000e+00  0.00000000e+00 -5.25117501e-07
  0.00000000e+00  0.00000000e+00  0.00000000e+00  0.00000000e+00
  0.00000000e+00  0.00000000e+00  0.00000000e+00  0.00000000e+00
  0.00000000e+00  0.00000000e+00  0.00000000e+00  0.00000000e+00
  0.00000000e+00  0.00000000e+00  0.00000000e+00  0.00000000e+00
  0.00000000e+00  0.00000000e+00 -1.54959187e-06 -5.25117501e-07
  0.00000000e+00  0.00000000e+00  0.00000000e+00  4.16441481e-06]","[[ 3.97822108e-05  7.40210546e-03]
 [-2.11646259e-04  9.25482844e-04]]",[],0.0,0.0
1787561244.081877,1.8583481979004766,1.9027602100205707,2.5322333830341233,"[ 1.56103204e-05 -4.41753012e-07  0.00000000e+00  0.00000000e+00
  0.00000000e+00 -1.54959187e-06 -4.41753012e-07  8.45629341e-06
  0.00000000e+00  0.00000000e+00  0.00000000e+00 -5.25117501e-07
  0.00000000e+00  0.00000000e+00  0.00000000e+00  0.00000000e+00
  0.00000000e+00  0.00000000e+00  0.00000000e+00  0.00000000e+00
  0.00000000e+00  0.00000000e+00  0.00000000e+00  0.00000000e+00
  0.00000000e+00  0.00000000e+00  0.00000000e+00  0.00000000e+00
  0.00000000e+00  0.00000000e+00 -1.54959187e-06 -5.25117501e-07
  0.00000000e+00  0.00000000e+00  0.00000000e+00  4.16441481e-06]","[[ 3.97822108e-05  7.40210546e-03]
 [-2.11646259e-04  9.25482844e-04]]",[],0.0,0.0
1787561244.1366777,1.8583481979004766,1.9027602100205707,2.5322333830341233,"[ 1.56103204e-05 -4.41753012e-07  0.00000000e+00  0.00000000e+00
  0.00000000e+00 -1.54959187e-06 -4.41753012e-07  8.45629341e-06
  0.00000000e+00  0.00000000e+00  0.00000000e+00 -5.25117501e-07
  0.00000000e+00  0.00000000e+00  0.00000000e+00  0.00000000e+00
  0.00000000e+00  0.00000000e+00  0.00000000e+00  0.00000000e+00
  0.00000000e+00  0.00000000e+00  0.00000000e+00  0.00000000e+00
  0.00000000e+00  0.00000000e+00  0.00000000e+00  0.00000000e+00
  0.00000000e+00  0.00000000e+00 -1.54959187e-06 -5.25117501e-07
  0.00000000e+00  0.00000000e+00  0.00000000e+00  4.16441481e-06]","[[ 3.97822108e-05  7.40210546e-03]
 [-2.11646259e-04  9.25482844e-04]]",[],0.0,0.0
1787561244.1935353,1.8583481979004766,1.9027602100205707,2.5322333830341233,"[ 1.56103204e-05 -4.41753012e-07  0.00000000e+00  0.00000000e+00
  0.00000000e+00 -1.54959187e-06 -4.41753012e-07  8.45629341e-06
  0.00000000e+00  0.00000000e+00  0.00000000e+00 -5.25117501e-07
  0.00000000e+00  0.00000000e+00  0.00000000e+00  0.00000000e+00
  0.00000000e+00  0.00000000e+00  0.00000000e+00  0.00000000e+00
  0.00000000e+00  0.00000000e+00  0.00000000e+00  0.00000000e+00
  0.00000000e+00  0.00000000e+00  0.00000000e+00  0.00000000e+00
  0.00000000e+00  0.00000000e+00 -1.54959187e-06 -5.25117501e-07
  0.00000000e+00  0.00000000e+00  0.00000000e+00  4.16441481e-06]","[[ 3.97822108e-05  7.40210546e-03]
 [-2.11646259e-04  9.25482844e-04]]",[],0.0,0.0
1787561244.2319257,1.8674295462565351,1.90135088347667,2.5757854415998356,"[ 1.37417431e-05 -4.18470590e-07  0.00000000e+00  0.00000000e+00
  0.00000000e+00 -1.55262561e-06 -4.18470590e-07  7.32408430e-06
  0.00000000e+00  0.00000000e+00  0.00000000e+00 -3.83115359e-07
  0.00000000e+00  0.00000000e+00  0.00000000e+00  0.00000000e+00
  0.00000000e+00  0.00000000e+00  0.00000000e+00  0.00000000e+00
  0.00000000e+00  0.00000000e+00  0.00000000e+00  0.00000000e+00
  0.00000000e+00  0.00000000e+00  0.00000000e+00  0.00000000e+00
  0.00000000e+00  0.00000000e+00 -1.55262561e-06 -3.83115359e-07
  0.00000000e+00  0.00000000e+00  0.00000000e+00  4.19434201e-06]","[[ 3.63547053e-05  6.82250790e-03]
 [-1.83369507e-04  6.75797184e-04]]",[],0.0,0.0
1787561244.283449,1.8674295462565351,1.90135088347667,2.5757854415998356,"[ 1.37417431e-05 -4.18470590e-07  0.00000000e+00  0.00000000e+00
  0.00000000e+00 -1.55262561e-06 -4.18470590e-07  7.32408430e-06
  0.00000000e+00  0.00000000e+00  0.00000000e+00 -3.83115359e-07
  0.00000000e+00  0.00000000e+00  0.00000000e+00  0.00000000e+00
  0.00000000e+00  0.00000000e+00  0.00000000e+00  0.00000000e+00
  0.00000000e+00  0.00000000e+00  0.00000000e+00  0.00000000e+00
  0.00000000e+00  0.00000000e+00  0.00000000e+00  0.00000000e+00
  0.00000000e+00  0.00000000e+00 -1.55262561e-06 -3.83115359e-07
  0.00000000e+00  0.00000000e+00  0.00000000e+00  4.19434201e-06]","[[ 3.63547053e-05  6.82250790e-03]
 [-1.83369507e-04  6.75797184e-04]]",[],0.0,0.0
1787561244.331267,1.8674295462565351,1.90135088347667,2.5757854415998356,"[ 1.37417431e-05 -4.18470590e-07  0.00000000e+00  0.00000000e+00
  0.00000000e+00 -1.55262561e-06 -4.18470590e-07  7.32408430e-06
  0.00000000e+00  0.00000000e+00  0.00000000e+00 -3.83115359e-07
  0.00000000e+00  0.00000000e+00  0.00000000e+00  0.00000000e+00
  0.00000000e+00  0.00000000e+00  0.00000000e+00  0.00000000e+00
  0.00000000e+00  0.00000000e+00  0.00000000e+00  0.00000000e+00
  0.00000000e+00  0.00000000e+00  0.00000000e+00  0.00000000e+00
  0.00000000e+00  0.00000000e+00 -1.55262561e-06 -3.83115359e-07
  0.00000000e+00  0.00000000e+00  0.00000000e+00  4.19434201e-06]","[[ 3.63547053e-05  6.82250790e-03]
 [-1.83369507e-04  6.75797184e-04]]",[],0.0,0.0
1787561244.3815544,1.8674295462565351,1.90135088347667,2.5757854415998356,"[ 1.37417431e-05 -4.18470590e-07  0.00000000e+00  0.00000000e+00
  0.00000000e+00 -1.55262561e-06 -4.18470590e-07  7.32408430e-06
  0.00000000e+00  0.00000000e+00  0.00000000e+00 -3.83115359e-07
  0.00000000e+00  0.00000000e+00  0.00000000e+00  0.00000000e+00
  0.00000000e+00  0.00000000e+00  0.00000000e+00  0.00000000e+00
  0.00000000e+00  0.00000000e+00  0.00000000e+00  0.00000000e+00
  0.00000000e+00  0.00000000e+00  0.00000000e+00  0.00000000e+00
  0.00000000e+00  0.00000000e+00 -1.55262561e-06 -3.83115359e-07
  0.00000000e+00  0.00000000e+00  0.00000000e+00  4.19434201e-06]","[[ 3.63547053e-05  6.82250790e-03]
 [-1.83369507e-04  6.75797184e-04]]",[],0.0,0.0
1787561244.4312599,1.8674295462565351,1.90135088347667,2.5757854415998356,"[ 1.37417431e-05 -4.18470590e-07  0.00000000e+00  0.00000000e+00
  0.00000000e+00 -1.55262561e-06 -4.18470590e-07  7.32408430e-06
  0.00000000e+00  0.00000000e+00  0.00000000e+00 -3.83115359e-07
  0.00000000e+00  0.00000000e+00  0.00000000e+00  0.00000000e+00
  0.00000000e+00  0.00000000e+00  0.00000000e+00  0.00000000e+00
  0.00000000e+00  0.00000000e+00  0.00000000e+00  0.00000000e+00
  0.00000000e+00  0.00000000e+00  0.00000000e+00  0.00000000e+00
  0.00000000e+00  0.00000000e+00 -1.55262561e-06 -3.83115359e-07
  0.00000000e+00  0.00000000e+00  0.00000000e+00  4.19434201e-06]","[[ 3.63547053e-05  6.82250790e-03]
 [-1.83369507e-04  6.75797184e-04]]",[],0.0,0.0
1787561244.481154,1.8674295462565351,1.90135088347667,2.5757854415998356,"[ 1.37417431e-05 -4.18470590e-07  0.00000000e+00  0.00000000e+00
  0.00000000e+00 -1.55262561e-06 -4.18470590e-07  7.32408430e-06
  0.00000000e+00  0.00000000e+00  0.00000000e+00 -3.83115359e-07
  0.00000000e+00  0.00000000e+00  0.00000000e+00  0.00000000e+00
  0.00000000e+00  0.00000000e+00  0.00000000e+00  0.00000000e+00
  0.00000000e+00  0.00000000e+00  0.00000000e+00  0.00000000e+00
  0.00000000e+00  0.00000000e+00  0.00000000e+00  0.00000000e+00
  0.00000000e+00  0.00000000e+00 -1.55262561e-06 -3.83115359e-07
  0.00000000e+00  0.00000000e+00  0.00000000e+00  4.19434201e-06]","[[ 3.63547053e-05  6.82250790e-03]
 [-1.83369507e-04  6.75797184e-04]]",[],0.0,0.0
1787561244.531917,1.8674295462565351,1.90135088347667,2.5757854415998356,"[ 1.37417431e-05 -4.18470590e-07  0.00000000e+00  0.00000000e+00
  0.00000000e+00 -1.55262561e-06 -4.18470590e-07  7.32408430e-06
  0.00000000e+00  0.00000000e+00  0.00000000e+00 -3.83115359e-07
  0.00000000e+00  0.00000000e+00  0.00000000e+00  0.00000000e+00
  0.00000000e+00  0.00000000e+00  0.00000000e+00  0.00000000e+00
  0.00000000e+00  0.00000000e+00  0.00000000e+00  0.00000000e+00
  0.00000000e+00  0.00000000e+00  0.00000000e+00  0.00000000e+00
  0.00000000e+00  0.00000000e+00 -1.55262561e-06 -3.83115359e-07
  0.00000000e+00  0.00000000e+00  0.00000000e+00  4.19434201e-06]","[[ 3.63547053e-05  6.82250790e-03]
 [-1.83369507e-04  6.75797184e-04]]",[],0.0,0.0
1787561244.582283,1.8674295462565351,1.90135088347667,2.5757854415998356,"[ 1.37417431e-05 -4.18470590e-07  0.00000000e+00  0.00000000e+00
  0.00000000e+00 -1.55262561e-06 -4.18470590e-07  7.32408430e-06
  0.00000000e+00  0.00000000e+00  0.00000000e+00 -3.83115359e-07
  0.00000000e+00  0.00000000e+00  0.00000000e+00  0.00000000e+00
  0.00000000e+00  0.00000000e+00  0.00000000e+00  0.00000000e+00
  0.00000000e+00  0.00000000e+00  0.00000000e+00  0.00000000e+00
  0.00000000e+00  0.00000000e+00  0.00000000e+00  0.00000000e+00
  0.00000000e+00  0.00000000e+00 -1.55262561e-06 -3.83115359e-07
  0.00000000e+00  0.00000000e+00  0.00000000e+00  4.19434201e-06]","[[ 3.63547053e-05  6.82250790e-03]
 [-1.83369507e-04  6.75797184e-04]]",[],0.0,0.0
1787561244.6340997,1.8674295462565351,1.90135088347667,2.5757854415998356,"[ 1.37417431e-05 -4.18470590e-07  0.00000000e+00  0.00000000e+00
  0.00000000e+00 -1.55262561e-06 -4.18470590e-07  7.32408430e-06
  0.00000000e+00  0.00000000e+00  0.00000000e+00 -3.83115359e-07
  0.00000000e+00  0.00000000e+00  0.00000000e+00  0.00000000e+00
  0.00000000e+00  0.00000000e+00  0.00000000e+00  0.00000000e+00
  0.00000000e+00  0.00000000e+00  0.00000000e+00  0.00000000e+00
  0.00000000e+00  0.00000000e+00  0.00000000e+00  0.00000000e+00
  0.00000000e+00  0.00000000e+00 -1.55262561e-06 -3.83115359e-07
  0.00000000e+00  0.00000000e+00  0.00000000e+00  4.19434201e-06]","[[ 3.63547053e-05  6.82250790e-03]
 [-1.83369507e-04  6.75797184e-04]]",[],0.0,0.0
1787561244.681262,1.8674295462565351,1.90135088347667,2.5757854415998356,"[ 1.37417431e-05 -4.18470590e-07  0.00000000e+00  0.00000000e+00
  0.00000000e+00 -1.55262561e-06 -4.18470590e-07  7.32408430e-06
  0.00000000e+00  0.00000000e+00  0.00000000e+00 -3.83115359e-07
  0.00000000e+00  0.00000000e+00  0.00000000e+00  0.00000000e+00
  0.00000000e+00  0.00000000e+00  0.00000000e+00  0.00000000e+00
  0.00000000e+00  0.00000000e+00  0.00000000e+00  0.00000000e+00
  0.00000000e+00  0.00000000e+00  0.00000000e+00  0.00000000e+00
  0.00000000e+00  0.00000000e+00 -1.55262561e-06 -3.83115359e-07
  0.00000000e+00  0.00000000e+00  0.00000000e+00  4.19434201e-06]","[[ 3.63547053e-05  6.82250790e-03]
 [-1.83369507e-04  6.75797184e-04]]",[],0.0,0.0
1787561244.7318168,1.8674295462565351,1.90135088347667,2.5757854415998356,"[ 1.37417431e-05 -4.18470590e-07  0.00000000e+00  0.00000000e+00
  0.00000000e+00 -1.55262561e-06 -4.18470590e-07  7.32408430e-06
  0.00000000e+00  0.00000000e+00  0.00000000e+00 -3.83115359e-07
  0.00000000e+00  0.00000000e+00  0.00000000e+00  0.00000000e+00
  0.00000000e+00  0.00000000e+00  0.00000000e+00  0.00000000e+00
  0.00000000e+00  0.00000000e+00  0.00000000e+00  0.00000000e+00
  0.00000000e+00  0.00000000e+00  0.00000000e+00  0.00000000e+00
  0.00000000e+00  0.00000000e+00 -1.55262561e-06 -3.83115359e-07
  0.00000000e+00  0.00000000e+00  0.00000000e+00  4.19434201e-06]","[[ 3.63547053e-05  6.82250790e-03]
 [-1.83369507e-04  6.75797184e-04]]",[],0.0,0.0
1787561244.7825487,1.8674295462565351,1.90135088347667,2.5757854415998356,"[ 1.37417431e-05 -4.18470590e-07  0.00000000e+00  0.00000000e+00
  0.00000000e+00 -1.55262561e-06 -4.18470590e-07  7.32408430e-06
  0.00000000e+00  0.00000000e+00  0.00000000e+00 -3.83115359e-07
  0.00000000e+00  0.00000000e+00  0.00000000e+00  0.00000000e+00
  0.00000000e+00  0.00000000e+00  0.00000000e+00  0.00000000e+00
  0.00000000e+00  0.00000000e+00  0.00000000e+00  0.00000000e+00
  0.00000000e+00  0.00000000e+00  0.00000000e+00  0.00000000e+00
  0.00000000e+00  0.00000000e+00 -1.55262561e-06 -3.83115359e-07
  0.00000000e+00  0.00000000e+00  0.00000000e+00  4.19434201e-06]","[[ 3.63547053e-05  6.82250790e-03]
 [-1.83369507e-04  6.75797184e-04]]",[],0.0,0.0
1787561244.831612,1.8674295462565351,1.90135088347667,2.5757854415998356,"[ 1.37417431e-05 -4.18470590e-07  0.00000000e+00  0.00000000e+00
  0.00000000e+00 -1.55262561e-06 -4.18470590e-07  7.32408430e-06
  0.00000000e+00  0.00000000e+00  0.00000000e+00 -3.83115359e-07
  0.00000000e+00  0.00000000e+00  0.00000000e+00  0.00000000e+00
  0.00000000e+00  0.00000000e+00  0.00000000e+00  0.00000000e+00
  0.00000000e+00  0.00000000e+00  0.00000000e+00  0.00000000e+00
  0.00000000e+00  0.00000000e+00  0.00000000e+00  0.00000000e+00
  0.00000000e+00  0.00000000e+00 -1.55262561e-06 -3.83115359e-07
  0.00000000e+00  0.00000000e+00  0.00000000e+00  4.19434201e-06]","[[ 3.63547053e-05  6.82250790e-03]
 [-1.83369507e-04  6.75797184e-04]]",[],0.0,0.0
1787561244.8811033,1.8674295462565351,1.90135088347667,2.5757854415998356,"[ 1.37417431e-05 -4.18470590e-07  0.00000000e+00  0.00000000e+00
  0.00000000e+00 -1.55262561e-06 -4.18470590e-07  7.32408430e-06
  0.00000000e+00  0.00000000e+00  0.00000000e+00 -3.83115359e-07
  0.00000000e+00  0.00000000e+00  0.00000000e+00  0.00000000e+00
  0.00000000e+00  0.00000000e+00  0.00000000e+00  0.00000000e+00
  0.00000000e+00  0.00000000e+00  0.00000000e+00  0.00000000e+00
  0.00000000e+00  0.00000000e+00  0.00000000e+00  0.00000000e+00
  0.00000000e+00  0.00000000e+00 -1.55262561e-06 -3.83115359e-07
  0.00000000e+00  0.00000000e+00  0.00000000e+00  4.19434201e-06]","[[ 3.63547053e-05  6.82250790e-03]
 [-1.83369507e-04  6.75797184e-04]]",[],0.0,0.0
1787561244.9319527,1.8674295462565351,1.90135088347667,2.5757854415998356,"[ 1.37417431e-05 -4.18470590e-07  0.00000000e+00  0.00000000e+00
  0.00000000e+00 -1.55262561e-06 -4.18470590e-07  7.32408430e-06
  0.00000000e+00  0.00000000e+00  0.00000000e+00 -3.83115359e-07
  0.00000000e+00  0.00000000e+00  0.00000000e+00  0.00000000e+00
  0.00000000e+00  0.00000000e+00  0.00000000e+00  0.00000000e+00
  0.00000000e+00  0.00000000e+00  0.00000000e+00  0.00000000e+00
  0.00000000e+00  0.00000000e+00  0.00000000e+00  0.00000000e+00
  0.00000000e+00  0.00000000e+00 -1.55262561e-06 -3.83115359e-07
  0.00000000e+00  0.00000000e+00  0.00000000e+00  4.19434201e-06]","[[ 3.63547053e-05  6.82250790e-03]
 [-1.83369507e-04  6.75797184e-04]]",[],0.0,0.0
1787561244.9837534,1.882374453801455,1.8996724006138659,2.5963066329983615,"[ 1.21126643e-05 -3.36637255e-07  0.00000000e+00  0.00000000e+00
  0.00000000e+00 -1.37071730e-06 -3.36637255e-07  6.39851898e-06
  0.00000000e+00  0.00000000e+00  0.00000000e+00 -4.51895318e-07
  0.00000000e+00  0.00000000e+00  0.00000000e+00  0.00000000e+00
  0.00000000e+00  0.00000000e+00  0.00000000e+00  0.00000000e+00
  0.00000000e+00  0.00000000e+00  0.00000000e+00  0.00000000e+00
  0.00000000e+00  0.00000000e+00  0.00000000e+00  0.00000000e+00
  0.00000000e+00  0.00000000e+00 -1.37071730e-06 -4.51895318e-07
  0.00000000e+00  0.00000000e+00  0.00000000e+00  3.92876912e-06]","[[ 2.90950073e-04  4.16177254e-03]
 [-5.68123277e-05  4.11106570e-03]]",[],0.0,0.0
1787561245.0396516,1.882374453801455,1.8996724006138659,2.5963066329983615,"[ 1.21126643e-05 -3.36637255e-07  0.00000000e+00  0.00000000e+00
  0.00000000e+00 -1.37071730e-06 -3.36637255e-07  6.39851898e-06
  0.00000000e+00  0.00000000e+00  0.00000000e+00 -4.51895318e-07
  0.00000000e+00  0.00000000e+00  0.00000000e+00  0.00000000e+00
  0.00000000e+00  0.00000000e+00  0.00000000e+00  0.00000000e+00
  0.00000000e+00  0.00000000e+00  0.00000000e+00  0.00000000e+00
  0.00000000e+00  0.00000000e+00  0.00000000e+00  0.00000000e+00
  0.00000000e+00  0.00000000e+00 -1.37071730e-06 -4.51895318e-07
  0.00000000e+00  0.00000000e+00  0.00000000e+00  3.92876912e-06]","[[ 2.90950073e-04  4.16177254e-03]
 [-5.68123277e-05  4.11106570e-03]]",[],0.0,0.0
1787561245.081382,1.882374453801455,1.8996724006138659,2.5963066329983615,"[ 1.21126643e-05 -3.36637255e-07  0.00000000e+00  0.00000000e+00
  0.00000000e+00 -1.37071730e-06 -3.36637255e-07  6.39851898e-06
  0.00000000e+00  0.00000000e+00  0.00000000e+00 -4.51895318e-07
  0.00000000e+00  0.00000000e+00  0.00000000e+00  0.00000000e+00
  0.00000000e+00  0.00000000e+00  0.00000000e+00  0.00000000e+00
  0.00000000e+00  0.00000000e+00  0.00000000e+00  0.00000000e+00
  0.00000000e+00  0.00000000e+00  0.00000000e+00  0.00000000e+00
  0.00000000e+00  0.00000000e+00 -1.37071730e-06 -4.51895318e-07
  0.00000000e+00  0.00000000e+00  0.00000000e+00  3.92876912e-06]","[[ 2.90950073e-04  4.16177254e-03]
 [-5.68123277e-05  4.11106570e-03]]",[],0.0,0.0
1787561245.132413,1.882374453801455,1.8996724006138659,2.5963066329983615,"[ 1.21126643e-05 -3.36637255e-07  0.00000000e+00  0.00000000e+00
  0.00000000e+00 -1.37071730e-06 -3.36637255e-07  6.39851898e-06
  0.00000000e+00  0.00000000e+00  0.00000000e+00 -4.51895318e-07
  0.00000000e+00  0.00000000e+00  0.00000000e+00  0.00000000e+00
  0.00000000e+00  0.00000000e+00  0.00000000e+00  0.00000000e+00
  0.00000000e+00  0.00000000e+00  0.00000000e+00  0.00000000e+00
  0.00000000e+00  0.00000000e+00  0.00000000e+00  0.00000000e+00
  0.00000000e+00  0.00000000e+00 -1.37071730e-06 -4.51895318e-07
  0.00000000e+00  0.00000000e+00  0.00000000e+00  3.92876912e-06]","[[ 2.90950073e-04  4.16177254e-03]
 [-5.68123277e-05  4.11106570e-03]]",[],0.0,0.0
1787561245.1812127,1.882374453801455,1.8996724006138659,2.5963066329983615,"[ 1.21126643e-05 -3.36637255e-07  0.00000000e+00  0.00000000e+00
  0.00000000e+00 -1.37071730e-06 -3.36637255e-07  6.39851898e-06
  0.00000000e+00  0.00000000e+00  0.00000000e+00 -4.51895318e-07
  0.00000000e+00  0.00000000e+00  0.00000000e+00  0.00000000e+00
  0.00000000e+00  0.00000000e+00  0.00000000e+00  0.00000000e+00
  0.00000000e+00  0.00000000e+00  0.00000000e+00  0.00000000e+00
  0.00000000e+00  0.00000000e+00  0.00000000e+00  0.00000000e+00
  0.00000000e+00  0.00000000e+00 -1.37071730e-06 -4.51895318e-07
  0.00000000e+00  0.00000000e+00  0.00000000e+00  3.92876912e-06]","[[ 2.90950073e-04  4.16177254e-03]
 [-5.68123277e-05  4.11106570e-03]]",[],0.0,0.0
1787561245.2315335,1.882374453801455,1.8996724006138659,2.5963066329983615,"[ 1.21126643e-05 -3.36637255e-07  0.00000000e+00  0.00000000e+00
  0.00000000e+00 -1.37071730e-06 -3.36637255e-07  6.39851898e-06
  0.00000000e+00  0.00000000e+00  0.00000000e+00 -4.51895318e-07
  0.00000000e+00  0.00000000e+00  0.00000000e+00  0.00000000e+00
  0.00000000e+00  0.00000000e+00  0.00000000e+00  0.00000000e+00
  0.00000000e+00  0.00000000e+00  0.00000000e+00  0.00000000e+00
  0.00000000e+00  0.00000000e+00  0.00000000e+00  0.00000000e+00
  0.00000000e+00  0.00000000e+00 -1.37071730e-06 -4.51895318e-07
  0.00000000e+00  0.00000000e+00  0.00000000e+00  3.92876912e-06]","[[ 2.90950073e-04  4.16177254e-03]
 [-5.68123277e-05  4.11106570e-03]]",[],0.0,0.0
1787561245.2962847,1.882374453801455,1.8996724006138659,2.5963066329983615,"[ 1.21126643e-05 -3.36637255e-07  0.00000000e+00  0.00000000e+00
  0.00000000e+00 -1.37071730e-06 -3.36637255e-07  6.39851898e-06
  0.00000000e+00  0.00000000e+00  0.00000000e+00 -4.51895318e-07
  0.00000000e+00  0.00000000e+00  0.00000000e+00  0.00000000e+00
  0.00000000e+00  0.00000000e+00  0.00000000e+00  0.00000000e+00
  0.00000000e+00  0.00000000e+00  0.00000000e+00  0.00000000e+00
  0.00000000e+00  0.00000000e+00  0.00000000e+00  0.00000000e+00
  0.00000000e+00  0.00000000e+00 -1.37071730e-06 -4.51895318e-07
  0.00000000e+00  0.00000000e+00  0.00000000e+00  3.92876912e-06]","[[ 2.90950073e-04  4.16177254e-03]
 [-5.68123277e-05  4.11106570e-03]]",[],0.0,0.0
1787561245.3452742,1.882374453801455,1.8996724006138659,2.5963066329983615,"[ 1.21126643e-05 -3.36637255e-07  0.00000000e+00  0.00000000e+00
  0.00000000e+00 -1.37071730e-06 -3.36637255e-07  6.39851898e-06
  0.00000000e+00  0.00000000e+00  0.00000000e+00 -4.51895318e-07
  0.00000000e+00  0.00000000e+00  0.00000000e+00  0.00000000e+00
  0.00000000e+00  0.00000000e+00  0.00000000e+00  0.00000000e+00
  0.00000000e+00  0.00000000e+00  0.00000000e+00  0.00000000e+00
  0.00000000e+00  0.00000000e+00  0.00000000e+00  0.00000000e+00
  0.00000000e+00  0.00000000e+00 -1.37071730e-06 -4.51895318e-07
  0.00000000e+00  0.00000000e+00  0.00000000e+00  3.92876912e-06]","[[ 2.90950073e-04  4.16177254e-03]
 [-5.68123277e-05  4.11106570e-03]]",[],0.0,0.0
1787561245.3828597,1.882374453801455,1.8996724006138659,2.5963066329983615,"[ 1.21126643e-05 -3.36637255e-07  0.00000000e+00  0.00000000e+00
  0.00000000e+00 -1.37071730e-06 -3.36637255e-07  6.39851898e-06
  0.00000000e+00  0.00000000e+00  0.00000000e+00 -4.51895318e-07
  0.00000000e+00  0.00000000e+00  0.00000000e+00  0.00000000e+00
  0.00000000e+00  0.00000000e+00  0.00000000e+00  0.00000000e+00
  0.00000000e+00  0.00000000e+00  0.00000000e+00  0.00000000e+00
  0.00000000e+00  0.00000000e+00  0.00000000e+00  0.00000000e+00
  0.00000000e+00  0.00000000e+00 -1.37071730e-06 -4.51895318e-07
  0.00000000e+00  0.00000000e+00  0.00000000e+00  3.92876912e-06]","[[ 2.90950073e-04  4.16177254e-03]
 [-5.68123277e-05  4.11106570e-03]]",[],0.0,0.0
1787561245.4313953,1.882374453801455,1.8996724006138659,2.5963066329983615,"[ 1.21126643e-05 -3.36637255e-07  0.00000000e+00  0.00000000e+00
  0.00000000e+00 -1.37071730e-06 -3.36637255e-07  6.39851898e-06
  0.00000000e+00  0.00000000e+00  0.00000000e+00 -4.51895318e-07
  0.00000000e+00  0.00000000e+00  0.00000000e+00  0.00000000e+00
  0.00000000e+00  0.00000000e+00  0.00000000e+00  0.00000000e+00
  0.00000000e+00  0.00000000e+00  0.00000000e+00  0.00000000e+00
  0.00000000e+00  0.00000000e+00  0.00000000e+00  0.00000000e+00
  0.00000000e+00  0.00000000e+00 -1.37071730e-06 -4.51895318e-07
  0.00000000e+00  0.00000000e+00  0.00000000e+00  3.92876912e-06]","[[ 2.90950073e-04  4.16177254e-03]
 [-5.68123277e-05  4.11106570e-03]]",[],0.0,0.0
1787561245.4817631,1.882374453801455,1.8996724006138659,2.5963066329983615,"[ 1.21126643e-05 -3.36637255e-07  0.00000000e+00  0.00000000e+00
  0.00000000e+00 -1.37071730e-06 -3.36637255e-07  6.39851898e-06
  0.00000000e+00  0.00000000e+00  0.00000000e+00 -4.51895318e-07
  0.00000000e+00  0.00000000e+00  0.00000000e+00  0.00000000e+00
  0.00000000e+00  0.00000000e+00  0.00000000e+00  0.00000000e+00
  0.00000000e+00  0.00000000e+00  0.00000000e+00  0.00000000e+00
  0.00000000e+00  0.00000000e+00  0.00000000e+00  0.00000000e+00
  0.00000000e+00  0.00000000e+00 -1.37071730e-06 -4.51895318e-07
  0.00000000e+00  0.00000000e+00  0.00000000e+00  3.92876912e-06]","[[ 2.90950073e-04  4.16177254e-03]
 [-5.68123277e-05  4.11106570e-03]]",[],0.0,0.0
1787561245.5308657,1.882374453801455,1.8996724006138659,2.5963066329983615,"[ 1.21126643e-05 -3.36637255e-07  0.00000000e+00  0.00000000e+00
  0.00000000e+00 -1.37071730e-06 -3.36637255e-07  6.39851898e-06
  0.00000000e+00  0.00000000e+00  0.00000000e+00 -4.51895318e-07
  0.00000000e+00  0.00000000e+00  0.00000000e+00  0.00000000e+00
  0.00000000e+00  0.00000000e+00  0.00000000e+00  0.00000000e+00
  0.00000000e+00  0.00000000e+00  0.00000000e+00  0.00000000e+00
  0.00000000e+00  0.00000000e+00  0.00000000e+00  0.00000000e+00
  0.00000000e+00  0.00000000e+00 -1.37071730e-06 -4.51895318e-07
  0.00000000e+00  0.00000000e+00  0.00000000e+00  3.92876912e-06]","[[ 2.90950073e-04  4.16177254e-03]
 [-5.68123277e-05  4.11106570e-03]]",[],0.0,0.0
1787561245.581486,1.882374453801455,1.8996724006138659,2.5963066329983615,"[ 1.21126643e-05 -3.36637255e-07  0.00000000e+00  0.00000000e+00
  0.00000000e+00 -1.37071730e-06 -3.36637255e-07  6.39851898e-06
  0.00000000e+00  0.00000000e+00  0.00000000e+00 -4.51895318e-07
  0.00000000e+00  0.00000000e+00  0.00000000e+00  0.00000000e+00
  0.00000000e+00  0.00000000e+00  0.00000000e+00  0.00000000e+00
  0.00000000e+00  0.00000000e+00  0.00000000e+00  0.00000000e+00
  0.00000000e+00  0.00000000e+00  0.00000000e+00  0.00000000e+00
  0.00000000e+00  0.00000000e+00 -1.37071730e-06 -4.51895318e-07
  0.00000000e+00  0.00000000e+00  0.00000000e+00  3.92876912e-06]","[[ 2.90950073e-04  4.16177254e-03]
 [-5.68123277e-05  4.11106570e-03]]",[],0.0,0.0
1787561245.6315837,1.882374453801455,1.8996724006138659,2.5963066329983615,"[ 1.21126643e-05 -3.36637255e-07  0.00000000e+00  0.00000000e+00
  0.00000000e+00 -1.37071730e-06 -3.36637255e-07  6.39851898e-06
  0.00000000e+00  0.00000000e+00  0.00000000e+00 -4.51895318e-07
  0.00000000e+00  0.00000000e+00  0.00000000e+00  0.00000000e+00
  0.00000000e+00  0.00000000e+00  0.00000000e+00  0.00000000e+00
  0.00000000e+00  0.00000000e+00  0.00000000e+00  0.00000000e+00
  0.00000000e+00  0.00000000e+00  0.00000000e+00  0.00000000e+00
  0.00000000e+00  0.00000000e+00 -1.37071730e-06 -4.51895318e-07
  0.00000000e+00  0.00000000e+00  0.00000000e+00  3.92876912e-06]","[[ 2.90950073e-04  4.16177254e-03]
 [-5.68123277e-05  4.11106570e-03]]",[],0.0,0.0
1787561245.6836092,1.882374453801455,1.8996724006138659,2.5963066329983615,"[ 1.21126643e-05 -3.36637255e-07  0.00000000e+00  0.00000000e+00
  0.00000000e+00 -1.37071730e-06 -3.36637255e-07  6.39851898e-06
  0.00000000e+00  0.00000000e+00  0.00000000e+00 -4.51895318e-07
  0.00000000e+00  0.00000000e+00  0.00000000e+00  0.00000000e+00
  0.00000000e+00  0.00000000e+00  0.00000000e+00  0.00000000e+00
  0.00000000e+00  0.00000000e+00  0.00000000e+00  0.00000000e+00
  0.00000000e+00  0.00000000e+00  0.00000000e+00  0.00000000e+00
  0.00000000e+00  0.00000000e+00 -1.37071730e-06 -4.51895318e-07
  0.00000000e+00  0.00000000e+00  0.00000000e+00  3.92876912e-06]","[[ 2.90950073e-04  4.16177254e-03]
 [-5.68123277e-05  4.11106570e-03]]",[],0.0,0.0
1787561245.7317498,1.8965556348388166,1.8961813822940083,2.61274751788946,"[ 1.08346541e-05 -3.12391340e-07  0.00000000e+00  0.00000000e+00
  0.00000000e+00 -1.16425085e-06 -3.12391340e-07  5.64722910e-06
  0.00000000e+00  0.00000000e+00  0.00000000e+00 -4.13100661e-07
  0.00000000e+00  0.00000000e+00  0.00000000e+00  0.00000000e+00
  0.00000000e+00  0.00000000e+00  0.00000000e+00  0.00000000e+00
  0.00000000e+00  0.00000000e+00  0.00000000e+00  0.00000000e+00
  0.00000000e+00  0.00000000e+00  0.00000000e+00  0.00000000e+00
  0.00000000e+00  0.00000000e+00 -1.16425085e-06 -4.13100661e-07
  0.00000000e+00  0.00000000e+00  0.00000000e+00  3.83731875e-06]","[[ 2.60412891e-04  3.60012053e-03]
 [-5.03733571e-05  3.63569086e-03]]",[],0.0,0.0
1787561245.7817974,1.8965556348388166,1.8961813822940083,2.61274751788946,"[ 1.08346541e-05 -3.12391340e-07  0.00000000e+00  0.00000000e+00
  0.00000000e+00 -1.16425085e-06 -3.12391340e-07  5.64722910e-06
  0.00000000e+00  0.00000000e+00  0.00000000e+00 -4.13100661e-07
  0.00000000e+00  0.00000000e+00  0.00000000e+00  0.00000000e+00
  0.00000000e+00  0.00000000e+00  0.00000000e+00  0.00000000e+00
  0.00000000e+00  0.00000000e+00  0.00000000e+00  0.00000000e+00
  0.00000000e+00  0.00000000e+00  0.00000000e+00  0.00000000e+00
  0.00000000e+00  0.00000000e+00 -1.16425085e-06 -4.13100661e-07
  0.00000000e+00  0.00000000e+00  0.00000000e+00  3.83731875e-06]","[[ 2.60412891e-04  3.60012053e-03]
 [-5.03733571e-05  3.63569086e-03]]",[],0.0,0.0
1787561245.8312395,1.8965556348388166,1.8961813822940083,2.61274751788946,"[ 1.08346541e-05 -3.12391340e-07  0.00000000e+00  0.00000000e+00
  0.00000000e+00 -1.16425085e-06 -3.12391340e-07  5.64722910e-06
  0.00000000e+00  0.00000000e+00  0.00000000e+00 -4.13100661e-07
  0.00000000e+00  0.00000000e+00  0.00000000e+00  0.00000000e+00
  0.00000000e+00  0.00000000e+00  0.00000000e+00  0.00000000e+00
  0.00000000e+00  0.00000000e+00  0.00000000e+00  0.00000000e+00
  0.00000000e+00  0.00000000e+00  0.00000000e+00  0.00000000e+00
  0.00000000e+00  0.00000000e+00 -1.16425085e-06 -4.13100661e-07
  0.00000000e+00  0.00000000e+00  0.00000000e+00  3.83731875e-06]","[[ 2.60412891e-04  3.60012053e-03]
 [-5.03733571e-05  3.63569086e-03]]",[],0.0,0.0
1787561245.8826709,1.8965556348388166,1.8961813822940083,2.61274751788946,"[ 1.08346541e-05 -3.12391340e-07  0.00000000e+00  0.00000000e+00
  0.00000000e+00 -1.16425085e-06 -3.12391340e-07  5.64722910e-06
  0.00000000e+00  0.00000000e+00  0.00000000e+00 -4.13100661e-07
  0.00000000e+00  0.00000000e+00  0.00000000e+00  0.00000000e+00
  0.00000000e+00  0.00000000e+00  0.00000000e+00  0.00000000e+00
  0.00000000e+00  0.00000000e+00  0.00000000e+00  0.00000000e+00
  0.00000000e+00  0.00000000e+00  0.00000000e+00  0.00000000e+00
  0.00000000e+00  0.00000000e+00 -1.16425085e-06 -4.13100661e-07
  0.00000000e+00  0.00000000e+00  0.00000000e+00  3.83731875e-06]","[[ 2.60412891e-04  3.60012053e-03]
 [-5.03733571e-05  3.63569086e-03]]",[],0.0,0.0
1787561245.9325972,1.8965556348388166,1.8961813822940083,2.61274751788946,"[ 1.08346541e-05 -3.12391340e-07  0.00000000e+00  0.00000000e+00
  0.00000000e+00 -1.16425085e-06 -3.12391340e-07  5.64722910e-06
  0.00000000e+00  0.00000000e+00  0.00000000e+00 -4.13100661e-07
  0.00000000e+00  0.00000000e+00  0.00000000e+00  0.00000000e+00
  0.00000000e+00  0.00000000e+00  0.00000000e+00  0.00000000e+00
  0.00000000e+00  0.00000000e+00  0.00000000e+00  0.00000000e+00
  0.00000000e+00  0.00000000e+00  0.00000000e+00  0.00000000e+00
  0.00000000e+00  0.00000000e+00 -1.16425085e-06 -4.13100661e-07
  0.00000000e+00  0.00000000e+00  0.00000000e+00  3.83731875e-06]","[[ 2.60412891e-04  3.60012053e-03]
 [-5.03733571e-05  3.63569086e-03]]",[],0.0,0.0
1787561245.9812114,1.8965556348388166,1.8961813822940083,2.61274751788946,"[ 1.08346541e-05 -3.12391340e-07  0.00000000e+00  0.00000000e+00
  0.00000000e+00 -1.16425085e-06 -3.12391340e-07  5.64722910e-06
  0.00000000e+00  0.00000000e+00  0.00000000e+00 -4.13100661e-07
  0.00000000e+00  0.00000000e+00  0.00000000e+00  0.00000000e+00
  0.00000000e+00  0.00000000e+00  0.00000000e+00  0.00000000e+00
  0.00000000e+00  0.00000000e+00  0.00000000e+00  0.00000000e+00
  0.00000000e+00  0.00000000e+00  0.00000000e+00  0.00000000e+00
  0.00000000e+00  0.00000000e+00 -1.16425085e-06 -4.13100661e-07
  0.00000000e+00  0.00000000e+00  0.00000000e+00  3.83731875e-06]","[[ 2.60412891e-04  3.60012053e-03]
 [-5.03733571e-05  3.63569086e-03]]",[],0.0,0.0
1787561246.0335631,1.8965556348388166,1.8961813822940083,2.61274751788946,"[ 1.08346541e-05 -3.12391340e-07  0.00000000e+00  0.00000000e+00
  0.00000000e+00 -1.16425085e-06 -3.12391340e-07  5.64722910e-06
  0.00000000e+00  0.00000000e+00  0.00000000e+00 -4.13100661e-07
  0.00000000e+00  0.00000000e+00  0.00000000e+00  0.00000000e+00
  0.00000000e+00  0.00000000e+00  0.00000000e+00  0.00000000e+00
  0.00000000e+00  0.00000000e+00  0.00000000e+00  0.00000000e+00
  0.00000000e+00  0.00000000e+00  0.00000000e+00  0.00000000e+00
  0.00000000e+00  0.00000000e+00 -1.16425085e-06 -4.13100661e-07
  0.00000000e+00  0.00000000e+00  0.00000000e+00  3.83731875e-06]","[[ 2.60412891e-04  3.60012053e-03]
 [-5.03733571e-05  3.63569086e-03]]",[],0.0,0.0
1787561246.0824797,1.8965556348388166,1.8961813822940083,2.61274751788946,"[ 1.08346541e-05 -3.12391340e-07  0.00000000e+00  0.00000000e+00
  0.00000000e+00 -1.16425085e-06 -3.12391340e-07  5.64722910e-06
  0.00000000e+00  0.00000000e+00  0.00000000e+00 -4.13100661e-07
  0.00000000e+00  0.00000000e+00  0.00000000e+00  0.00000000e+00
  0.00000000e+00  0.00000000e+00  0.00000000e+00  0.00000000e+00
  0.00000000e+00  0.00000000e+00  0.00000000e+00  0.00000000e+00
  0.00000000e+00  0.00000000e+00  0.00000000e+00  0.00000000e+00
  0.00000000e+00  0.00000000e+00 -1.16425085e-06 -4.13100661e-07
  0.00000000e+00  0.00000000e+00  0.00000000e+00  3.83731875e-06]","[[ 2.60412891e-04  3.60012053e-03]
 [-5.03733571e-05  3.63569086e-03]]",[],0.0,0.0
1787561246.1328332,1.8965556348388166,1.8961813822940083,2.61274751788946,"[ 1.08346541e-05 -3.12391340e-07  0.00000000e+00  0.00000000e+00
  0.00000000e+00 -1.16425085e-06 -3.12391340e-07  5.64722910e-06
  0.00000000e+00  0.00000000e+00  0.00000000e+00 -4.13100661e-07
  0.00000000e+00  0.00000000e+00  0.00000000e+00  0.00000000e+00
  0.00000000e+00  0.00000000e+00  0.00000000e+00  0.00000000e+00
  0.00000000e+00  0.00000000e+00  0.00000000e+00  0.00000000e+00
  0.00000000e+00  0.00000000e+00  0.00000000e+00  0.00000000e+00
  0.00000000e+00  0.00000000e+00 -1.16425085e-06 -4.13100661e-07
  0.00000000e+00  0.00000000e+00  0.00000000e+00  3.83731875e-06]","[[ 2.60412891e-04  3.60012053e-03]
 [-5.03733571e-05  3.63569086e-03]]",[],0.0,0.0
1787561246.1837134,1.8965556348388166,1.8961813822940083,2.61274751788946,"[ 1.08346541e-05 -3.12391340e-07  0.00000000e+00  0.00000000e+00
  0.00000000e+00 -1.16425085e-06 -3.12391340e-07  5.64722910e-06
  0.00000000e+00  0.00000000e+00  0.00000000e+00 -4.13100661e-07
  0.00000000e+00  0.00000000e+00  0.00000000e+00  0.00000000e+00
  0.00000000e+00  0.00000000e+00  0.00000000e+00  0.00000000e+00
  0.00000000e+00  0.00000000e+00  0.00000000e+00  0.00000000e+00
  0.00000000e+00  0.00000000e+00  0.00000000e+00  0.00000000e+00
  0.00000000e+00  0.00000000e+00 -1.16425085e-06 -4.13100661e-07
  0.00000000e+00  0.00000000e+00  0.00000000e+00  3.83731875e-06]","[[ 2.60412891e-04  3.60012053e-03]
 [-5.03733571e-05  3.63569086e-03]]",[],0.0,0.0
1787561246.2317407,1.8965556348388166,1.8961813822940083,2.61274751788946,"[ 1.08346541e-05 -3.12391340e-07  0.00000000e+00  0.00000000e+00
  0.00000000e+00 -1.16425085e-06 -3.12391340e-07  5.64722910e-06
  0.00000000e+00  0.00000000e+00  0.00000000e+00 -4.13100661e-07
  0.00000000e+00  0.00000000e+00  0.00000000e+00  0.00000000e+00
  0.00000000e+00  0.00000000e+00  0.00000000e+00  0.00000000e+00
  0.00000000e+00  0.00000000e+00  0.00000000e+00  0.00000000e+00
  0.00000000e+00  0.00000000e+00  0.00000000e+00  0.00000000e+00
  0.00000000e+00  0.00000000e+00 -1.16425085e-06 -4.13100661e-07
  0.00000000e+00  0.00000000e+00  0.00000000e+00  3.83731875e-06]","[[ 2.60412891e-04  3.60012053e-03]
 [-5.03733571e-05  3.63569086e-03]]",[],0.0,0.0
1787561246.2979836,1.8965556348388166,1.8961813822940083,2.61274751788946,"[ 1.08346541e-05 -3.12391340e-07  0.00000000e+00  0.00000000e+00
  0.00000000e+00 -1.16425085e-06 -3.12391340e-07  5.64722910e-06
  0.00000000e+00  0.00000000e+00  0.00000000e+00 -4.13100661e-07
  0.00000000e+00  0.00000000e+00  0.00000000e+00  0.00000000e+00
  0.00000000e+00  0.00000000e+00  0.00000000e+00  0.00000000e+00
  0.00000000e+00  0.00000000e+00  0.00000000e+00  0.00000000e+00
  0.00000000e+00  0.00000000e+00  0.00000000e+00  0.00000000e+00
  0.00000000e+00  0.00000000e+00 -1.16425085e-06 -4.13100661e-07
  0.00000000e+00  0.00000000e+00  0.00000000e+00  3.83731875e-06]","[[ 2.60412891e-04  3.60012053e-03]
 [-5.03733571e-05  3.63569086e-03]]",[],0.0,0.0
1787561246.3313332,1.8965556348388166,1.8961813822940083,2.61274751788946,"[ 1.08346541e-05 -3.12391340e-07  0.00000000e+00  0.00000000e+00
  0.00000000e+00 -1.16425085e-06 -3.12391340e-07  5.64722910e-06
  0.00000000e+00  0.00000000e+00  0.00000000e+00 -4.13100661e-07
  0.00000000e+00  0.00000000e+00  0.00000000e+00  0.00000000e+00
  0.00000000e+00  0.00000000e+00  0.00000000e+00  0.00000000e+00
  0.00000000e+00  0.00000000e+00  0.00000000e+00  0.00000000e+00
  0.00000000e+00  0.00000000e+00  0.00000000e+00  0.00000000e+00
  0.00000000e+00  0.00000000e+00 -1.16425085e-06 -4.13100661e-07
  0.00000000e+00  0.00000000e+00  0.00000000e+00  3.83731875e-06]","[[ 2.60412891e-04  3.60012053e-03]
 [-5.03733571e-05  3.63569086e-03]]",[],0.0,0.0
1787561246.3821964,1.8965556348388166,1.8961813822940083,2.61274751788946,"[ 1.08346541e-05 -3.12391340e-07  0.00000000e+00  0.00000000e+00
  0.00000000e+00 -1.16425085e-06 -3.12391340e-07  5.64722910e-06
  0.00000000e+00  0.00000000e+00  0.00000000e+00 -4.13100661e-07
  0.00000000e+00  0.00000000e+00  0.00000000e+00  0.00000000e+00
  0.00000000e+00  0.00000000e+00  0.00000000e+00  0.00000000e+00
  0.00000000e+00  0.00000000e+00  0.00000000e+00  0.00000000e+00
  0.00000000e+00  0.00000000e+00  0.00000000e+00  0.00000000e+00
  0.00000000e+00  0.00000000e+00 -1.16425085e-06 -4.13100661e-07
  0.00000000e+00  0.00000000e+00  0.00000000e+00  3.83731875e-06]","[[ 2.60412891e-04  3.60012053e-03]
 [-5.03733571e-05  3.63569086e-03]]",[],0.0,0.0
1787561246.431177,1.9079617972648084,1.892191149883226,2.618738201357692,"[ 9.76699119e-06 -2.96808870e-07  0.00000000e+00  0.00000000e+00
  0.00000000e+00 -1.11630496e-06 -2.96808870e-07  5.08686917e-06
  0.00000000e+00  0.00000000e+00  0.00000000e+00 -3.89971817e-07
  0.00000000e+00  0.00000000e+00  0.00000000e+00  0.00000000e+00
  0.00000000e+00  0.00000000e+00  0.00000000e+00  0.00000000e+00
  0.00000000e+00  0.00000000e+00  0.00000000e+00  0.00000000e+00
  0.00000000e+00  0.00000000e+00  0.00000000e+00  0.00000000e+00
  0.00000000e+00  0.00000000e+00 -1.11630496e-06 -3.89971817e-07
  0.00000000e+00  0.00000000e+00  0.00000000e+00  3.80118324e-06]","[[ 2.60412891e-04  3.60012053e-03]
 [-5.03733571e-05  3.63569086e-03]]",[],0.0,0.0
1787561246.4813967,1.9079617972648084,1.892191149883226,2.618738201357692,"[ 9.76699119e-06 -2.96808870e-07  0.00000000e+00  0.00000000e+00
  0.00000000e+00 -1.11630496e-06 -2.96808870e-07  5.08686917e-06
  0.00000000e+00  0.00000000e+00  0.00000000e+00 -3.89971817e-07
  0.00000000e+00  0.00000000e+00  0.00000000e+00  0.00000000e+00
  0.00000000e+00  0.00000000e+00  0.00000000e+00  0.00000000e+00
  0.00000000e+00  0.00000000e+00  0.00000000e+00  0.00000000e+00
  0.00000000e+00  0.00000000e+00  0.00000000e+00  0.00000000e+00
  0.00000000e+00  0.00000000e+00 -1.11630496e-06 -3.89971817e-07
  0.00000000e+00  0.00000000e+00  0.00000000e+00  3.80118324e-06]","[[ 2.34889257e-04  3.33863855e-03]
 [-4.57026313e-05  3.28918026e-03]]",[],0.0,0.0
1787561246.5328376,1.9079617972648084,1.892191149883226,2.618738201357692,"[ 9.76699119e-06 -2.96808870e-07  0.00000000e+00  0.00000000e+00
  0.00000000e+00 -1.11630496e-06 -2.96808870e-07  5.08686917e-06
  0.00000000e+00  0.00000000e+00  0.00000000e+00 -3.89971817e-07
  0.00000000e+00  0.00000000e+00  0.00000000e+00  0.00000000e+00
  0.00000000e+00  0.00000000e+00  0.00000000e+00  0.00000000e+00
  0.00000000e+00  0.00000000e+00  0.00000000e+00  0.00000000e+00
  0.00000000e+00  0.00000000e+00  0.00000000e+00  0.00000000e+00
  0.00000000e+00  0.00000000e+00 -1.11630496e-06 -3.89971817e-07
  0.00000000e+00  0.00000000e+00  0.00000000e+00  3.80118324e-06]","[[ 2.34889257e-04  3.33863855e-03]
 [-4.57026313e-05  3.28918026e-03]]",[],0.0,0.0
1787561246.5813715,1.9079617972648084,1.892191149883226,2.618738201357692,"[ 9.76699119e-06 -2.96808870e-07  0.00000000e+00  0.00000000e+00
  0.00000000e+00 -1.11630496e-06 -2.96808870e-07  5.08686917e-06
  0.00000000e+00  0.00000000e+00  0.00000000e+00 -3.89971817e-07
  0.00000000e+00  0.00000000e+00  0.00000000e+00  0.00000000e+00
  0.00000000e+00  0.00000000e+00  0.00000000e+00  0.00000000e+00
  0.00000000e+00  0.00000000e+00  0.00000000e+00  0.00000000e+00
  0.00000000e+00  0.00000000e+00  0.00000000e+00  0.00000000e+00
  0.00000000e+00  0.00000000e+00 -1.11630496e-06 -3.89971817e-07
  0.00000000e+00  0.00000000e+00  0.00000000e+00  3.80118324e-06]","[[ 2.34889257e-04  3.33863855e-03]
 [-4.57026313e-05  3.28918026e-03]]",[],0.0,0.0
1787561246.6312437,1.9079617972648084,1.892191149883226,2.618738201357692,"[ 9.76699119e-06 -2.96808870e-07  0.00000000e+00  0.00000000e+00
  0.00000000e+00 -1.11630496e-06 -2.96808870e-07  5.08686917e-06
  0.00000000e+00  0.00000000e+00  0.00000000e+00 -3.89971817e-07
  0.00000000e+00  0.00000000e+00  0.00000000e+00  0.00000000e+00
  0.00000000e+00  0.00000000e+00  0.00000000e+00  0.00000000e+00
  0.00000000e+00  0.00000000e+00  0.00000000e+00  0.00000000e+00
  0.00000000e+00  0.00000000e+00  0.00000000e+00  0.00000000e+00
  0.00000000e+00  0.00000000e+00 -1.11630496e-06 -3.89971817e-07
  0.00000000e+00  0.00000000e+00  0.00000000e+00  3.80118324e-06]","[[ 2.34889257e-04  3.33863855e-03]
 [-4.57026313e-05  3.28918026e-03]]",[],0.0,0.0
1787561246.6828117,1.9079617972648084,1.892191149883226,2.618738201357692,"[ 9.76699119e-06 -2.96808870e-07  0.00000000e+00  0.00000000e+00
  0.00000000e+00 -1.11630496e-06 -2.96808870e-07  5.08686917e-06
  0.00000000e+00  0.00000000e+00  0.00000000e+00 -3.89971817e-07
  0.00000000e+00  0.00000000e+00  0.00000000e+00  0.00000000e+00
  0.00000000e+00  0.00000000e+00  0.00000000e+00  0.00000000e+00
  0.00000000e+00  0.00000000e+00  0.00000000e+00  0.00000000e+00
  0.00000000e+00  0.00000000e+00  0.00000000e+00  0.00000000e+00
  0.00000000e+00  0.00000000e+00 -1.11630496e-06 -3.89971817e-07
  0.00000000e+00  0.00000000e+00  0.00000000e+00  3.80118324e-06]","[[ 2.34889257e-04  3.33863855e-03]
 [-4.57026313e-05  3.28918026e-03]]",[],0.0,0.0
1787561246.7450342,1.9079617972648084,1.892191149883226,2.618738201357692,"[ 9.76699119e-06 -2.96808870e-07  0.00000000e+00  0.00000000e+00
  0.00000000e+00 -1.11630496e-06 -2.96808870e-07  5.08686917e-06
  0.00000000e+00  0.00000000e+00  0.00000000e+00 -3.89971817e-07
  0.00000000e+00  0.00000000e+00  0.00000000e+00  0.00000000e+00
  0.00000000e+00  0.00000000e+00  0.00000000e+00  0.00000000e+00
  0.00000000e+00  0.00000000e+00  0.00000000e+00  0.00000000e+00
  0.00000000e+00  0.00000000e+00  0.00000000e+00  0.00000000e+00
  0.00000000e+00  0.00000000e+00 -1.11630496e-06 -3.89971817e-07
  0.00000000e+00  0.00000000e+00  0.00000000e+00  3.80118324e-06]","[[ 2.34889257e-04  3.33863855e-03]
 [-4.57026313e-05  3.28918026e-03]]",[],0.0,0.0
1787561246.783638,1.9079617972648084,1.892191149883226,2.618738201357692,"[ 9.76699119e-06 -2.96808870e-07  0.00000000e+00  0.00000000e+00
  0.00000000e+00 -1.11630496e-06 -2.96808870e-07  5.08686917e-06
  0.00000000e+00  0.00000000e+00  0.00000000e+00 -3.89971817e-07
  0.00000000e+00  0.00000000e+00  0.00000000e+00  0.00000000e+00
  0.00000000e+00  0.00000000e+00  0.00000000e+00  0.00000000e+00
  0.00000000e+00  0.00000000e+00  0.00000000e+00  0.00000000e+00
  0.00000000e+00  0.00000000e+00  0.00000000e+00  0.00000000e+00
  0.00000000e+00  0.00000000e+00 -1.11630496e-06 -3.89971817e-07
  0.00000000e+00  0.00000000e+00  0.00000000e+00  3.80118324e-06]","[[ 2.34889257e-04  3.33863855e-03]
 [-4.57026313e-05  3.28918026e-03]]",[],0.0,0.0
1787561246.8335507,1.9079617972648084,1.892191149883226,2.618738201357692,"[ 9.76699119e-06 -2.96808870e-07  0.00000000e+00  0.00000000e+00
  0.00000000e+00 -1.11630496e-06 -2.96808870e-07  5.08686917e-06
  0.00000000e+00  0.00000000e+00  0.00000000e+00 -3.89971817e-07
  0.00000000e+00  0.00000000e+00  0.00000000e+00  0.00000000e+00
  0.00000000e+00  0.00000000e+00  0.00000000e+00  0.00000000e+00
  0.00000000e+00  0.00000000e+00  0.00000000e+00  0.00000000e+00
  0.00000000e+00  0.00000000e+00  0.00000000e+00  0.00000000e+00
  0.00000000e+00  0.00000000e+00 -1.11630496e-06 -3.89971817e-07
  0.00000000e+00  0.00000000e+00  0.00000000e+00  3.80118324e-06]","[[ 2.34889257e-04  3.33863855e-03]
 [-4.57026313e-05  3.28918026e-03]]",[],0.0,0.0
1787561246.9032414,1.9079617972648084,1.892191149883226,2.618738201357692,"[ 9.76699119e-06 -2.96808870e-07  0.00000000e+00  0.00000000e+00
  0.00000000e+00 -1.11630496e-06 -2.96808870e-07  5.08686917e-06
  0.00000000e+00  0.00000000e+00  0.00000000e+00 -3.89971817e-07
  0.00000000e+00  0.00000000e+00  0.00000000e+00  0.00000000e+00
  0.00000000e+00  0.00000000e+00  0.00000000e+00  0.00000000e+00
  0.00000000e+00  0.00000000e+00  0.00000000e+00  0.00000000e+00
  0.00000000e+00  0.00000000e+00  0.00000000e+00  0.00000000e+00
  0.00000000e+00  0.00000000e+00 -1.11630496e-06 -3.89971817e-07
  0.00000000e+00  0.00000000e+00  0.00000000e+00  3.80118324e-06]","[[ 2.34889257e-04  3.33863855e-03]
 [-4.57026313e-05  3.28918026e-03]]",[],0.0,0.0
1787561246.9431412,1.9079617972648084,1.892191149883226,2.618738201357692,"[ 9.76699119e-06 -2.96808870e-07  0.00000000e+00  0.00000000e+00
  0.00000000e+00 -1.11630496e-06 -2.96808870e-07  5.08686917e-06
  0.00000000e+00  0.00000000e+00  0.00000000e+00 -3.89971817e-07
  0.00000000e+00  0.00000000e+00  0.00000000e+00  0.00000000e+00
  0.00000000e+00  0.00000000e+00  0.00000000e+00  0.00000000e+00
  0.00000000e+00  0.00000000e+00  0.00000000e+00  0.00000000e+00
  0.00000000e+00  0.00000000e+00  0.00000000e+00  0.00000000e+00
  0.00000000e+00  0.00000000e+00 -1.11630496e-06 -3.89971817e-07
  0.00000000e+00  0.00000000e+00  0.00000000e+00  3.80118324e-06]","[[ 2.34889257e-04  3.33863855e-03]
 [-4.57026313e-05  3.28918026e-03]]",[],0.0,0.0
1787561246.9836745,1.9079617972648084,1.892191149883226,2.618738201357692,"[ 9.76699119e-06 -2.96808870e-07  0.00000000e+00  0.00000000e+00
  0.00000000e+00 -1.11630496e-06 -2.96808870e-07  5.08686917e-06
  0.00000000e+00  0.00000000e+00  0.00000000e+00 -3.89971817e-07
  0.00000000e+00  0.00000000e+00  0.00000000e+00  0.00000000e+00
  0.00000000e+00  0.00000000e+00  0.00000000e+00  0.00000000e+00
  0.00000000e+00  0.00000000e+00  0.00000000e+00  0.00000000e+00
  0.00000000e+00  0.00000000e+00  0.00000000e+00  0.00000000e+00
  0.00000000e+00  0.00000000e+00 -1.11630496e-06 -3.89971817e-07
  0.00000000e+00  0.00000000e+00  0.00000000e+00  3.80118324e-06]","[[ 2.34889257e-04  3.33863855e-03]
 [-4.57026313e-05  3.28918026e-03]]",[],0.0,0.0
1787561247.0403578,1.9079617972648084,1.892191149883226,2.618738201357692,"[ 9.76699119e-06 -2.96808870e-07  0.00000000e+00  0.00000000e+00
  0.00000000e+00 -1.11630496e-06 -2.96808870e-07  5.08686917e-06
  0.00000000e+00  0.00000000e+00  0.00000000e+00 -3.89971817e-07
  0.00000000e+00  0.00000000e+00  0.00000000e+00  0.00000000e+00
  0.00000000e+00  0.00000000e+00  0.00000000e+00  0.00000000e+00
  0.00000000e+00  0.00000000e+00  0.00000000e+00  0.00000000e+00
  0.00000000e+00  0.00000000e+00  0.00000000e+00  0.00000000e+00
  0.00000000e+00  0.00000000e+00 -1.11630496e-06 -3.89971817e-07
  0.00000000e+00  0.00000000e+00  0.00000000e+00  3.80118324e-06]","[[ 2.34889257e-04  3.33863855e-03]
 [-4.57026313e-05  3.28918026e-03]]",[],0.0,0.0
1787561247.0847108,1.9079617972648084,1.892191149883226,2.618738201357692,"[ 9.76699119e-06 -2.96808870e-07  0.00000000e+00  0.00000000e+00
  0.00000000e+00 -1.11630496e-06 -2.96808870e-07  5.08686917e-06
  0.00000000e+00  0.00000000e+00  0.00000000e+00 -3.89971817e-07
  0.00000000e+00  0.00000000e+00  0.00000000e+00  0.00000000e+00
  0.00000000e+00  0.00000000e+00  0.00000000e+00  0.00000000e+00
  0.00000000e+00  0.00000000e+00  0.00000000e+00  0.00000000e+00
  0.00000000e+00  0.00000000e+00  0.00000000e+00  0.00000000e+00
  0.00000000e+00  0.00000000e+00 -1.11630496e-06 -3.89971817e-07
  0.00000000e+00  0.00000000e+00  0.00000000e+00  3.80118324e-06]","[[ 2.34889257e-04  3.33863855e-03]
 [-4.57026313e-05  3.28918026e-03]]",[],0.0,0.0
1787561247.1318336,1.9079617972648084,1.892191149883226,2.618738201357692,"[ 9.76699119e-06 -2.96808870e-07  0.00000000e+00  0.00000000e+00
  0.00000000e+00 -1.11630496e-06 -2.96808870e-07  5.08686917e-06
  0.00000000e+00  0.00000000e+00  0.00000000e+00 -3.89971817e-07
  0.00000000e+00  0.00000000e+00  0.00000000e+00  0.00000000e+00
  0.00000000e+00  0.00000000e+00  0.00000000e+00  0.00000000e+00
  0.00000000e+00  0.00000000e+00  0.00000000e+00  0.00000000e+00
  0.00000000e+00  0.00000000e+00  0.00000000e+00  0.00000000e+00
  0.00000000e+00  0.00000000e+00 -1.11630496e-06 -3.89971817e-07
  0.00000000e+00  0.00000000e+00  0.00000000e+00  3.80118324e-06]","[[ 2.34889257e-04  3.33863855e-03]
 [-4.57026313e-05  3.28918026e-03]]",[],0.0,0.0
1787561247.1811502,1.9079617972648084,1.892191149883226,2.618738201357692,"[ 9.76699119e-06 -2.96808870e-07  0.00000000e+00  0.00000000e+00
  0.00000000e+00 -1.11630496e-06 -2.96808870e-07  5.08686917e-06
  0.00000000e+00  0.00000000e+00  0.00000000e+00 -3.89971817e-07
  0.00000000e+00  0.00000000e+00  0.00000000e+00  0.00000000e+00
  0.00000000e+00  0.00000000e+00  0.00000000e+00  0.00000000e+00
  0.00000000e+00  0.00000000e+00  0.00000000e+00  0.00000000e+00
  0.00000000e+00  0.00000000e+00  0.00000000e+00  0.00000000e+00
  0.00000000e+00  0.00000000e+00 -1.11630496e-06 -3.89971817e-07
  0.00000000e+00  0.00000000e+00  0.00000000e+00  3.80118324e-06]","[[ 2.34889257e-04  3.33863855e-03]
 [-4.57026313e-05  3.28918026e-03]]",[],0.0,0.0
1787561247.2316525,1.9235528227894836,1.886998466263492,2.6241257956490136,"[ 8.80616692e-06 -2.33969367e-07  0.00000000e+00  0.00000000e+00
  0.00000000e+00 -9.09281872e-07 -2.33969367e-07  4.60307744e-06
  0.00000000e+00  0.00000000e+00  0.00000000e+00 -3.18776376e-07
  0.00000000e+00  0.00000000e+00  0.00000000e+00  0.00000000e+00
  0.00000000e+00  0.00000000e+00  0.00000000e+00  0.00000000e+00
  0.00000000e+00  0.00000000e+00  0.00000000e+00  0.00000000e+00
  0.00000000e+00  0.00000000e+00  0.00000000e+00  0.00000000e+00
  0.00000000e+00  0.00000000e+00 -9.09281872e-07 -3.18776376e-07
  0.00000000e+00  0.00000000e+00  0.00000000e+00  3.72106658e-06]","[[ 2.44447964e-05  4.22107842e-03]
 [-1.15159382e-04  5.75701951e-04]]",[],0.0,0.0
1787561247.2821,1.9235528227894836,1.886998466263492,2.6241257956490136,"[ 8.80616692e-06 -2.33969367e-07  0.00000000e+00  0.00000000e+00
  0.00000000e+00 -9.09281872e-07 -2.33969367e-07  4.60307744e-06
  0.00000000e+00  0.00000000e+00  0.00000000e+00 -3.18776376e-07
  0.00000000e+00  0.00000000e+00  0.00000000e+00  0.00000000e+00
  0.00000000e+00  0.00000000e+00  0.00000000e+00  0.00000000e+00
  0.00000000e+00  0.00000000e+00  0.00000000e+00  0.00000000e+00
  0.00000000e+00  0.00000000e+00  0.00000000e+00  0.00000000e+00
  0.00000000e+00  0.00000000e+00 -9.09281872e-07 -3.18776376e-07
  0.00000000e+00  0.00000000e+00  0.00000000e+00  3.72106658e-06]","[[ 2.44447964e-05  4.22107842e-03]
 [-1.15159382e-04  5.75701951e-04]]",[],0.0,0.0
1787561247.3321717,1.9235528227894836,1.886998466263492,2.6241257956490136,"[ 8.80616692e-06 -2.33969367e-07  0.00000000e+00  0.00000000e+00
  0.00000000e+00 -9.09281872e-07 -2.33969367e-07  4.60307744e-06
  0.00000000e+00  0.00000000e+00  0.00000000e+00 -3.18776376e-07
  0.00000000e+00  0.00000000e+00  0.00000000e+00  0.00000000e+00
  0.00000000e+00  0.00000000e+00  0.00000000e+00  0.00000000e+00
  0.00000000e+00  0.00000000e+00  0.00000000e+00  0.00000000e+00
  0.00000000e+00  0.00000000e+00  0.00000000e+00  0.00000000e+00
  0.00000000e+00  0.00000000e+00 -9.09281872e-07 -3.18776376e-07
  0.00000000e+00  0.00000000e+00  0.00000000e+00  3.72106658e-06]","[[ 2.44447964e-05  4.22107842e-03]
 [-1.15159382e-04  5.75701951e-04]]",[],0.0,0.0
1787561247.3814,1.9235528227894836,1.886998466263492,2.6241257956490136,"[ 8.80616692e-06 -2.33969367e-07  0.00000000e+00  0.00000000e+00
  0.00000000e+00 -9.09281872e-07 -2.33969367e-07  4.60307744e-06
  0.00000000e+00  0.00000000e+00  0.00000000e+00 -3.18776376e-07
  0.00000000e+00  0.00000000e+00  0.00000000e+00  0.00000000e+00
  0.00000000e+00  0.00000000e+00  0.00000000e+00  0.00000000e+00
  0.00000000e+00  0.00000000e+00  0.00000000e+00  0.00000000e+00
  0.00000000e+00  0.00000000e+00  0.00000000e+00  0.00000000e+00
  0.00000000e+00  0.00000000e+00 -9.09281872e-07 -3.18776376e-07
  0.00000000e+00  0.00000000e+00  0.00000000e+00  3.72106658e-06]","[[ 2.44447964e-05  4.22107842e-03]
 [-1.15159382e-04  5.75701951e-04]]",[],0.0,0.0
1787561247.4336293,1.9235528227894836,1.886998466263492,2.6241257956490136,"[ 8.80616692e-06 -2.33969367e-07  0.00000000e+00  0.00000000e+00
  0.00000000e+00 -9.09281872e-07 -2.33969367e-07  4.60307744e-06
  0.00000000e+00  0.00000000e+00  0.00000000e+00 -3.18776376e-07
  0.00000000e+00  0.00000000e+00  0.00000000e+00  0.00000000e+00
  0.00000000e+00  0.00000000e+00  0.00000000e+00  0.00000000e+00
  0.00000000e+00  0.00000000e+00  0.00000000e+00  0.00000000e+00
  0.00000000e+00  0.00000000e+00  0.00000000e+00  0.00000000e+00
  0.00000000e+00  0.00000000e+00 -9.09281872e-07 -3.18776376e-07
  0.00000000e+00  0.00000000e+00  0.00000000e+00  3.72106658e-06]","[[ 2.44447964e-05  4.22107842e-03]
 [-1.15159382e-04  5.75701951e-04]]",[],0.0,0.0
1787561247.488826,1.9235528227894836,1.886998466263492,2.6241257956490136,"[ 8.80616692e-06 -2.33969367e-07  0.00000000e+00  0.00000000e+00
  0.00000000e+00 -9.09281872e-07 -2.33969367e-07  4.60307744e-06
  0.00000000e+00  0.00000000e+00  0.00000000e+00 -3.18776376e-07
  0.00000000e+00  0.00000000e+00  0.00000000e+00  0.00000000e+00
  0.00000000e+00  0.00000000e+00  0.00000000e+00  0.00000000e+00
  0.00000000e+00  0.00000000e+00  0.00000000e+00  0.00000000e+00
  0.00000000e+00  0.00000000e+00  0.00000000e+00  0.00000000e+00
  0.00000000e+00  0.00000000e+00 -9.09281872e-07 -3.18776376e-07
  0.00000000e+00  0.00000000e+00  0.00000000e+00  3.72106658e-06]","[[ 2.44447964e-05  4.22107842e-03]
 [-1.15159382e-04  5.75701951e-04]]",[],0.0,0.0
1787561247.5381267,1.9235528227894836,1.886998466263492,2.6241257956490136,"[ 8.80616692e-06 -2.33969367e-07  0.00000000e+00  0.00000000e+00
  0.00000000e+00 -9.09281872e-07 -2.33969367e-07  4.60307744e-06
  0.00000000e+00  0.00000000e+00  0.00000000e+00 -3.18776376e-07
  0.00000000e+00  0.00000000e+00  0.00000000e+00  0.00000000e+00
  0.00000000e+00  0.00000000e+00  0.00000000e+00  0.00000000e+00
  0.00000000e+00  0.00000000e+00  0.00000000e+00  0.00000000e+00
  0.00000000e+00  0.00000000e+00  0.00000000e+00  0.00000000e+00
  0.00000000e+00  0.00000000e+00 -9.09281872e-07 -3.18776376e-07
  0.00000000e+00  0.00000000e+00  0.00000000e+00  3.72106658e-06]","[[ 2.44447964e-05  4.22107842e-03]
 [-1.15159382e-04  5.75701951e-04]]",[],0.0,0.0
